time,value,value2,value3
1582915034479,5124798.0,5605057.0,0.0
1582915034534,5099845.0,5574855.0,0.0
1582915034591,5074982.0,5551518.0,0.0
1582915034672,5045615.0,5526064.0,0.0
1582915034688,5045562.0,5515188.0,0.0
1582915034757,5063320.0,5534205.0,0.0
1582915034777,5110944.0,5565368.0,0.0
1582915034818,5032706.0,5496283.0,0.0
1582915034868,4999387.0,5481187.0,0.0
1582915034916,4994840.0,5480791.0,0.0
1582915034965,4978665.0,5466148.0,0.0
1582915035014,4939582.0,5412711.0,0.0
1582915035062,4866722.0,5341657.0,0.0
1582915035115,4846553.0,5310969.0,0.0
1582915035164,4812828.0,5259578.0,0.0
1582915035214,4795070.0,5225421.0,0.0
1582915035258,4791304.0,5196722.0,0.0
1582915035312,4774005.0,5149777.0,0.0
1582915035359,4722856.0,5101031.0,0.0
1582915035408,4727007.0,5106899.0,0.0
1582915035457,4785989.0,5159771.0,0.0
1582915035506,4734776.0,5099357.0,0.0
1582915035555,4721347.0,5100873.0,0.0
1582915035603,4738344.0,5106153.0,0.0
1582915035654,4737970.0,5054695.0,0.0
1582915035699,4726725.0,5009397.0,0.0
1582915035751,4702092.0,4967889.0,0.0
1582915035802,4670854.0,4925498.0,0.0
1582915035851,4657704.0,4897649.0,0.0
1582915035901,4638720.0,4865899.0,0.0
1582915035948,4636535.0,4867494.0,0.0
1582915035995,4626976.0,4861320.0,0.0
1582915036041,4698991.0,4929129.0,0.0
1582915036092,4778177.0,4985348.0,0.0
1582915036143,4740707.0,4941939.0,0.0
1582915036194,4627069.0,4823182.0,0.0
1582915036242,4601094.0,4779377.0,0.0
1582915036291,4593666.0,4758334.0,0.0
1582915036341,4609405.0,4765968.0,0.0
1582915036387,4611372.0,4765346.0,0.0
1582915036435,4570166.0,4715560.0,0.0
1582915036479,4549164.0,4673985.0,0.0
1582915036532,4540728.0,4653167.0,0.0
1582915036578,4503903.0,4619121.0,0.0
1582915036629,4481651.0,4608097.0,0.0
1582915036676,4462073.0,4578824.0,0.0
1582915036730,4431449.0,4548770.0,0.0
1582915036775,4421140.0,4549719.0,0.0
1582915036828,4409967.0,4512688.0,0.0
1582915036878,4374475.0,4461151.0,0.0
1582915036920,4351152.0,4447254.0,0.0
1582915036975,4350258.0,4451957.0,0.0
1582915037023,4347845.0,4444292.0,0.0
1582915037071,4336089.0,4432103.0,0.0
1582915037121,4348072.0,4448881.0,0.0
1582915037169,4347438.0,4442437.0,0.0
1582915037215,4318321.0,4428948.0,0.0
1582915037267,4310613.0,4418409.0,0.0
1582915037315,4306525.0,4419122.0,0.0
1582915037364,4301210.0,4408866.0,0.0
1582915037413,4264187.0,4343568.0,0.0
1582915037462,4221328.0,4299560.0,0.0
1582915037510,4200899.0,4284499.0,0.0
1582915037556,4190890.0,4287349.0,0.0
1582915037608,4185096.0,4282859.0,0.0
1582915037655,4172529.0,4265051.0,0.0
1582915037706,4155782.0,4252127.0,0.0
1582915037759,4143809.0,4241397.0,0.0
1582915037805,4129536.0,4237066.0,0.0
1582915037853,4134550.0,4248825.0,0.0
1582915037898,4127632.0,4224006.0,0.0
1582915037951,4074518.0,4157429.0,0.0
1582915037995,4021642.0,4105508.0,0.0
1582915038048,3998746.0,4085890.0,0.0
1582915038099,3981393.0,4070863.0,0.0
1582915038142,3966071.0,4062575.0,0.0
1582915038193,3961807.0,4056626.0,0.0
1582915038240,3943247.0,4037416.0,0.0
1582915038290,3926926.0,4024832.0,0.0
1582915038335,3918541.0,4021654.0,0.0
1582915038390,3914796.0,4025793.0,0.0
1582915038438,3910605.0,4021699.0,0.0
1582915038487,3874862.0,3970874.0,0.0
1582915038541,3817658.0,3913128.0,0.0
1582915038585,3787355.0,3890005.0,0.0
1582915038634,3773041.0,3876494.0,0.0
1582915038682,3757541.0,3868318.0,0.0
1582915038731,3749376.0,3862383.0,0.0
1582915038776,3734156.0,3853958.0,0.0
1582915038829,3723629.0,3846723.0,0.0
1582915038877,3719395.0,3844868.0,0.0
1582915038921,3716388.0,3849165.0,0.0
1582915038976,3716307.0,3851924.0,0.0
1582915039025,3714517.0,3844313.0,0.0
1582915039074,3671657.0,3789826.0,0.0
1582915039122,3631973.0,3755485.0,0.0
1582915039171,3613175.0,3743804.0,0.0
1582915039215,3606320.0,3738886.0,0.0
1582915039268,3599652.0,3738400.0,0.0
1582915039321,3598695.0,3732406.0,0.0
1582915039366,3592464.0,3727636.0,0.0
1582915039416,3589073.0,3727071.0,0.0
1582915039465,3591216.0,3729942.0,0.0
1582915039514,3599006.0,3737268.0,0.0
1582915039557,3607037.0,3745048.0,0.0
1582915039611,3599392.0,3728800.0,0.0
1582915039654,3559322.0,3681684.0,0.0
1582915039703,3531566.0,3662291.0,0.0
1582915039757,3524618.0,3659385.0,0.0
1582915039807,3521653.0,3657463.0,0.0
1582915039850,3522216.0,3586358.0,0.0
1582915039905,3520123.0,3584991.0,0.0
1582915039953,3516775.0,3584455.0,0.0
1582915040000,3522746.0,3587315.0,0.0
1582915040046,3531192.0,3594487.0,0.0
1582915040095,3538163.0,3605753.0,0.0
1582915040148,3545662.0,3613389.0,0.0
1582915040197,3542521.0,3600308.0,0.0
1582915040241,3506809.0,3562382.0,0.0
1582915040296,3484101.0,3546845.0,0.0
1582915040343,3475653.0,3547952.0,0.0
1582915040393,3475415.0,3550033.0,0.0
1582915040436,3483123.0,3557089.0,0.0
1582915040490,3480179.0,3555762.0,0.0
1582915040541,3484714.0,3556803.0,0.0
1582915040587,3487835.0,3561543.0,0.0
1582915040635,3496894.0,3571468.0,0.0
1582915040685,3509721.0,3581082.0,0.0
1582915040734,3518169.0,3590032.0,0.0
1582915040782,3526574.0,3590300.0,0.0
1582915040832,3503492.0,3560821.0,0.0
1582915040876,3480854.0,3543338.0,0.0
1582915040929,3477308.0,3541485.0,0.0
1582915040979,3475435.0,3547574.0,0.0
1582915041027,3483757.0,3554178.0,0.0
1582915041076,3489239.0,3554521.0,0.0
1582915041125,3488958.0,3556610.0,0.0
1582915041175,3492213.0,3562315.0,0.0
1582915041222,3502025.0,3569135.0,0.0
1582915041271,3514632.0,3576208.0,0.0
1582915041321,3525054.0,3591803.0,0.0
1582915041369,3541928.0,3599622.0,0.0
1582915041418,3542562.0,3589723.0,0.0
1582915041466,3518199.0,3567004.0,0.0
1582915041516,3505145.0,3560470.0,0.0
1582915041563,3504625.0,3562784.0,0.0
1582915041613,3517035.0,3576047.0,0.0
1582915041661,3527105.0,3582063.0,0.0
1582915041704,3532846.0,3582701.0,0.0
1582915041762,3537070.0,3586324.0,0.0
1582915041808,3542926.0,3595308.0,0.0
1582915041858,3560226.0,3603590.0,0.0
1582915041905,3570931.0,3613850.0,0.0
1582915041957,3586826.0,3625813.0,0.0
1582915042003,3600400.0,3632642.0,0.0
1582915042048,3584776.0,3609805.0,0.0
1582915042096,3571076.0,3595117.0,0.0
1582915042147,3563243.0,3596576.0,0.0
1582915042196,3572262.0,3604118.0,0.0
1582915042244,3585899.0,3613389.0,0.0
1582915042294,3591361.0,3618429.0,0.0
1582915042345,3596322.0,3621306.0,0.0
1582915042396,3605414.0,3623673.0,0.0
1582915042438,3610565.0,3632926.0,0.0
1582915042493,3625638.0,3642766.0,0.0
1582915042543,3635758.0,3651374.0,0.0
1582915042590,3653215.0,3662994.0,0.0
1582915042639,3653412.0,3654235.0,0.0
1582915042688,3637518.0,3632741.0,0.0
1582915042737,3623692.0,3622684.0,0.0
1582915042784,3622611.0,3627070.0,0.0
1582915042834,3633263.0,3634202.0,0.0
1582915042878,3646837.0,3642910.0,0.0
1582915042932,3649011.0,3641114.0,0.0
1582915042979,3652008.0,3644227.0,0.0
1582915043023,3656710.0,3647548.0,0.0
1582915043072,3663991.0,3655224.0,0.0
1582915043122,3674737.0,3662405.0,0.0
1582915043172,3686450.0,3671718.0,0.0
1582915043221,3695855.0,3677078.0,0.0
1582915043271,3690144.0,3662557.0,0.0
1582915043320,3669963.0,3640124.0,0.0
1582915043371,3664678.0,3637556.0,0.0
1582915043420,3671450.0,3643387.0,0.0
1582915043469,3684880.0,3653479.0,0.0
1582915043518,3691881.0,3656616.0,0.0
1582915043565,3693941.0,3656332.0,0.0
1582915043616,3700380.0,3655996.0,0.0
1582915043660,3701587.0,3661374.0,0.0
1582915043714,3710169.0,3667624.0,0.0
1582915043761,3717948.0,3673949.0,0.0
1582915043810,3730454.0,3680601.0,0.0
1582915043859,3728394.0,3675601.0,0.0
1582915043908,3719665.0,3654645.0,0.0
1582915043958,3708099.0,3641977.0,0.0
1582915044004,3711863.0,3646071.0,0.0
1582915044055,3723410.0,3655761.0,0.0
1582915044099,3736955.0,3666356.0,0.0
1582915044152,3741730.0,3663941.0,0.0
1582915044201,3741074.0,3663790.0,0.0
1582915044250,3746681.0,3666198.0,0.0
1582915044299,3755294.0,3670954.0,0.0
1582915044348,3760288.0,3680292.0,0.0
1582915044399,3775319.0,3690660.0,0.0
1582915044439,3779730.0,3682582.0,0.0
1582915044495,3761119.0,3656139.0,0.0
1582915044545,3752393.0,3643623.0,0.0
1582915044592,3752216.0,3645921.0,0.0
1582915044640,3764512.0,3655527.0,0.0
1582915044690,3771501.0,3660921.0,0.0
1582915044739,3772574.0,3661114.0,0.0
1582915044783,3775258.0,3658313.0,0.0
1582915044838,3772958.0,3659688.0,0.0
1582915044879,3777869.0,3665477.0,0.0
1582915044933,3788822.0,3677397.0,0.0
1582915044981,3797924.0,3681649.0,0.0
1582915045031,3800921.0,3674368.0,0.0
1582915045079,3784110.0,3648940.0,0.0
1582915045128,3773062.0,3633277.0,0.0
1582915045177,3771367.0,3635687.0,0.0
1582915045220,3776048.0,3645299.0,0.0
1582915045276,3786689.0,3653908.0,0.0
1582915045325,3786231.0,3651533.0,0.0
1582915045373,3786138.0,3647406.0,0.0
1582915045421,3789716.0,3653999.0,0.0
1582915045471,3793773.0,3655048.0,0.0
1582915045520,3796947.0,3664243.0,0.0
1582915045569,3811988.0,3670828.0,0.0
1582915045618,3813581.0,3665911.0,0.0
1582915045662,3794927.0,3640964.0,0.0
1582915045716,3780989.0,3624671.0,0.0
1582915045762,3772147.0,3624252.0,0.0
1582915045813,3776162.0,3628907.0,0.0
1582915045862,3776558.0,3630862.0,0.0
1582915045911,3792296.0,3639797.0,0.0
1582915045960,3796280.0,3639805.0,0.0
1582915046009,3795844.0,3637816.0,0.0
1582915046058,3806819.0,3653235.0,0.0
1582915046101,3834020.0,3681978.0,0.0
1582915046156,3874716.0,3715878.0,0.0
1582915046202,3889466.0,3712707.0,0.0
1582915046253,3861243.0,3672330.0,0.0
1582915046302,3814952.0,3631181.0,0.0
1582915046351,3796477.0,3623438.0,0.0
1582915046399,3784557.0,3614177.0,0.0
1582915046445,3770368.0,3599177.0,0.0
1582915046497,3756023.0,3579806.0,0.0
1582915046541,3740917.0,3557668.0,0.0
1582915046590,3724316.0,3535477.0,0.0
1582915046640,3723379.0,3528825.0,0.0
1582915046689,3725793.0,3522836.0,0.0
1582915046737,3725116.0,3511149.0,0.0
1582915046791,3699496.0,3479094.0,0.0
1582915046839,3679741.0,3453171.0,0.0
1582915046884,3666446.0,3443088.0,0.0
1582915046937,3662057.0,3445487.0,0.0
1582915046984,3630557.0,3429514.0,0.0
1582915047033,3608628.0,3410883.0,0.0
1582915047083,3598996.0,3395732.0,0.0
1582915047133,3600973.0,3389029.0,0.0
1582915047180,3607131.0,3396697.0,0.0
1582915047227,3622558.0,3417837.0,0.0
1582915047278,3636435.0,3434841.0,0.0
1582915047325,3632898.0,3424958.0,0.0
1582915047376,3617273.0,3409775.0,0.0
1582915047423,3609492.0,3402845.0,0.0
1582915047473,3605747.0,3409070.0,0.0
1582915047522,3609585.0,3415556.0,0.0
1582915047569,3608161.0,3414682.0,0.0
1582915047619,3607474.0,3413073.0,0.0
1582915047665,3601586.0,3412317.0,0.0
1582915047718,3600983.0,3412979.0,0.0
1582915047764,3603210.0,3418802.0,0.0
1582915047816,3606840.0,3422124.0,0.0
1582915047863,3598403.0,3411754.0,0.0
1582915047913,3574737.0,3384868.0,0.0
1582915047961,3560610.0,3374986.0,0.0
1582915048008,3559489.0,3376999.0,0.0
1582915048058,3559373.0,3381788.0,0.0
1582915048103,3562597.0,3382796.0,0.0
1582915048156,3555982.0,3378316.0,0.0
1582915048199,3549440.0,3373023.0,0.0
1582915048251,3546713.0,3373878.0,0.0
1582915048299,3547857.0,3379506.0,0.0
1582915048347,3550053.0,3385329.0,0.0
1582915048394,3547026.0,3370120.0,0.0
1582915048443,3523890.0,3343979.0,0.0
1582915048498,3504572.0,3329475.0,0.0
1582915048547,3496147.0,3329901.0,0.0
1582915048596,3499174.0,3331579.0,0.0
1582915048643,3492089.0,3328778.0,0.0
1582915048694,3486305.0,3320740.0,0.0
1582915048741,3478129.0,3318072.0,0.0
1582915048789,3476579.0,3317394.0,0.0
1582915048839,3475685.0,3321236.0,0.0
1582915048886,3472438.0,3320472.0,0.0
1582915048937,3454027.0,3295455.0,0.0
1582915048985,3426460.0,3274014.0,0.0
1582915049036,3413520.0,3264298.0,0.0
1582915049082,3407162.0,3265590.0,0.0
1582915049132,3407819.0,3264692.0,0.0
1582915049181,3399944.0,3259097.0,0.0
1582915049225,3390581.0,3252965.0,0.0
1582915049279,3383529.0,3250893.0,0.0
1582915049329,3383873.0,3252512.0,0.0
1582915049375,3383830.0,3255724.0,0.0
1582915049423,3379866.0,3247546.0,0.0
1582915049474,3349762.0,3219074.0,0.0
1582915049522,3324535.0,3202521.0,0.0
1582915049566,3315039.0,3196548.0,0.0
1582915049620,3257996.0,3201666.0,0.0
1582915049667,3250925.0,3199853.0,0.0
1582915049718,3243471.0,3192740.0,0.0
1582915049766,3236158.0,3191464.0,0.0
1582915049817,3237900.0,3193587.0,0.0
1582915049863,3239468.0,3196674.0,0.0
1582915049908,3241059.0,3198904.0,0.0
1582915049962,3235370.0,3190081.0,0.0
1582915050005,3209435.0,3165155.0,0.0
1582915050059,3192909.0,3153219.0,0.0
1582915050107,3188061.0,3153519.0,0.0
1582915050157,3191379.0,3158160.0,0.0
1582915050205,3189353.0,3158991.0,0.0
1582915050256,3187779.0,3152103.0,0.0
1582915050303,3186856.0,3154232.0,0.0
1582915050351,3189290.0,3155801.0,0.0
1582915050400,3194516.0,3161766.0,0.0
1582915050449,3201050.0,3165299.0,0.0
1582915050499,3198409.0,3159460.0,0.0
1582915050548,3176051.0,3134711.0,0.0
1582915050596,3162441.0,3126129.0,0.0
1582915050645,3163119.0,3127732.0,0.0
1582915050692,3168069.0,3131826.0,0.0
1582915050742,3170497.0,3131365.0,0.0
1582915050788,3169416.0,3129518.0,0.0
1582915050839,3169227.0,3131800.0,0.0
1582915050882,3171655.0,3135508.0,0.0
1582915050937,3180842.0,3144350.0,0.0
1582915050985,3185342.0,3148596.0,0.0
1582915051036,3190979.0,3144955.0,0.0
1582915051083,3183136.0,3124989.0,0.0
1582915051131,3222318.0,3130558.0,0.0
1582915051182,3347236.0,3216213.0,0.0
1582915051231,3568780.0,3388828.0,0.0
1582915051279,3764805.0,3603657.0,0.0
1582915051328,3908595.0,3789200.0,0.0
1582915051376,4044970.0,3972837.0,0.0
1582915051425,4163575.0,4127727.0,0.0
1582915051473,4250420.0,4278790.0,0.0
1582915051522,4320331.0,4410650.0,0.0
1582915051568,4405853.0,4532343.0,0.0
1582915051620,4497080.0,4635446.0,0.0
1582915051669,4562694.0,4737080.0,0.0
1582915051713,4608355.0,4839889.0,0.0
1582915051766,4654323.0,4922790.0,0.0
1582915051812,4687595.0,4986481.0,0.0
1582915051864,4712049.0,5037521.0,0.0
1582915051910,4819547.0,5184432.0,0.0
1582915051961,4843503.0,5232770.0,0.0
1582915052009,4865515.0,5278236.0,0.0
1582915052060,4890638.0,5326122.0,0.0
1582915052109,4912203.0,5367584.0,0.0
1582915052158,4923759.0,5398668.0,0.0
1582915052205,4944408.0,5428654.0,0.0
1582915052252,4959847.0,5457714.0,0.0
1582915052297,4971893.0,5481539.0,0.0
1582915052347,4982139.0,5509534.0,0.0
1582915052397,4992343.0,5530361.0,0.0
1582915052444,5007282.0,5555147.0,0.0
1582915052495,5014605.0,5574946.0,0.0
1582915052543,5024633.0,5593388.0,0.0
1582915052597,5031281.0,5614136.0,0.0
1582915052645,5042348.0,5633980.0,0.0
1582915052691,5049569.0,5647514.0,0.0
1582915052742,5063163.0,5659127.0,0.0
1582915052790,5065610.0,5643637.0,0.0
1582915052840,5046572.0,5617765.0,0.0
1582915052887,5015188.0,5573725.0,0.0
1582915052939,4984781.0,5482250.0,0.0
1582915052985,4952189.0,5404639.0,0.0
1582915053037,4919838.0,5350137.0,0.0
1582915053084,4881235.0,5289238.0,0.0
1582915053133,4846543.0,5240108.0,0.0
1582915053181,4813482.0,5197809.0,0.0
1582915053226,4776419.0,5151201.0,0.0
1582915053279,4745669.0,5115097.0,0.0
1582915053328,4721743.0,5072491.0,0.0
1582915053378,4690161.0,5008008.0,0.0
1582915053425,4644951.0,4942234.0,0.0
1582915053469,4613910.0,4895207.0,0.0
1582915053522,4590297.0,4861094.0,0.0
1582915053573,4560213.0,4821203.0,0.0
1582915053620,4524791.0,4769326.0,0.0
1582915053669,4495872.0,4725510.0,0.0
1582915053719,4483701.0,4698396.0,0.0
1582915053767,4479934.0,4679547.0,0.0
1582915053816,4478573.0,4671733.0,0.0
1582915053864,4476554.0,4656672.0,0.0
1582915053911,4474453.0,4640367.0,0.0
1582915053962,4467868.0,4612315.0,0.0
1582915054011,4438731.0,4554378.0,0.0
1582915054060,4408573.0,4507713.0,0.0
1582915054109,4389579.0,4482927.0,0.0
1582915054158,4380249.0,4462169.0,0.0
1582915054206,4386364.0,4448113.0,0.0
1582915054252,4377522.0,4420715.0,0.0
1582915054304,4370813.0,4403224.0,0.0
1582915054351,4369387.0,4390255.0,0.0
1582915054401,4374609.0,4381379.0,0.0
1582915054450,4368347.0,4375058.0,0.0
1582915054500,4376868.0,4373871.0,0.0
1582915054548,4380363.0,4372242.0,0.0
1582915054594,4385231.0,4363660.0,0.0
1582915054645,4365019.0,4322084.0,0.0
1582915054692,4347918.0,4296248.0,0.0
1582915054742,4338003.0,4285742.0,0.0
1582915054792,4329723.0,4275453.0,0.0
1582915054840,4321089.0,4265142.0,0.0
1582915054889,4303934.0,4245863.0,0.0
1582915054938,4297673.0,4238852.0,0.0
1582915054986,4289028.0,4226551.0,0.0
1582915055035,4281632.0,4222039.0,0.0
1582915055083,4274037.0,4216803.0,0.0
1582915055135,4270917.0,4211104.0,0.0
1582915055182,4260567.0,4203156.0,0.0
1582915055231,4245067.0,4167074.0,0.0
1582915055281,4212039.0,4123566.0,0.0
1582915055329,4190246.0,4106276.0,0.0
1582915055373,4176253.0,4095116.0,0.0
1582915055426,4168192.0,4088569.0,0.0
1582915055473,4153701.0,4071891.0,0.0
1582915055523,4139024.0,4060686.0,0.0
1582915055575,4125531.0,4050543.0,0.0
1582915055622,4124251.0,4052874.0,0.0
1582915055670,4118936.0,4042370.0,0.0
1582915055715,4099961.0,4025183.0,0.0
1582915055768,4086907.0,4019167.0,0.0
1582915055813,4084390.0,4011784.0,0.0
1582915055865,4062315.0,3980316.0,0.0
1582915055914,4037286.0,3957599.0,0.0
1582915055963,4028860.0,3952546.0,0.0
1582915056013,4018417.0,3951065.0,0.0
1582915056061,4012133.0,3946010.0,0.0
1582915056109,4001928.0,3934114.0,0.0
1582915056158,3989341.0,3926855.0,0.0
1582915056207,3980749.0,3923882.0,0.0
1582915056254,3981622.0,3925532.0,0.0
1582915056305,3979645.0,3925950.0,0.0
1582915056354,3975797.0,3923915.0,0.0
1582915056403,3973414.0,3927352.0,0.0
1582915056451,3954285.0,3898532.0,0.0
1582915056496,3926489.0,3862710.0,0.0
1582915056549,3905257.0,3849222.0,0.0
1582915056595,3899859.0,3845885.0,0.0
1582915056646,3891724.0,3845150.0,0.0
1582915056693,3883255.0,3834012.0,0.0
1582915056744,3873030.0,3825737.0,0.0
1582915056793,3865240.0,3820659.0,0.0
1582915056836,3861983.0,3824130.0,0.0
1582915056890,3856251.0,3825871.0,0.0
1582915056937,3853797.0,3826007.0,0.0
1582915056987,3852600.0,3828664.0,0.0
1582915057040,3834636.0,3798576.0,0.0
1582915057085,3791943.0,3758142.0,0.0
1582915057135,3771595.0,3738672.0,0.0
1582915057183,3753276.0,3730180.0,0.0
1582915057232,3741990.0,3721484.0,0.0
1582915057277,3732408.0,3712530.0,0.0
1582915057329,3716931.0,3704693.0,0.0
1582915057377,3706955.0,3699673.0,0.0
1582915057427,3703645.0,3697954.0,0.0
1582915057480,3700276.0,3702318.0,0.0
1582915057524,3696946.0,3703076.0,0.0
1582915057575,3700183.0,3706786.0,0.0
1582915057616,3692848.0,3698180.0,0.0
1582915057671,3658146.0,3658754.0,0.0
1582915057715,3631880.0,3634295.0,0.0
1582915057769,3613186.0,3620579.0,0.0
1582915057819,3601003.0,3542651.0,0.0
1582915057865,3591954.0,3537844.0,0.0
1582915057916,3581218.0,3531115.0,0.0
1582915057963,3569962.0,3523783.0,0.0
1582915058012,3566614.0,3524035.0,0.0
1582915058056,3559830.0,3528003.0,0.0
1582915058111,3559279.0,3529715.0,0.0
1582915058155,3557928.0,3534992.0,0.0
1582915058207,3557095.0,3539638.0,0.0
1582915058259,3559996.0,3542164.0,0.0
1582915058298,3536467.0,3510991.0,0.0
1582915058349,3504333.0,3487199.0,0.0
1582915058399,3492349.0,3481829.0,0.0
1582915058449,3488449.0,3483381.0,0.0
1582915058498,3482114.0,3486652.0,0.0
1582915058544,3473292.0,3483020.0,0.0
1582915058601,3465293.0,3480135.0,0.0
1582915058646,3462389.0,3482441.0,0.0
1582915058697,3463576.0,3488331.0,0.0
1582915058744,3465593.0,3496687.0,0.0
1582915058794,3469661.0,3502642.0,0.0
1582915058840,3476018.0,3506232.0,0.0
1582915058891,3477682.0,3516728.0,0.0
1582915058937,3468974.0,3503918.0,0.0
1582915058988,3432815.0,3467233.0,0.0
1582915059042,3411490.0,3453021.0,0.0
1582915059085,3402118.0,3451125.0,0.0
1582915059135,3399860.0,3449951.0,0.0
1582915059184,3393255.0,3449364.0,0.0
1582915059227,3389927.0,3446267.0,0.0
1582915059278,3381239.0,3444270.0,0.0
1582915059327,3385213.0,3448508.0,0.0
1582915059375,3387877.0,3454665.0,0.0
1582915059424,3393672.0,3463021.0,0.0
1582915059477,3395293.0,3467593.0,0.0
1582915059524,3403335.0,3478280.0,0.0
1582915059576,3410813.0,3486132.0,0.0
1582915059621,3402741.0,3473936.0,0.0
1582915059672,3371056.0,3439599.0,0.0
1582915059718,3351675.0,3430781.0,0.0
1582915059769,3344310.0,3426562.0,0.0
1582915059821,3305025.0,3429506.0,0.0
1582915059866,3279223.0,3429640.0,0.0
1582915059916,3273411.0,3429841.0,0.0
1582915059964,3274810.0,3430044.0,0.0
1582915060014,3280944.0,3438240.0,0.0
1582915060061,3286359.0,3441544.0,0.0
1582915060111,3294888.0,3452174.0,0.0
1582915060158,3304756.0,3461627.0,0.0
1582915060209,3313239.0,3469949.0,0.0
1582915060258,3323794.0,3481309.0,0.0
1582915060306,3333944.0,3490889.0,0.0
1582915060356,3324336.0,3480454.0,0.0
1582915060402,3297871.0,3453155.0,0.0
1582915060456,3282765.0,3443608.0,0.0
1582915060499,3278848.0,3442048.0,0.0
1582915060550,3279207.0,3447669.0,0.0
1582915060599,3278205.0,3447082.0,0.0
1582915060647,3278205.0,3446217.0,0.0
1582915060698,3277555.0,3446192.0,0.0
1582915060745,3285808.0,3454766.0,0.0
1582915060795,3296335.0,3462292.0,0.0
1582915060837,3306873.0,3468726.0,0.0
1582915060892,3317046.0,3477443.0,0.0
1582915060940,3324458.0,3482886.0,0.0
1582915060988,3338410.0,3494028.0,0.0
1582915061038,3351803.0,3502894.0,0.0
1582915061087,3354626.0,3504438.0,0.0
1582915061135,3327396.0,3480445.0,0.0
1582915061183,3311164.0,3470370.0,0.0
1582915061234,3309604.0,3469397.0,0.0
1582915061280,3308862.0,3473397.0,0.0
1582915061331,3302026.0,3463399.0,0.0
1582915061379,3289748.0,3457678.0,0.0
1582915061428,3271964.0,3446050.0,0.0
1582915061478,3270229.0,3444675.0,0.0
1582915061526,3276800.0,3454539.0,0.0
1582915061577,3326157.0,3470102.0,0.0
1582915061620,3425042.0,3510152.0,0.0
1582915061672,3530284.0,3569093.0,0.0
1582915061719,3622997.0,3616172.0,0.0
1582915061769,3664355.0,3617859.0,0.0
1582915061819,3675704.0,3610209.0,0.0
1582915061867,3650257.0,3592852.0,0.0
1582915061917,3640643.0,3590511.0,0.0
1582915061963,3638050.0,3597565.0,0.0
1582915062015,3641829.0,3609906.0,0.0
1582915062062,3657240.0,3620049.0,0.0
1582915062112,3650746.0,3614142.0,0.0
1582915062160,3643879.0,3617046.0,0.0
1582915062212,3634647.0,3614805.0,0.0
1582915062254,3624756.0,3613330.0,0.0
1582915062300,3623915.0,3624387.0,0.0
1582915062350,3644734.0,3646214.0,0.0
1582915062400,3664010.0,3658010.0,0.0
1582915062449,3654832.0,3658244.0,0.0
1582915062498,3623761.0,3627473.0,0.0
1582915062547,3548962.0,3570696.0,0.0
1582915062600,3489852.0,3526836.0,0.0
1582915062648,3451568.0,3502023.0,0.0
1582915062697,3427330.0,3485655.0,0.0
1582915062744,3403196.0,3471394.0,0.0
1582915062796,3373588.0,3449085.0,0.0
1582915062841,3351728.0,3429640.0,0.0
1582915062893,3338288.0,3420891.0,0.0
1582915062940,3324917.0,3412116.0,0.0
1582915062983,3316780.0,3407250.0,0.0
1582915063033,3310959.0,3396973.0,0.0
1582915063082,3304771.0,3393324.0,0.0
1582915063132,3299807.0,3386008.0,0.0
1582915063179,3294421.0,3381101.0,0.0
1582915063233,3267108.0,3350095.0,0.0
1582915063280,3235226.0,3319901.0,0.0
1582915063331,3219968.0,3305667.0,0.0
1582915063380,3211278.0,3295321.0,0.0
1582915063429,3208165.0,3287604.0,0.0
1582915063478,3194130.0,3277679.0,0.0
1582915063525,3187543.0,3267344.0,0.0
1582915063577,3183573.0,3263116.0,0.0
1582915063621,3184247.0,3261145.0,0.0
1582915063673,3184162.0,3258493.0,0.0
1582915063721,3186488.0,3258737.0,0.0
1582915063770,3187429.0,3254365.0,0.0
1582915063819,3191566.0,3255625.0,0.0
1582915063868,3174755.0,3231557.0,0.0
1582915063917,3148724.0,3203167.0,0.0
1582915063959,3134766.0,3190676.0,0.0
1582915064016,3125296.0,3185458.0,0.0
1582915064061,3124599.0,3182630.0,0.0
1582915064112,3118894.0,3175139.0,0.0
1582915064160,3114587.0,3167530.0,0.0
1582915064209,3116767.0,3167388.0,0.0
1582915064258,3117464.0,3169509.0,0.0
1582915064304,3119949.0,3171833.0,0.0
1582915064352,3126160.0,3174627.0,0.0
1582915064399,3130628.0,3178319.0,0.0
1582915064451,3134811.0,3179904.0,0.0
1582915064502,3125197.0,3160592.0,0.0
1582915064551,3099589.0,3135693.0,0.0
1582915064601,3087457.0,3123671.0,0.0
1582915064649,3083564.0,3121070.0,0.0
1582915064698,3082845.0,3119150.0,0.0
1582915064741,3080023.0,3116625.0,0.0
1582915064795,3076022.0,3111070.0,0.0
1582915064842,3079165.0,3109327.0,0.0
1582915064888,3084259.0,3114477.0,0.0
1582915064939,3090364.0,3118151.0,0.0
1582915064986,3094952.0,3124024.0,0.0
1582915065036,3102112.0,3127665.0,0.0
1582915065086,3112445.0,3133604.0,0.0
1582915065137,3106939.0,3122917.0,0.0
1582915065182,3082095.0,3101785.0,0.0
1582915065237,3071280.0,3090324.0,0.0
1582915065282,3068984.0,3092715.0,0.0
1582915065331,3075594.0,3099603.0,0.0
1582915065380,3073627.0,3097153.0,0.0
1582915065430,3070340.0,3097262.0,0.0
1582915065479,3073284.0,3101104.0,0.0
1582915065522,3079434.0,3106852.0,0.0
1582915065575,3086218.0,3112043.0,0.0
1582915065624,3093989.0,3118941.0,0.0
1582915065674,3102541.0,3126582.0,0.0
1582915065722,3108400.0,3129392.0,0.0
1582915065771,3097921.0,3117882.0,0.0
1582915065820,3087756.0,3106171.0,0.0
1582915065866,3087175.0,3103008.0,0.0
1582915065919,3093569.0,3110727.0,0.0
1582915065963,3103000.0,3116029.0,0.0
1582915066014,3115981.0,3120550.0,0.0
1582915066062,3127881.0,3127003.0,0.0
1582915066112,3139921.0,3134746.0,0.0
1582915066161,3152841.0,3143554.0,0.0
1582915066211,3164826.0,3154753.0,0.0
1582915066260,3174180.0,3163613.0,0.0
1582915066302,3180582.0,3171809.0,0.0
1582915066357,3165316.0,3159476.0,0.0
1582915066404,3139898.0,3142513.0,0.0
1582915066454,3127330.0,3138931.0,0.0
1582915066502,3129051.0,3146674.0,0.0
1582915066552,3134949.0,3154501.0,0.0
1582915066601,3135707.0,3153822.0,0.0
1582915066645,3134138.0,3151246.0,0.0
1582915066698,3131690.0,3150736.0,0.0
1582915066747,3137458.0,3159125.0,0.0
1582915066796,3145435.0,3162061.0,0.0
1582915066843,3154346.0,3169233.0,0.0
1582915066893,3157430.0,3168780.0,0.0
1582915066942,3130237.0,3147999.0,0.0
1582915066992,3098701.0,3132153.0,0.0
1582915067039,3083786.0,3125885.0,0.0
1582915067083,3078263.0,3126483.0,0.0
1582915067137,3080527.0,3127405.0,0.0
1582915067184,3078454.0,3127858.0,0.0
1582915067236,3074178.0,3128110.0,0.0
1582915067282,3079647.0,3133312.0,0.0
1582915067333,3087565.0,3139577.0,0.0
1582915067381,3093422.0,3148050.0,0.0
1582915067427,3098609.0,3154846.0,0.0
1582915067478,3106381.0,3161506.0,0.0
1582915067525,3082563.0,3143058.0,0.0
1582915067577,3053145.0,3129033.0,0.0
1582915067625,3044530.0,3126700.0,0.0
1582915067674,3051759.0,3137405.0,0.0
1582915067722,3058933.0,3143629.0,0.0
1582915067772,3064641.0,3146162.0,0.0
1582915067821,3071416.0,3154334.0,0.0
1582915067867,3072060.0,3157178.0,0.0
1582915067918,3082156.0,3163420.0,0.0
1582915067965,3097157.0,3173638.0,0.0
1582915068015,3105905.0,3179276.0,0.0
1582915068064,3119804.0,3187848.0,0.0
1582915068115,3109540.0,3174450.0,0.0
1582915068162,3091571.0,3163377.0,0.0
1582915068208,3090724.0,3165005.0,0.0
1582915068260,3100086.0,3175289.0,0.0
1582915068307,3114487.0,3182346.0,0.0
1582915068351,3118291.0,3182496.0,0.0
1582915068402,3114587.0,3180609.0,0.0
1582915068452,3118994.0,3187126.0,0.0
1582915068499,3129189.0,3196330.0,0.0
1582915068549,3140043.0,3204065.0,0.0
1582915068601,3149452.0,3211003.0,0.0
1582915068649,3158302.0,3216406.0,0.0
1582915068698,3144311.0,3203813.0,0.0
1582915068746,3110105.0,3180810.0,0.0
1582915068796,3092835.0,3174812.0,0.0
1582915068843,3087961.0,3174316.0,0.0
1582915068890,3092352.0,3175432.0,0.0
1582915068942,3099763.0,3174525.0,0.0
1582915068985,3097768.0,3171590.0,0.0
1582915069041,3101523.0,3177874.0,0.0
1582915069089,3108071.0,3183939.0,0.0
1582915069138,3112362.0,3192161.0,0.0
1582915069185,3121877.0,3204014.0,0.0
1582915069236,3136938.0,3213880.0,0.0
1582915069283,3147792.0,3217168.0,0.0
1582915069326,3124823.0,3199577.0,0.0
1582915069378,3102848.0,3186161.0,0.0
1582915069426,3100078.0,3188352.0,0.0
1582915069475,3110135.0,3193738.0,0.0
1582915069524,3122427.0,3201355.0,0.0
1582915069577,3133817.0,3205449.0,0.0
1582915069625,3140303.0,3209467.0,0.0
1582915069675,3150401.0,3216908.0,0.0
1582915069723,3159877.0,3220047.0,0.0
1582915069765,3163962.0,3225758.0,0.0
1582915069821,3168971.0,3232168.0,0.0
1582915069867,3171289.0,3231581.0,0.0
1582915069918,3140748.0,3204291.0,0.0
1582915069966,3117251.0,3193250.0,0.0
1582915070016,3118634.0,3198679.0,0.0
1582915070064,3138391.0,3210433.0,0.0
1582915070115,3157138.0,3217755.0,0.0
1582915070162,3172536.0,3223310.0,0.0
1582915070209,3177317.0,3223543.0,0.0
1582915070259,3163648.0,3217696.0,0.0
1582915070308,3155907.0,3220047.0,0.0
1582915070357,3158278.0,3224728.0,0.0
1582915070405,3165507.0,3232696.0,0.0
1582915070457,3169507.0,3233686.0,0.0
1582915070503,3148243.0,3219224.0,0.0
1582915070547,3139226.0,3216715.0,0.0
1582915070601,3141398.0,3218996.0,0.0
1582915070654,3151640.0,3224610.0,0.0
1582915070697,3155746.0,3224114.0,0.0
1582915070747,3161896.0,3223468.0,0.0
1582915070797,3167418.0,3224677.0,0.0
1582915070845,3178747.0,3230650.0,0.0
1582915070891,3184247.0,3233661.0,0.0
1582915070942,3194412.0,3238544.0,0.0
1582915070988,3192683.0,3233426.0,0.0
1582915071040,3159946.0,3203336.0,0.0
1582915071088,3148229.0,3196564.0,0.0
1582915071139,3173585.0,3212261.0,0.0
1582915071186,3218429.0,3237764.0,0.0
1582915071236,3276982.0,3269215.0,0.0
1582915071285,3325324.0,3296010.0,0.0
1582915071327,3336758.0,3308450.0,0.0
1582915071382,3319021.0,3304886.0,0.0
1582915071428,3321636.0,3310364.0,0.0
1582915071480,3339948.0,3328292.0,0.0
1582915071529,3352194.0,3345899.0,0.0
1582915071577,3416598.0,3404909.0,0.0
1582915071625,3530116.0,3465772.0,0.0
1582915071676,3604906.0,3517206.0,0.0
1582915071724,3627938.0,3548615.0,0.0
1582915071769,3636108.0,3570401.0,0.0
1582915071822,3646203.0,3584570.0,0.0
1582915071870,3697726.0,3607121.0,0.0
1582915071915,3790799.0,3657648.0,0.0
1582915071968,3802294.0,3671692.0,0.0
1582915072019,3796841.0,3687314.0,0.0
1582915072065,3780695.0,3675442.0,0.0
1582915072117,3767631.0,3673847.0,0.0
1582915072162,3756730.0,3673085.0,0.0
1582915072210,3755491.0,3658203.0,0.0
1582915072260,3754244.0,3654318.0,0.0
1582915072308,3821830.0,3691641.0,0.0
1582915072352,3865614.0,3755056.0,0.0
1582915072402,3898227.0,3770004.0,0.0
1582915072453,3901226.0,3766247.0,0.0
1582915072500,3874318.0,3766363.0,0.0
1582915072549,3864145.0,3773905.0,0.0
1582915072599,3858423.0,3782932.0,0.0
1582915072654,3852633.0,3784661.0,0.0
1582915072700,3873125.0,3803973.0,0.0
1582915072749,3902518.0,3827076.0,0.0
1582915072799,3901693.0,3813024.0,0.0
1582915072847,3883213.0,3766918.0,0.0
1582915072893,3850827.0,3724283.0,0.0
1582915072944,3822153.0,3713554.0,0.0
1582915072991,3817555.0,3723058.0,0.0
1582915073042,3821685.0,3735442.0,0.0
1582915073092,3837588.0,3753612.0,0.0
1582915073141,3860358.0,3787841.0,0.0
1582915073188,3862568.0,3790726.0,0.0
1582915073239,3897478.0,3794846.0,0.0
1582915073287,3904737.0,3811279.0,0.0
1582915073332,3905127.0,3837210.0,0.0
1582915073384,3901602.0,3856798.0,0.0
1582915073431,3882195.0,3835223.0,0.0
1582915073482,3863495.0,3826690.0,0.0
1582915073531,3890464.0,3844886.0,0.0
1582915073577,3897272.0,3843805.0,0.0
1582915073628,3905985.0,3831909.0,0.0
1582915073678,3884048.0,3796028.0,0.0
1582915073725,3866607.0,3792329.0,0.0
1582915073772,3854553.0,3793125.0,0.0
1582915073823,3856052.0,3808721.0,0.0
1582915073873,3866806.0,3843275.0,0.0
1582915073916,3890771.0,3869785.0,0.0
1582915073969,3865437.0,3836598.0,0.0
1582915074015,3842308.0,3787790.0,0.0
1582915074067,3818556.0,3775693.0,0.0
1582915074112,3813753.0,3792455.0,0.0
1582915074163,3806035.0,3797522.0,0.0
1582915074212,3790027.0,3793377.0,0.0
1582915074262,3794340.0,3807034.0,0.0
1582915074312,3831889.0,3830172.0,0.0
1582915074361,3832133.0,3808410.0,0.0
1582915074409,3834597.0,3786581.0,0.0
1582915074456,3816177.0,3763612.0,0.0
1582915074505,3812827.0,3771237.0,0.0
1582915074554,3814708.0,3785868.0,0.0
1582915074603,3794653.0,3760065.0,0.0
1582915074653,3775195.0,3754997.0,0.0
1582915074695,3798393.0,3774417.0,0.0
1582915074751,3783846.0,3771255.0,0.0
1582915074798,3798462.0,3770248.0,0.0
1582915074848,3789612.0,3794249.0,0.0
1582915074893,3799489.0,3822571.0,0.0
1582915074944,3799984.0,3834475.0,0.0
1582915074993,3797898.0,3840146.0,0.0
1582915075041,3836684.0,3880943.0,0.0
1582915075092,3870248.0,3890515.0,0.0
1582915075135,3888674.0,3866581.0,0.0
1582915075189,3863830.0,3801656.0,0.0
1582915075235,3830337.0,3758764.0,0.0
1582915075286,3815773.0,3761019.0,0.0
1582915075338,3821049.0,3788235.0,0.0
1582915075384,3828784.0,3804812.0,0.0
1582915075434,3854583.0,3847352.0,0.0
1582915075480,3897677.0,3878560.0,0.0
1582915075530,3898365.0,3861589.0,0.0
1582915075578,3905426.0,3852277.0,0.0
1582915075628,3888223.0,3882477.0,0.0
1582915075680,3893638.0,3909617.0,0.0
1582915075719,3885852.0,3892687.0,0.0
1582915075776,3854262.0,3850406.0,0.0
1582915075818,3859242.0,3852881.0,0.0
1582915075873,3871786.0,3851631.0,0.0
1582915075916,3929534.0,3873410.0,0.0
1582915075969,3979782.0,3886244.0,0.0
1582915076013,3993701.0,3900606.0,0.0
1582915076067,4007042.0,3948517.0,0.0
1582915076120,4042059.0,4021453.0,0.0
1582915076164,4084693.0,4078835.0,0.0
1582915076214,4126090.0,4093466.0,0.0
1582915076261,4144195.0,4085780.0,0.0
1582915076310,4118723.0,4022651.0,0.0
1582915076354,4087745.0,3974859.0,0.0
1582915076408,4067567.0,3967175.0,0.0
1582915076460,4042817.0,3961906.0,0.0
1582915076506,4039848.0,3982242.0,0.0
1582915076556,4030356.0,3981352.0,0.0
1582915076602,4016335.0,3975942.0,0.0
1582915076653,4041126.0,4014549.0,0.0
1582915076702,4066588.0,4037089.0,0.0
1582915076750,4085924.0,4063339.0,0.0
1582915076795,4118656.0,4087946.0,0.0
1582915076847,4144507.0,4078943.0,0.0
1582915076898,4157114.0,4064229.0,0.0
1582915076945,4176749.0,4083624.0,0.0
1582915076996,4189882.0,4117207.0,0.0
1582915077043,4241030.0,4205862.0,0.0
1582915077092,4356100.0,4329242.0,0.0
1582915077135,4361685.0,4400743.0,0.0
1582915077189,4336290.0,4364099.0,0.0
1582915077239,4329459.0,4348982.0,0.0
1582915077286,4305058.0,4357152.0,0.0
1582915077335,4301677.0,4378579.0,0.0
1582915077379,4288690.0,4360894.0,0.0
1582915077429,4282991.0,4344921.0,0.0
1582915077478,4331617.0,4426674.0,0.0
1582915077527,4383827.0,4442605.0,0.0
1582915077576,4420429.0,4487336.0,0.0
1582915077625,4454749.0,4508233.0,0.0
1582915077677,4475767.0,4518048.0,0.0
1582915077725,4482131.0,4526287.0,0.0
1582915077776,4501506.0,4573761.0,0.0
1582915077823,4525370.0,4620990.0,0.0
1582915077866,4645810.0,4772482.0,0.0
1582915077916,4758700.0,4879729.0,0.0
1582915077966,4690643.0,4821566.0,0.0
1582915078014,4676561.0,4748708.0,0.0
1582915078063,4643813.0,4729606.0,0.0
1582915078115,4627978.0,4746534.0,0.0
1582915078164,4610255.0,4742072.0,0.0
1582915078214,4595691.0,4722442.0,0.0
1582915078261,4608633.0,4735654.0,0.0
1582915078311,4659055.0,4855921.0,0.0
1582915078360,4720971.0,4868782.0,0.0
1582915078408,4733135.0,4913479.0,0.0
1582915078458,4784847.0,4916104.0,0.0
1582915078505,4785558.0,4903237.0,0.0
1582915078555,4793238.0,4919996.0,0.0
1582915078604,4804041.0,4940206.0,0.0
1582915078652,4839870.0,4999224.0,0.0
1582915078695,4809112.0,5125002.0,0.0
1582915078750,4748759.0,5224549.0,0.0
1582915078799,4762792.0,5210020.0,0.0
1582915078847,4840439.0,5246394.0,0.0
1582915078897,4853384.0,5256254.0,0.0
1582915078945,4857175.0,5262451.0,0.0
1582915078995,4848111.0,5258233.0,0.0
1582915079042,4864635.0,5240527.0,0.0
1582915079093,4896944.0,5291465.0,0.0
1582915079138,4972633.0,5320242.0,0.0
1582915079189,5021035.0,5366024.0,0.0
1582915079239,5029997.0,5346915.0,0.0
1582915079287,5015143.0,5335405.0,0.0
1582915079335,5009942.0,5343546.0,0.0
1582915079384,5023945.0,5378021.0,0.0
1582915079433,5047042.0,5415222.0,0.0
1582915079480,5120579.0,5534411.0,0.0
1582915079531,5037029.0,5593455.0,0.0
1582915079579,5064175.0,5534319.0,0.0
1582915079629,5027137.0,5440629.0,0.0
1582915079677,4980435.0,5393897.0,0.0
1582915079726,4960520.0,5379604.0,0.0
1582915079776,4939704.0,5372357.0,0.0
1582915079822,4925691.0,5345139.0,0.0
1582915079873,4936663.0,5364260.0,0.0
1582915079916,4968431.0,5428518.0,0.0
1582915079963,5009661.0,5443252.0,0.0
1582915080012,5024426.0,5449018.0,0.0
1582915080061,5029906.0,5417925.0,0.0
1582915080116,5025196.0,5407183.0,0.0
1582915080165,5022045.0,5422504.0,0.0
1582915080214,5034057.0,5442923.0,0.0
1582915080258,5081709.0,5515662.0,0.0
1582915080313,5185964.0,5666885.0,0.0
1582915080361,5180974.0,5711920.0,0.0
1582915080409,5097884.0,5602570.0,0.0
1582915080459,5056073.0,5548454.0,0.0
1582915080507,5028006.0,5533007.0,0.0
1582915080557,5011122.0,5535971.0,0.0
1582915080603,5004320.0,5512791.0,0.0
1582915080655,5005911.0,5502976.0,0.0
1582915080698,5039880.0,5600759.0,0.0
1582915080752,5104715.0,5608165.0,0.0
1582915080800,5109536.0,5612247.0,0.0
1582915080849,5117998.0,5610664.0,0.0
1582915080899,5108226.0,5589611.0,0.0
1582915080948,5122960.0,5620299.0,0.0
1582915080997,5126430.0,5651856.0,0.0
1582915081043,5165570.0,5685178.0,0.0
1582915081095,5224074.0,5741397.0,0.0
1582915081140,5075628.0,5660495.0,0.0
1582915081192,5129421.0,5703281.0,0.0
1582915081239,5126430.0,5683923.0,0.0
1582915081289,5092303.0,5675908.0,0.0
1582915081338,5087400.0,5675670.0,0.0
1582915081387,5078788.0,5670241.0,0.0
1582915081435,5075147.0,5640663.0,0.0
1582915081482,5091982.0,5657624.0,0.0
1582915081533,5147566.0,5693466.0,0.0
1582915081581,5133982.0,5653077.0,0.0
1582915081630,5141373.0,5605859.0,0.0
1582915081679,5115997.0,5559919.0,0.0
1582915081722,5106005.0,5549720.0,0.0
1582915081778,5123080.0,5579865.0,0.0
1582915081826,5141304.0,5594315.0,0.0
1582915081877,5270265.0,5749075.0,0.0
1582915081918,5262104.0,5939352.0,0.0
1582915081972,5284809.0,5945413.0,0.0
1582915082020,5246860.0,5833539.0,0.0
1582915082069,5165659.0,5768783.0,0.0
1582915082118,5139923.0,5736309.0,0.0
1582915082167,5121089.0,5703395.0,0.0
1582915082216,5105416.0,5654560.0,0.0
1582915082261,5103055.0,5642619.0,0.0
1582915082312,5141873.0,5739985.0,0.0
1582915082364,5140384.0,5724629.0,0.0
1582915082411,5159639.0,5711422.0,0.0
1582915082460,5156538.0,5680814.0,0.0
1582915082509,5165590.0,5699707.0,0.0
1582915082558,5178754.0,5732319.0,0.0
1582915082606,5213791.0,5741137.0,0.0
1582915082656,5312755.0,5847334.0,0.0
1582915082700,5318938.0,6042268.0,0.0
1582915082755,5318808.0,5983855.0,0.0
1582915082801,5260003.0,5886287.0,0.0
1582915082852,5213972.0,5851505.0,0.0
1582915082901,5186364.0,5853519.0,0.0
1582915082945,5167550.0,5835089.0,0.0
1582915082994,5147906.0,5810415.0,0.0
1582915083043,5162650.0,5830645.0,0.0
1582915083093,5189256.0,5867257.0,0.0
1582915083139,5225795.0,5833189.0,0.0
1582915083188,5232276.0,5816295.0,0.0
1582915083241,5237717.0,5791951.0,0.0
1582915083291,5226195.0,5812622.0,0.0
1582915083340,5234777.0,5867359.0,0.0
1582915083389,5271805.0,5910597.0,0.0
1582915083438,5387735.0,6028734.0,0.0
1582915083479,5478867.0,6171046.0,0.0
1582915083536,5376861.0,6087417.0,0.0
1582915083585,5287379.0,5948487.0,0.0
1582915083632,5245779.0,5885167.0,0.0
1582915083680,5222773.0,5857566.0,0.0
1582915083730,5203819.0,5837192.0,0.0
1582915083780,5174011.0,5804434.0,0.0
1582915083824,5163499.0,5789689.0,0.0
1582915083876,5181913.0,5852355.0,0.0
1582915083922,5178384.0,5828248.0,0.0
1582915083976,5178863.0,5792676.0,0.0
1582915084022,5175661.0,5763267.0,0.0
1582915084072,5166411.0,5733426.0,0.0
1582915084120,5166281.0,5707363.0,0.0
1582915084169,5208960.0,5756233.0,0.0
1582915084219,5276688.0,5930091.0,0.0
1582915084263,5286290.0,6020796.0,0.0
1582915084317,5332971.0,6013809.0,0.0
1582915084365,5242158.0,5893219.0,0.0
1582915084413,5224943.0,5854140.0,0.0
1582915084462,5208941.0,5860325.0,0.0
1582915084512,5194546.0,5860270.0,0.0
1582915084561,5175363.0,5823963.0,0.0
1582915084607,5160669.0,5783923.0,0.0
1582915084658,5187104.0,5851302.0,0.0
1582915084702,5220514.0,5808778.0,0.0
1582915084755,5203689.0,5807465.0,0.0
1582915084803,5222133.0,5792629.0,0.0
1582915084854,5201718.0,5780961.0,0.0
1582915084903,5183473.0,5781097.0,0.0
1582915084951,5195337.0,5821486.0,0.0
1582915085000,5235996.0,5875646.0,0.0
1582915085042,5309415.0,5941432.0,0.0
1582915085094,5465614.0,6067878.0,0.0
1582915085143,5330590.0,5940992.0,0.0
1582915085194,5280337.0,5891827.0,0.0
1582915085242,5238257.0,5865211.0,0.0
1582915085293,5218332.0,5866873.0,0.0
1582915085341,5197488.0,5849291.0,0.0
1582915085391,5178973.0,5823837.0,0.0
1582915085439,5203460.0,5896588.0,0.0
1582915085482,5222633.0,5885913.0,0.0
1582915085537,5221904.0,5874946.0,0.0
1582915085586,5229966.0,5813491.0,0.0
1582915085635,5204579.0,5788084.0,0.0
1582915085683,5205920.0,5801541.0,0.0
1582915085732,5204419.0,5837826.0,0.0
1582915085780,5214191.0,5875139.0,0.0
1582915085825,5272387.0,5970661.0,0.0
1582915085877,5348935.0,6050828.0,0.0
1582915085924,5262142.0,5945413.0,0.0
1582915085975,5231616.0,5928328.0,0.0
1582915086023,5200958.0,5915889.0,0.0
1582915086073,5183234.0,5889170.0,0.0
1582915086121,5153816.0,5847515.0,0.0
1582915086171,5122629.0,5813853.0,0.0
1582915086218,5132483.0,5883517.0,0.0
1582915086266,5143054.0,5852535.0,0.0
1582915086318,5133992.0,5861286.0,0.0
1582915086365,5132151.0,5834794.0,0.0
1582915086416,5122358.0,5827807.0,0.0
1582915086462,5123330.0,5828825.0,0.0
1582915086512,5115918.0,5806594.0,0.0
1582915086560,5114817.0,5818026.0,0.0
1582915086604,5127131.0,5859884.0,0.0
1582915086659,5186655.0,5889001.0,0.0
1582915086705,5100034.0,5843411.0,0.0
1582915086755,5063854.0,5823341.0,0.0
1582915086803,5032078.0,5820582.0,0.0
1582915086854,5017713.0,5833008.0,0.0
1582915086901,5005200.0,5824969.0,0.0
1582915086950,4992707.0,5808109.0,0.0
1582915086999,5013623.0,5850658.0,0.0
1582915087045,5000100.0,5787406.0,0.0
1582915087098,4991026.0,5796847.0,0.0
1582915087145,4975843.0,5775918.0,0.0
1582915087195,4970583.0,5779514.0,0.0
1582915087243,4970262.0,5798725.0,0.0
1582915087292,4971973.0,5816580.0,0.0
1582915087340,4985417.0,5845400.0,0.0
1582915087385,5029256.0,5872288.0,0.0
1582915087438,5021224.0,5851517.0,0.0
1582915087486,4960420.0,5800691.0,0.0
1582915087536,4903757.0,5790177.0,0.0
1582915087584,4878319.0,5790390.0,0.0
1582915087634,4864837.0,5791963.0,0.0
1582915087681,4849993.0,5791205.0,0.0
1582915087727,4836729.0,5786749.0,0.0
1582915087778,4868898.0,5828575.0,0.0
1582915087826,4854064.0,5786875.0,0.0
1582915087877,4867297.0,5767358.0,0.0
1582915087919,4879821.0,5744745.0,0.0
1582915087975,4842481.0,5718818.0,0.0
1582915088022,4824766.0,5703373.0,0.0
1582915088070,4820766.0,5714917.0,0.0
1582915088120,4886731.0,5777444.0,0.0
1582915088172,4917020.0,5828305.0,0.0
1582915088218,4913328.0,5821633.0,0.0
1582915088267,4890542.0,5798861.0,0.0
1582915088315,4867067.0,5795898.0,0.0
1582915088364,4852593.0,5814395.0,0.0
1582915088414,4841811.0,5827027.0,0.0
1582915088461,4829007.0,5813142.0,0.0
1582915088505,4848032.0,5814883.0,0.0
1582915088555,4905427.0,5857566.0,0.0
1582915088609,4967621.0,5886626.0,0.0
1582915088657,4983785.0,5910371.0,0.0
1582915088705,4996969.0,5937982.0,0.0
1582915088756,5022165.0,5957861.0,0.0
1582915088804,5058564.0,6007929.0,0.0
1582915088848,5085651.0,6040777.0,0.0
1582915088902,5129770.0,6054639.0,0.0
1582915088948,5147324.0,6071826.0,0.0
1582915088998,5130160.0,6059274.0,0.0
1582915089047,5107106.0,6028452.0,0.0
1582915089096,5084649.0,6035281.0,0.0
1582915089144,5074147.0,6034535.0,0.0
1582915089195,5065784.0,6043298.0,0.0
1582915089243,5053972.0,6027568.0,0.0
1582915089287,5053783.0,6024663.0,0.0
1582915089340,5080998.0,6029616.0,0.0
1582915089389,5091291.0,6015120.0,0.0
1582915089439,5093522.0,6011942.0,0.0
1582915089486,5093213.0,6009918.0,0.0
1582915089536,5089371.0,6005113.0,0.0
1582915089584,5095773.0,6005701.0,0.0
1582915089629,5095322.0,6005306.0,0.0
1582915089681,5149897.0,6053948.0,0.0
1582915089730,5255222.0,6190504.0,0.0
1582915089779,5260684.0,6177231.0,0.0
1582915089828,5192557.0,6115425.0,0.0
1582915089877,5127531.0,6067437.0,0.0
1582915089920,5093313.0,6033426.0,0.0
1582915089976,5094162.0,6059556.0,0.0
1582915090023,5087240.0,6055318.0,0.0
1582915090070,5077617.0,6046147.0,0.0
1582915090120,5099773.0,6088086.0,0.0
1582915090169,5083591.0,6043264.0,0.0
1582915090218,5090692.0,6034929.0,0.0
1582915090266,5099784.0,5986535.0,0.0
1582915090316,5099554.0,5961207.0,0.0
1582915090363,5101645.0,5968331.0,0.0
1582915090407,5113878.0,5988514.0,0.0
1582915090462,5148426.0,6038966.0,0.0
1582915090509,5139994.0,6031459.0,0.0
1582915090560,5075468.0,5979627.0,0.0
1582915090610,5062365.0,5946248.0,0.0
1582915090657,5043429.0,5957928.0,0.0
1582915090705,5039760.0,5968682.0,0.0
1582915090756,5029896.0,5952241.0,0.0
1582915090802,5012122.0,5919473.0,0.0
1582915090849,5008042.0,5914260.0,0.0
1582915090894,5030877.0,5964781.0,0.0
1582915090951,5025056.0,5925499.0,0.0
1582915090999,5027287.0,5899652.0,0.0
1582915091047,5033177.0,5885880.0,0.0
1582915091095,5042789.0,5892484.0,0.0
1582915091144,5043990.0,5882307.0,0.0
1582915091192,5033888.0,5833144.0,0.0
1582915091242,5014422.0,5825105.0,0.0
1582915091291,5012703.0,5808721.0,0.0
1582915091340,4986016.0,5782148.0,0.0
1582915091388,4972023.0,5745525.0,0.0
1582915091438,4963411.0,5753372.0,0.0
1582915091485,4963161.0,5781243.0,0.0
1582915091535,4961690.0,5787757.0,0.0
1582915091582,4953638.0,5792369.0,0.0
1582915091631,4986536.0,5833935.0,0.0
1582915091680,4996419.0,5793399.0,0.0
1582915091730,4994328.0,5760609.0,0.0
1582915091779,4990707.0,5695626.0,0.0
1582915091826,4983614.0,5673770.0,0.0
1582915091872,4975124.0,5666885.0,0.0
1582915091919,4966412.0,5656356.0,0.0
1582915091974,4965601.0,5642947.0,0.0
1582915092022,4995078.0,5680577.0,0.0
1582915092065,5004980.0,5636039.0,0.0
1582915092113,4979984.0,5587779.0,0.0
1582915092162,4951007.0,5540809.0,0.0
1582915092211,4928802.0,5522604.0,0.0
1582915092265,4920460.0,5523488.0,0.0
1582915092313,4920720.0,5520241.0,0.0
1582915092363,4913588.0,5534795.0,0.0
1582915092412,4943715.0,5575476.0,0.0
1582915092461,4927112.0,5551461.0,0.0
1582915092509,4931642.0,5524380.0,0.0
1582915092559,4912737.0,5411106.0,0.0
1582915092608,4904415.0,5341974.0,0.0
1582915092652,4881991.0,5289644.0,0.0
1582915092704,4864696.0,5260913.0,0.0
1582915092752,4855074.0,5257317.0,0.0
1582915092795,4862876.0,5277884.0,0.0
1582915092851,4837199.0,5249267.0,0.0
1582915092900,4827747.0,5229423.0,0.0
1582915092947,4821406.0,5229208.0,0.0
1582915092993,4815294.0,5228440.0,0.0
1582915093046,4807161.0,5183110.0,0.0
1582915093093,4784296.0,5139035.0,0.0
1582915093144,4776724.0,5154198.0,0.0
1582915093193,4800361.0,5186862.0,0.0
1582915093241,4805132.0,5183845.0,0.0
1582915093290,4809224.0,5174924.0,0.0
1582915093337,4823285.0,5160269.0,0.0
1582915093387,4844021.0,5188603.0,0.0
1582915093433,4864556.0,5223476.0,0.0
1582915093484,4900756.0,5246667.0,0.0
1582915093533,4976103.0,5329164.0,0.0
1582915093582,5053702.0,5392404.0,0.0
1582915093632,4955599.0,5303190.0,0.0
1582915093680,4915299.0,5257691.0,0.0
1582915093728,4881320.0,5239600.0,0.0
1582915093774,4867957.0,5246858.0,0.0
1582915093825,4855584.0,5236140.0,0.0
1582915093875,4835059.0,5234929.0,0.0
1582915093919,4860905.0,5289486.0,0.0
1582915093973,4884091.0,5270479.0,0.0
1582915094021,4880451.0,5241815.0,0.0
1582915094070,4892044.0,5226359.0,0.0
1582915094114,4900585.0,5218761.0,0.0
1582915094168,4897564.0,5236378.0,0.0
1582915094217,4908647.0,5285585.0,0.0
1582915094265,4986847.0,5359930.0,0.0
1582915094320,5123829.0,5543840.0,0.0
1582915094361,5092321.0,5533324.0,0.0
1582915094413,5039928.0,5431413.0,0.0
1582915094456,4995738.0,5372548.0,0.0
1582915094503,4965991.0,5350467.0,0.0
1582915094555,4943016.0,5329434.0,0.0
1582915094609,4920110.0,5319338.0,0.0
1582915094660,4915789.0,5326100.0,0.0
1582915094698,4942805.0,5353610.0,0.0
1582915094754,4979254.0,5376721.0,0.0
1582915094801,5001610.0,5382058.0,0.0
1582915094851,5006451.0,5372265.0,0.0
1582915094895,5021324.0,5345525.0,0.0
1582915094949,5025355.0,5354457.0,0.0
1582915094998,5031298.0,5382781.0,0.0
1582915095040,5100923.0,5496610.0,0.0
1582915095100,5162719.0,5587734.0,0.0
1582915095144,5058143.0,5497977.0,0.0
1582915095194,5026767.0,5450827.0,0.0
1582915095239,4999539.0,5431696.0,0.0
1582915095290,4980244.0,5430227.0,0.0
1582915095335,4975593.0,5408369.0,0.0
1582915095388,4946907.0,5352909.0,0.0
1582915095439,4952297.0,5364701.0,0.0
1582915095485,4979224.0,5403552.0,0.0
1582915095535,4975443.0,5412565.0,0.0
1582915095583,4988556.0,5406583.0,0.0
1582915095634,4998609.0,5392438.0,0.0
1582915095675,5008121.0,5396983.0,0.0
1582915095729,5019324.0,5425907.0,0.0
1582915095780,5023045.0,5418274.0,0.0
1582915095826,5081209.0,5483052.0,0.0
1582915095881,5173382.0,5592246.0,0.0
1582915095920,5069815.0,5524471.0,0.0
1582915095976,5055693.0,5488741.0,0.0
1582915096022,5030737.0,5481222.0,0.0
1582915096072,5017534.0,5478938.0,0.0
1582915096119,5013113.0,5487473.0,0.0
1582915096168,5017484.0,5490176.0,0.0
1582915096218,5069586.0,5567924.0,0.0
1582915096266,5110477.0,5595073.0,0.0
1582915096315,5139823.0,5597549.0,0.0
1582915096363,5160129.0,5613401.0,0.0
1582915096413,5149815.0,5622775.0,0.0
1582915096458,5168310.0,5648656.0,0.0
1582915096510,5170161.0,5713751.0,0.0
1582915096554,5191586.0,5758256.0,0.0
1582915096602,5331021.0,5886163.0,0.0
1582915096650,5386453.0,5954084.0,0.0
1582915096701,5243239.0,5804253.0,0.0
1582915096752,5203549.0,5695784.0,0.0
1582915096799,5169241.0,5646813.0,0.0
1582915096848,5148505.0,5627615.0,0.0
1582915096899,5131702.0,5607759.0,0.0
1582915096949,5115268.0,5595028.0,0.0
1582915096999,5158688.0,5659083.0,0.0
1582915097040,5184365.0,5693602.0,0.0
1582915097091,5201869.0,5755148.0,0.0
1582915097140,5206239.0,5721916.0,0.0
1582915097189,5214652.0,5669518.0,0.0
1582915097237,5216302.0,5651823.0,0.0
1582915097284,5208250.0,5662927.0,0.0
1582915097338,5209240.0,5708901.0,0.0
1582915097387,5237847.0,5808550.0,0.0
1582915097437,5303543.0,5825499.0,0.0
1582915097485,5213891.0,5755259.0,0.0
1582915097535,5209600.0,5723373.0,0.0
1582915097582,5187336.0,5723024.0,0.0
1582915097632,5175312.0,5713570.0,0.0
1582915097678,5165559.0,5664351.0,0.0
1582915097728,5148606.0,5614713.0,0.0
1582915097781,5169820.0,5687113.0,0.0
1582915097827,5166360.0,5664487.0,0.0
1582915097876,5171291.0,5671848.0,0.0
1582915097919,5178073.0,5648861.0,0.0
1582915097973,5177293.0,5644405.0,0.0
1582915098020,5174241.0,5657228.0,0.0
1582915098071,5170972.0,5626179.0,0.0
1582915098119,5161669.0,5563729.0,0.0
1582915098168,5146985.0,5571429.0,0.0
1582915098217,5132932.0,5536343.0,0.0
1582915098265,5091311.0,5508697.0,0.0
1582915098315,5062924.0,5492506.0,0.0
1582915098363,5048490.0,5493625.0,0.0
1582915098413,5040739.0,5501925.0,0.0
1582915098456,5028047.0,5498091.0,0.0
1582915098510,5033797.0,5504479.0,0.0
1582915098559,5060203.0,5549958.0,0.0
1582915098601,5046460.0,5479411.0,0.0
1582915098656,5038748.0,5462633.0,0.0
1582915098704,5029617.0,5446113.0,0.0
1582915098754,5029526.0,5437303.0,0.0
1582915098798,5033287.0,5455384.0,0.0
1582915098853,5040609.0,5473125.0,0.0
1582915098899,5056323.0,5481878.0,0.0
1582915098942,5079198.0,5545016.0,0.0
1582915098998,5076388.0,5497187.0,0.0
1582915099046,5026767.0,5426178.0,0.0
1582915099095,4978645.0,5388186.0,0.0
1582915099139,4939885.0,5374313.0,0.0
1582915099193,4923940.0,5377365.0,0.0
1582915099242,4915988.0,5372265.0,0.0
1582915099289,4901985.0,5375297.0,0.0
1582915099339,4936303.0,5425105.0,0.0
1582915099387,4923950.0,5390866.0,0.0
1582915099437,4938294.0,5390764.0,0.0
1582915099484,4932364.0,5317392.0,0.0
1582915099534,4926222.0,5294823.0,0.0
1582915099580,4918119.0,5298610.0,0.0
1582915099632,4918670.0,5327591.0,0.0
1582915099684,4953977.0,5411716.0,0.0
1582915099728,4999320.0,5468919.0,0.0
1582915099778,4965300.0,5435428.0,0.0
1582915099826,4951308.0,5407703.0,0.0
1582915099876,4921760.0,5393377.0,0.0
1582915099918,4896414.0,5379265.0,0.0
1582915099973,4887901.0,5358856.0,0.0
1582915100019,4857465.0,5323351.0,0.0
1582915100070,4881180.0,5349686.0,0.0
1582915100119,4904376.0,5405169.0,0.0
1582915100168,4892712.0,5405192.0,0.0
1582915100217,4901975.0,5390730.0,0.0
1582915100264,4909886.0,5389588.0,0.0
1582915100314,4929712.0,5399901.0,0.0
1582915100359,4914838.0,5363004.0,0.0
1582915100412,4871277.0,5277240.0,0.0
1582915100461,4889063.0,5283596.0,0.0
1582915100509,4904616.0,5325454.0,0.0
1582915100559,4865596.0,5277884.0,0.0
1582915100601,4824126.0,5263638.0,0.0
1582915100656,4800731.0,5259138.0,0.0
1582915100705,4801491.0,5278122.0,0.0
1582915100749,4790408.0,5274528.0,0.0
1582915100800,4774804.0,5252297.0,0.0
1582915100850,4783437.0,5257679.0,0.0
1582915100899,4735975.0,5177715.0,0.0
1582915100949,4709658.0,5142188.0,0.0
1582915100997,4685742.0,5109987.0,0.0
1582915101044,4696435.0,5109522.0,0.0
1582915101094,4704128.0,5123510.0,0.0
1582915101139,4717830.0,5148068.0,0.0
1582915101192,4747058.0,5181559.0,0.0
1582915101240,4800081.0,5263197.0,0.0
1582915101290,4839690.0,5306571.0,0.0
1582915101338,4813033.0,5236490.0,0.0
1582915101387,4786458.0,5217483.0,0.0
1582915101437,4755919.0,5210699.0,0.0
1582915101482,4735865.0,5217109.0,0.0
1582915101534,4730764.0,5229039.0,0.0
1582915101580,4719250.0,5234919.0,0.0
1582915101624,4763692.0,5327841.0,0.0
1582915101676,4782526.0,5327693.0,0.0
1582915101723,4793209.0,5321756.0,0.0
1582915101774,4799089.0,5281956.0,0.0
1582915101822,4784176.0,5259680.0,0.0
1582915101877,4773914.0,5266781.0,0.0
1582915101921,4790148.0,5287541.0,0.0
1582915101974,4785798.0,5316973.0,0.0
1582915102021,4798610.0,5364146.0,0.0
1582915102071,4843971.0,5402264.0,0.0
1582915102119,4803510.0,5366623.0,0.0
1582915102168,4791879.0,5336683.0,0.0
1582915102218,4758200.0,5315254.0,0.0
1582915102265,4738915.0,5312993.0,0.0
1582915102315,4733005.0,5305498.0,0.0
1582915102361,4718181.0,5295626.0,0.0
1582915102412,4749547.0,5347945.0,0.0
1582915102461,4815764.0,5383448.0,0.0
1582915102510,4827196.0,5397278.0,0.0
1582915102559,4846762.0,5400466.0,0.0
1582915102602,4841120.0,5384602.0,0.0
1582915102657,4835720.0,5362643.0,0.0
1582915102702,4828777.0,5354051.0,0.0
1582915102756,4824027.0,5363683.0,0.0
1582915102796,4862165.0,5405576.0,0.0
1582915102845,4913448.0,5474086.0,0.0
1582915102893,4880660.0,5414702.0,0.0
1582915102942,4842081.0,5421395.0,0.0
1582915102995,4827196.0,5426269.0,0.0
1582915103044,4816605.0,5431356.0,0.0
1582915103096,4807873.0,5406096.0,0.0
1582915103143,4783286.0,5380374.0,0.0
1582915103192,4809512.0,5425714.0,0.0
1582915103241,4827658.0,5408449.0,0.0
1582915103290,4826567.0,5428530.0,0.0
1582915103339,4838211.0,5422537.0,0.0
1582915103386,4850842.0,5425273.0,0.0
1582915103436,4862766.0,5431255.0,0.0
1582915103485,4873069.0,5444201.0,0.0
1582915103536,4870887.0,5431458.0,0.0
1582915103582,4894313.0,5458358.0,0.0
1582915103632,4967511.0,5566839.0,0.0
1582915103680,4918430.0,5511287.0,0.0
1582915103723,4882190.0,5486004.0,0.0
1582915103778,4837290.0,5475082.0,0.0
1582915103822,4827696.0,5494076.0,0.0
1582915103877,4837400.0,5510666.0,0.0
1582915103923,4843241.0,5516115.0,0.0
1582915103973,4866828.0,5517992.0,0.0
1582915104021,4894594.0,5545049.0,0.0
1582915104071,4912989.0,5536016.0,0.0
1582915104119,4909486.0,5537609.0,0.0
1582915104164,4919080.0,5536231.0,0.0
1582915104217,4926222.0,5547266.0,0.0
1582915104262,4933243.0,5573126.0,0.0
1582915104315,4935684.0,5589024.0,0.0
1582915104363,5016734.0,5657443.0,0.0
1582915104412,5231445.0,5854594.0,0.0
1582915104460,5241478.0,5908471.0,0.0
1582915104508,5149925.0,5851790.0,0.0
1582915104559,5116048.0,5791376.0,0.0
1582915104606,5094582.0,5777152.0,0.0
1582915104655,5088670.0,5774098.0,0.0
1582915104704,5080789.0,5766013.0,0.0
1582915104753,5089320.0,5769429.0,0.0
1582915104801,5105026.0,5834185.0,0.0
1582915104850,5160187.0,5818772.0,0.0
1582915104899,5146246.0,5804458.0,0.0
1582915104942,5155878.0,5783562.0,0.0
1582915104996,5142625.0,5780723.0,0.0
1582915105044,5146274.0,5792325.0,0.0
1582915105094,5155766.0,5809444.0,0.0
1582915105142,5205719.0,5838470.0,0.0
1582915105186,5286979.0,5904694.0,0.0
1582915105239,5289880.0,5912078.0,0.0
1582915105284,5235267.0,5875862.0,0.0
1582915105339,5184253.0,5860496.0,0.0
1582915105390,5146335.0,5805442.0,0.0
1582915105435,5128521.0,5788401.0,0.0
1582915105483,5117687.0,5775014.0,0.0
1582915105533,5115887.0,5781617.0,0.0
1582915105581,5127261.0,5841353.0,0.0
1582915105630,5124760.0,5800580.0,0.0
1582915105680,5126741.0,5798397.0,0.0
1582915105724,5114676.0,5770254.0,0.0
1582915105777,5123309.0,5762564.0,0.0
1582915105825,5125950.0,5738514.0,0.0
1582915105875,5133442.0,5746180.0,0.0
1582915105918,5143163.0,5745152.0,0.0
1582915105973,5142164.0,5797402.0,0.0
1582915106016,5212162.0,5820988.0,0.0
1582915106065,5115308.0,5773543.0,0.0
1582915106119,5100444.0,5755170.0,0.0
1582915106165,5098103.0,5774155.0,0.0
1582915106216,5089101.0,5778507.0,0.0
1582915106264,5076998.0,5742890.0,0.0
1582915106313,5060713.0,5700636.0,0.0
1582915106361,5077018.0,5739678.0,0.0
1582915106410,5074448.0,5704017.0,0.0
1582915106459,5078397.0,5698826.0,0.0
1582915106505,5085990.0,5691782.0,0.0
1582915106557,5077688.0,5688921.0,0.0
1582915106608,5085960.0,5693998.0,0.0
1582915106657,5090401.0,5692710.0,0.0
1582915106702,5105995.0,5698023.0,0.0
1582915106747,5096803.0,5696666.0,0.0
1582915106794,5112007.0,5670570.0,0.0
1582915106845,5066985.0,5642674.0,0.0
1582915106893,5022205.0,5597628.0,0.0
1582915106943,5004840.0,5613899.0,0.0
1582915106992,4986256.0,5605611.0,0.0
1582915107045,4967732.0,5591397.0,0.0
1582915107087,4995669.0,5622808.0,0.0
1582915107138,5030026.0,5647628.0,0.0
1582915107186,5034467.0,5652274.0,0.0
1582915107236,5045091.0,5629334.0,0.0
1582915107287,5055754.0,5607409.0,0.0
1582915107336,5070667.0,5609805.0,0.0
1582915107385,5070756.0,5628202.0,0.0
1582915107436,5063255.0,5641297.0,0.0
1582915107482,5014863.0,5620163.0,0.0
1582915107531,5006092.0,5580962.0,0.0
1582915107581,4983675.0,5548848.0,0.0
1582915107629,4985276.0,5542528.0,0.0
1582915107680,4993097.0,5525658.0,0.0
1582915107728,4991918.0,5515040.0,0.0
1582915107776,4988667.0,5515867.0,0.0
1582915107824,4972743.0,5499696.0,0.0
1582915107867,4984506.0,5520197.0,0.0
1582915107917,5037679.0,5583516.0,0.0
1582915107966,5053263.0,5599268.0,0.0
1582915108016,5066636.0,5610778.0,0.0
1582915108066,5091691.0,5602287.0,0.0
1582915108119,5102504.0,5580623.0,0.0
1582915108167,5102973.0,5565482.0,0.0
1582915108216,5106586.0,5581708.0,0.0
1582915108263,5198488.0,5689352.0,0.0
1582915108312,5135953.0,5765934.0,0.0
1582915108361,5228245.0,5753971.0,0.0
1582915108410,5209620.0,5749652.0,0.0
1582915108460,5168640.0,5743557.0,0.0
1582915108508,5151876.0,5733595.0,0.0
1582915108559,5149387.0,5726392.0,0.0
1582915108608,5154958.0,5706380.0,0.0
1582915108657,5166630.0,5709060.0,0.0
1582915108704,5227184.0,5756097.0,0.0
1582915108748,5260903.0,5813707.0,0.0
1582915108801,5264353.0,5836637.0,0.0
1582915108848,5264024.0,5831787.0,0.0
1582915108898,5258053.0,5817484.0,0.0
1582915108948,5263774.0,5828825.0,0.0
1582915108997,5259792.0,5845955.0,0.0
1582915109045,5260273.0,5849754.0,0.0
1582915109094,5302983.0,5891862.0,0.0
1582915109142,5229165.0,5774640.0,0.0
1582915109189,5208931.0,5723861.0,0.0
1582915109240,5192387.0,5717122.0,0.0
1582915109288,5187226.0,5716725.0,0.0
1582915109338,5194097.0,5733855.0,0.0
1582915109386,5187935.0,5734534.0,0.0
1582915109436,5176293.0,5730836.0,0.0
1582915109484,5218852.0,5792109.0,0.0
1582915109528,5254452.0,5769439.0,0.0
1582915109582,5243520.0,5759071.0,0.0
1582915109631,5242999.0,5736513.0,0.0
1582915109679,5251740.0,5745038.0,0.0
1582915109727,5250901.0,5754841.0,0.0
1582915109778,5244448.0,5771735.0,0.0
1582915109825,5256281.0,5793184.0,0.0
1582915109875,5302304.0,5860880.0,0.0
1582915109918,5331490.0,5867099.0,0.0
1582915109970,5280428.0,5788446.0,0.0
1582915110020,5274197.0,5782001.0,0.0
1582915110069,5258613.0,5803678.0,0.0
1582915110119,5251240.0,5820220.0,0.0
1582915110167,5227544.0,5801687.0,0.0
1582915110217,5214181.0,5789023.0,0.0
1582915110264,5257902.0,5880429.0,0.0
1582915110311,5268835.0,5870502.0,0.0
1582915110361,5274806.0,5895434.0,0.0
1582915110413,5292141.0,5845536.0,0.0
1582915110461,5303084.0,5797526.0,0.0
1582915110509,5304504.0,5781741.0,0.0
1582915110559,5305165.0,5789194.0,0.0
1582915110607,5335781.0,5871317.0,0.0
1582915110651,5446517.0,6034015.0,0.0
1582915110703,5629303.0,6270819.0,0.0
1582915110750,5521326.0,6162677.0,0.0
1582915110802,5435847.0,6104334.0,0.0
1582915110851,5415931.0,6083053.0,0.0
1582915110893,5396906.0,6064883.0,0.0
1582915110948,5385864.0,6017517.0,0.0
1582915110993,5390275.0,5981029.0,0.0
1582915111045,5427224.0,6006369.0,0.0
1582915111091,5512045.0,6083437.0,0.0
1582915111142,5498902.0,6096384.0,0.0
1582915111192,5487719.0,6103078.0,0.0
1582915111241,5477885.0,6119564.0,0.0
1582915111289,5476685.0,6131413.0,0.0
1582915111339,5478737.0,6160010.0,0.0
1582915111386,5518787.0,6198024.0,0.0
1582915111432,5578451.0,6271396.0,0.0
1582915111484,5457340.0,6279515.0,0.0
1582915111531,5465624.0,6201518.0,0.0
1582915111582,5442497.0,6165075.0,0.0
1582915111632,5412780.0,6154526.0,0.0
1582915111681,5420391.0,6167190.0,0.0
1582915111722,5414030.0,6155871.0,0.0
1582915111772,5411500.0,6141761.0,0.0
1582915111819,5423863.0,6137860.0,0.0
1582915111872,5493800.0,6153022.0,0.0
1582915111918,5468373.0,6170073.0,0.0
1582915111974,5483038.0,6156233.0,0.0
1582915112021,5453870.0,6151257.0,0.0
1582915112069,5462983.0,6154967.0,0.0
1582915112119,5482788.0,6173352.0,0.0
1582915112167,5493459.0,6200364.0,0.0
1582915112214,5607667.0,6292652.0,0.0
1582915112258,5657329.0,6364804.0,0.0
1582915112313,5571378.0,6278497.0,0.0
1582915112362,5502112.0,6192812.0,0.0
1582915112411,5456150.0,6144971.0,0.0
1582915112460,5431864.0,6126630.0,0.0
1582915112509,5428463.0,6131120.0,0.0
1582915112555,5411390.0,6099811.0,0.0
1582915112607,5401878.0,6075331.0,0.0
1582915112653,5434376.0,6160619.0,0.0
1582915112703,5442838.0,6108676.0,0.0
1582915112754,5432415.0,6056641.0,0.0
1582915112801,5429384.0,6003382.0,0.0
1582915112850,5416161.0,6004254.0,0.0
1582915112894,5412410.0,6010359.0,0.0
1582915112948,5398326.0,6012802.0,0.0
1582915112997,5407678.0,6040165.0,0.0
1582915113038,5444317.0,6113956.0,0.0
1582915113090,5439607.0,6094813.0,0.0
1582915113136,5403227.0,5985450.0,0.0
1582915113188,5369860.0,5920548.0,0.0
1582915113235,5331090.0,5871260.0,0.0
1582915113285,5317276.0,5852942.0,0.0
1582915113334,5294571.0,5832827.0,0.0
1582915113386,5267665.0,5826574.0,0.0
1582915113440,5288539.0,5884285.0,0.0
1582915113484,5284908.0,5892811.0,0.0
1582915113533,5298362.0,5883144.0,0.0
1582915113580,5281489.0,5805962.0,0.0
1582915113630,5271265.0,5751507.0,0.0
1582915113674,5255812.0,5724233.0,0.0
1582915113727,5243469.0,5725602.0,0.0
1582915113777,5254001.0,5762813.0,0.0
1582915113824,5270946.0,5831740.0,0.0
1582915113875,5288370.0,5828723.0,0.0
1582915113918,5260373.0,5800897.0,0.0
1582915113972,5227615.0,5794214.0,0.0
1582915114016,5211231.0,5780532.0,0.0
1582915114068,5192695.0,5737803.0,0.0
1582915114118,5168249.0,5708393.0,0.0
1582915114165,5163068.0,5699640.0,0.0
1582915114216,5187494.0,5769699.0,0.0
1582915114263,5193837.0,5779445.0,0.0
1582915114313,5185115.0,5788300.0,0.0
1582915114362,5185615.0,5772052.0,0.0
1582915114410,5184475.0,5745637.0,0.0
1582915114454,5183394.0,5686060.0,0.0
1582915114507,5183504.0,5644564.0,0.0
1582915114558,5224005.0,5691353.0,0.0
1582915114598,5233316.0,5747210.0,0.0
1582915114649,5216083.0,5762078.0,0.0
1582915114695,5204650.0,5749607.0,0.0
1582915114745,5173902.0,5731019.0,0.0
1582915114800,5147816.0,5716601.0,0.0
1582915114849,5137113.0,5714736.0,0.0
1582915114896,5128131.0,5651405.0,0.0
1582915114942,5100893.0,5609297.0,0.0
1582915114995,5125690.0,5662055.0,0.0
1582915115044,5108656.0,5661683.0,0.0
1582915115094,5110956.0,5671791.0,0.0
1582915115142,5114928.0,5663425.0,0.0
1582915115191,5120918.0,5657522.0,0.0
1582915115234,5135382.0,5665651.0,0.0
1582915115287,5149925.0,5693354.0,0.0
1582915115338,5186864.0,5695965.0,0.0
1582915115385,5216873.0,5707737.0,0.0
1582915115435,5192287.0,5670773.0,0.0
1582915115482,5122200.0,5617857.0,0.0
1582915115532,5091561.0,5613277.0,0.0
1582915115575,5068155.0,5625896.0,0.0
1582915115630,5058094.0,5640267.0,0.0
1582915115677,5049061.0,5639962.0,0.0
1582915115726,5033998.0,5621146.0,0.0
1582915115775,5062225.0,5654593.0,0.0
1582915115824,5035008.0,5574788.0,0.0
1582915115873,5013662.0,5561502.0,0.0
1582915115917,5006541.0,5535382.0,0.0
1582915115970,5017593.0,5543726.0,0.0
1582915116019,5030747.0,5555736.0,0.0
1582915116067,5056713.0,5581232.0,0.0
1582915116117,5087071.0,5627818.0,0.0
1582915116164,5156156.0,5697605.0,0.0
1582915116214,5164810.0,5714939.0,0.0
1582915116258,5121779.0,5627863.0,0.0
1582915116312,5081278.0,5629604.0,0.0
1582915116356,5063265.0,5638481.0,0.0
1582915116409,5041690.0,5649302.0,0.0
1582915116460,5046300.0,5660574.0,0.0
1582915116506,5037098.0,5661253.0,0.0
1582915116555,5083859.0,5723249.0,0.0
1582915116597,5140693.0,5748939.0,0.0
1582915116654,5101194.0,5706628.0,0.0
1582915116702,5110276.0,5677570.0,0.0
1582915116751,5118128.0,5679898.0,0.0
1582915116797,5134033.0,5697233.0,0.0
1582915116848,5150486.0,5739316.0,0.0
1582915116897,5169070.0,5778757.0,0.0
1582915116938,5213192.0,5833325.0,0.0
1582915116995,5255873.0,5870502.0,0.0
1582915117042,5174613.0,5771824.0,0.0
1582915117092,5150376.0,5735529.0,0.0
1582915117138,5104574.0,5722561.0,0.0
1582915117189,5078968.0,5721825.0,0.0
1582915117237,5069466.0,5728631.0,0.0
1582915117286,5059785.0,5724879.0,0.0
1582915117336,5064254.0,5737543.0,0.0
1582915117383,5100674.0,5795254.0,0.0
1582915117433,5111767.0,5779728.0,0.0
1582915117478,5115568.0,5748916.0,0.0
1582915117530,5118358.0,5714883.0,0.0
1582915117578,5125940.0,5719507.0,0.0
1582915117626,5135622.0,5740426.0,0.0
1582915117677,5149555.0,5761288.0,0.0
1582915117725,5189906.0,5818987.0,0.0
1582915117776,5271375.0,5915018.0,0.0
1582915117817,5282639.0,5952806.0,0.0
1582915117872,5239629.0,5854333.0,0.0
1582915117921,5178124.0,5812870.0,0.0
1582915117968,5141343.0,5790120.0,0.0
1582915118017,5120008.0,5792800.0,0.0
1582915118065,5107346.0,5784139.0,0.0
1582915118116,5091671.0,5772210.0,0.0
1582915118160,5124890.0,5841080.0,0.0
1582915118208,5134841.0,5811638.0,0.0
1582915118257,5147985.0,5825682.0,0.0
1582915118306,5134352.0,5794665.0,0.0
1582915118354,5139224.0,5782115.0,0.0
1582915118404,5137432.0,5773454.0,0.0
1582915118454,5146776.0,5784738.0,0.0
1582915118505,5152256.0,5802546.0,0.0
1582915118556,5179914.0,5834613.0,0.0
1582915118600,5210882.0,5866329.0,0.0
1582915118653,5177953.0,5837407.0,0.0
1582915118699,5185255.0,5843332.0,0.0
1582915118749,5176701.0,5848441.0,0.0
1582915118798,5174432.0,5852897.0,0.0
1582915118847,5169840.0,5873974.0,0.0
1582915118896,5167800.0,5858267.0,0.0
1582915118939,5164440.0,5855837.0,0.0
1582915118994,5191196.0,5913244.0,0.0
1582915119039,5209100.0,5915176.0,0.0
1582915119090,5207100.0,5903258.0,0.0
1582915119139,5204339.0,5892258.0,0.0
1582915119188,5220542.0,5874494.0,0.0
1582915119237,5219334.0,5858200.0,0.0
1582915119283,5228485.0,5865967.0,0.0
1582915119335,5250121.0,5885338.0,0.0
1582915119378,5265105.0,5917925.0,0.0
1582915119432,5285640.0,5908798.0,0.0
1582915119480,5237607.0,5876043.0,0.0
1582915119529,5206089.0,5874019.0,0.0
1582915119578,5187466.0,5871565.0,0.0
1582915119621,5181964.0,5869576.0,0.0
1582915119675,5168341.0,5846452.0,0.0
1582915119718,5147725.0,5825952.0,0.0
1582915119774,5191326.0,5905170.0,0.0
1582915119823,5199449.0,5879877.0,0.0
1582915119870,5199018.0,5890324.0,0.0
1582915119920,5200879.0,5878802.0,0.0
1582915119968,5206040.0,5866477.0,0.0
1582915120017,5216111.0,5841251.0,0.0
1582915120064,5220532.0,5831708.0,0.0
1582915120113,5236136.0,5848409.0,0.0
1582915120159,5249590.0,5895988.0,0.0
1582915120211,5306294.0,5952524.0,0.0
1582915120260,5258083.0,5884218.0,0.0
1582915120309,5224964.0,5875579.0,0.0
1582915120358,5200359.0,5871079.0,0.0
1582915120407,5187124.0,5866817.0,0.0
1582915120456,5178083.0,5838118.0,0.0
1582915120501,5155256.0,5804265.0,0.0
1582915120554,5174552.0,5842348.0,0.0
1582915120601,5195857.0,5859364.0,0.0
1582915120651,5206310.0,5878757.0,0.0
1582915120699,5226345.0,5863978.0,0.0
1582915120749,5229346.0,5866636.0,0.0
1582915120798,5229815.0,5877603.0,0.0
1582915120840,5232467.0,5872650.0,0.0
1582915120894,5250050.0,5889125.0,0.0
1582915120942,5324458.0,5977207.0,0.0
1582915120992,5397016.0,6168275.0,0.0
1582915121040,5450969.0,6246418.0,0.0
1582915121089,5410580.0,6178801.0,0.0
1582915121137,5364969.0,6124495.0,0.0
1582915121185,5315596.0,6096961.0,0.0
1582915121236,5295002.0,6086525.0,0.0
1582915121281,5285178.0,6059172.0,0.0
1582915121333,5311355.0,6056911.0,0.0
1582915121381,5345594.0,6091997.0,0.0
1582915121430,5420613.0,6136332.0,0.0
1582915121479,5388604.0,6125726.0,0.0
1582915121528,5369929.0,6104287.0,0.0
1582915121577,5364207.0,6097503.0,0.0
1582915121624,5374220.0,6107759.0,0.0
1582915121677,5387954.0,6086773.0,0.0
1582915121716,5461032.0,6123589.0,0.0
1582915121772,5532858.0,6229345.0,0.0
1582915121816,5526828.0,6291951.0,0.0
1582915121869,5476065.0,6215302.0,0.0
1582915121917,5403507.0,6165008.0,0.0
1582915121962,5348213.0,6148589.0,0.0
1582915122015,5331630.0,6154865.0,0.0
1582915122062,5311796.0,6099754.0,0.0
1582915122113,5319927.0,6064566.0,0.0
1582915122161,5335791.0,6120039.0,0.0
1582915122210,5375961.0,6098171.0,0.0
1582915122258,5375811.0,6092393.0,0.0
1582915122306,5384704.0,6101733.0,0.0
1582915122357,5366879.0,6114216.0,0.0
1582915122403,5414871.0,6164362.0,0.0
1582915122454,5461313.0,6217281.0,0.0
1582915122501,5446099.0,6177863.0,0.0
1582915122545,5410299.0,6174935.0,0.0
1582915122600,5403357.0,6097753.0,0.0
1582915122644,5327869.0,6028745.0,0.0
1582915122697,5280928.0,6006708.0,0.0
1582915122741,5258882.0,6014374.0,0.0
1582915122795,5253331.0,6024551.0,0.0
1582915122843,5237556.0,6009297.0,0.0
1582915122894,5238777.0,5979910.0,0.0
1582915122940,5253851.0,5993683.0,0.0
1582915122990,5282208.0,5963266.0,0.0
1582915123039,5264044.0,5967303.0,0.0
1582915123082,5278787.0,5962869.0,0.0
1582915123138,5266645.0,5971067.0,0.0
1582915123184,5271096.0,5991736.0,0.0
1582915123233,5273866.0,6018025.0,0.0
1582915123281,5346464.0,6076054.0,0.0
1582915123331,5390955.0,6114306.0,0.0
1582915123380,5355105.0,6072571.0,0.0
1582915123425,5287789.0,5991003.0,0.0
1582915123477,5238107.0,5969473.0,0.0
1582915123527,5211771.0,5953643.0,0.0
1582915123576,5192726.0,5960970.0,0.0
1582915123626,5184924.0,5947763.0,0.0
1582915123673,5170990.0,5933324.0,0.0
1582915123720,5204089.0,5990087.0,0.0
1582915123768,5234297.0,5940006.0,0.0
1582915123818,5222465.0,5940459.0,0.0
1582915123863,5233097.0,5923330.0,0.0
1582915123916,5226174.0,5927808.0,0.0
1582915123963,5222343.0,5943094.0,0.0
1582915124013,5224043.0,5957747.0,0.0
1582915124061,5247691.0,5998986.0,0.0
1582915124111,5281767.0,6027095.0,0.0
1582915124159,5369439.0,6035709.0,0.0
1582915124202,5239787.0,5927218.0,0.0
1582915124257,5202679.0,5890651.0,0.0
1582915124305,5166801.0,5875161.0,0.0
1582915124354,5152156.0,5886524.0,0.0
1582915124402,5145575.0,5878101.0,0.0
1582915124452,5121170.0,5853338.0,0.0
1582915124500,5159147.0,5919451.0,0.0
1582915124545,5160508.0,5833912.0,0.0
1582915124599,5151756.0,5808414.0,0.0
1582915124645,5143324.0,5763096.0,0.0
1582915124695,5136253.0,5766001.0,0.0
1582915124744,5136282.0,5774132.0,0.0
1582915124794,5140303.0,5794427.0,0.0
1582915124841,5148846.0,5826167.0,0.0
1582915124884,5189725.0,5915515.0,0.0
1582915124939,5282409.0,5917630.0,0.0
1582915124986,5158688.0,5783482.0,0.0
1582915125036,5126170.0,5725659.0,0.0
1582915125085,5100444.0,5713503.0,0.0
1582915125135,5084700.0,5725612.0,0.0
1582915125182,5075338.0,5721000.0,0.0
1582915125233,5051912.0,5703316.0,0.0
1582915125280,5087441.0,5782024.0,0.0
1582915125327,5088190.0,5711140.0,0.0
1582915125379,5089442.0,5673102.0,0.0
1582915125426,5067316.0,5590889.0,0.0
1582915125475,5060435.0,5580962.0,0.0
1582915125523,5074937.0,5600388.0,0.0
1582915125573,5082280.0,5623724.0,0.0
1582915125621,5096143.0,5647741.0,0.0
1582915125666,5130020.0,5733709.0,0.0
1582915125720,5173142.0,5727004.0,0.0
1582915125769,5110036.0,5624561.0,0.0
1582915125817,5066705.0,5570322.0,0.0
1582915125865,5041629.0,5563513.0,0.0
1582915125911,5034538.0,5572402.0,0.0
1582915125963,5022955.0,5566646.0,0.0
1582915126013,5003861.0,5556301.0,0.0
1582915126060,5055853.0,5638332.0,0.0
1582915126105,5053383.0,5623499.0,0.0
1582915126158,5073997.0,5614000.0,0.0
1582915126207,5078469.0,5562361.0,0.0
1582915126257,5072176.0,5535766.0,0.0
1582915126304,5065295.0,5543783.0,0.0
1582915126356,5064955.0,5559929.0,0.0
1582915126402,5056924.0,5561717.0,0.0
1582915126452,5099715.0,5600442.0,0.0
1582915126500,5141004.0,5640200.0,0.0
1582915126547,5081449.0,5554151.0,0.0
1582915126597,5054063.0,5517653.0,0.0
1582915126647,5031336.0,5502388.0,0.0
1582915126696,5026665.0,5515312.0,0.0
1582915126742,5018825.0,5518208.0,0.0
1582915126793,5005070.0,5519483.0,0.0
1582915126841,5045861.0,5592427.0,0.0
1582915126885,5065055.0,5593534.0,0.0
1582915126933,5077638.0,5610642.0,0.0
1582915126981,5078828.0,5532883.0,0.0
1582915127037,5074937.0,5490797.0,0.0
1582915127086,5074037.0,5493625.0,0.0
1582915127136,5071087.0,5513967.0,0.0
1582915127183,5066345.0,5537271.0,0.0
1582915127231,5101714.0,5603541.0,0.0
1582915127280,5154667.0,5653961.0,0.0
1582915127331,5096992.0,5570560.0,0.0
1582915127379,5070766.0,5528350.0,0.0
1582915127426,5045550.0,5501043.0,0.0
1582915127476,5031887.0,5486480.0,0.0
1582915127524,5016874.0,5480283.0,0.0
1582915127574,4994088.0,5471666.0,0.0
1582915127622,5010092.0,5530091.0,0.0
1582915127669,5021194.0,5516568.0,0.0
1582915127719,5027246.0,5526891.0,0.0
1582915127767,5021655.0,5503327.0,0.0
1582915127818,5030676.0,5463978.0,0.0
1582915127865,5033388.0,5445050.0,0.0
1582915127911,5024245.0,5444721.0,0.0
1582915127964,5020745.0,5458822.0,0.0
1582915128007,5035048.0,5519327.0,0.0
1582915128062,5066166.0,5543523.0,0.0
1582915128109,5023756.0,5496169.0,0.0
1582915128160,5007920.0,5474673.0,0.0
1582915128209,4999259.0,5456209.0,0.0
1582915128258,4994509.0,5440459.0,0.0
1582915128305,4979165.0,5418908.0,0.0
1582915128355,4956149.0,5401833.0,0.0
1582915128403,4997178.0,5474200.0,0.0
1582915128447,5000720.0,5458200.0,0.0
1582915128501,5005001.0,5488560.0,0.0
1582915128550,5007362.0,5469507.0,0.0
1582915128599,5021165.0,5434455.0,0.0
1582915128649,5023294.0,5409489.0,0.0
1582915128698,5020905.0,5418014.0,0.0
1582915128746,5022354.0,5436852.0,0.0
1582915128789,5029115.0,5492687.0,0.0
1582915128843,5059994.0,5503089.0,0.0
1582915128889,5033547.0,5466906.0,0.0
1582915128940,5015092.0,5458574.0,0.0
1582915128989,4997438.0,5445898.0,0.0
1582915129038,4989417.0,5424845.0,0.0
1582915129086,4976323.0,5394960.0,0.0
1582915129135,4947236.0,5372255.0,0.0
1582915129183,4991268.0,5454017.0,0.0
1582915129231,4989137.0,5443636.0,0.0
1582915129282,5002770.0,5475193.0,0.0
1582915129331,4996199.0,5457702.0,0.0
1582915129380,5008751.0,5445593.0,0.0
1582915129428,5007512.0,5411592.0,0.0
1582915129478,5000049.0,5401155.0,0.0
1582915129525,4990307.0,5400884.0,0.0
1582915129571,4991238.0,5439611.0,0.0
1582915129622,4991628.0,5423351.0,0.0
1582915129671,4984515.0,5410224.0,0.0
1582915129721,4975032.0,5406843.0,0.0
1582915129770,4951218.0,5397469.0,0.0
1582915129819,4938483.0,5377003.0,0.0
1582915129867,4916349.0,5320275.0,0.0
1582915129912,4876919.0,5293307.0,0.0
1582915129962,4887931.0,5343264.0,0.0
1582915130011,4882980.0,5327388.0,0.0
1582915130061,4889053.0,5320852.0,0.0
1582915130112,4861736.0,5288299.0,0.0
1582915130160,4862965.0,5286830.0,0.0
1582915130208,4872827.0,5282736.0,0.0
1582915130257,4867088.0,5257171.0,0.0
1582915130305,4870087.0,5254660.0,0.0
1582915130352,4875369.0,5269077.0,0.0
1582915130402,4847731.0,5247526.0,0.0
1582915130453,4836010.0,5239803.0,0.0
1582915130501,4807842.0,5231685.0,0.0
1582915130549,4797429.0,5240301.0,0.0
1582915130600,4787417.0,5237315.0,0.0
1582915130647,4761400.0,5194823.0,0.0
1582915130693,4747357.0,5189611.0,0.0
1582915130743,4734124.0,5154560.0,0.0
1582915130792,4712610.0,5151053.0,0.0
1582915130836,4699125.0,5137757.0,0.0
1582915130885,4681671.0,5125046.0,0.0
1582915130932,4680311.0,5109760.0,0.0
1582915130983,4659626.0,5077660.0,0.0
1582915131035,4665539.0,5040877.0,0.0
1582915131082,4671398.0,5021633.0,0.0
1582915131133,4690625.0,5068850.0,0.0
1582915131183,4756421.0,5173317.0,0.0
1582915131232,4855584.0,5377761.0,0.0
1582915131281,5031736.0,5644643.0,0.0
1582915131330,5121139.0,5729322.0,0.0
1582915131378,5180184.0,5755373.0,0.0
1582915131426,5182313.0,5704299.0,0.0
1582915131473,5160858.0,5599867.0,0.0
1582915131524,5147176.0,5584534.0,0.0
1582915131572,5171622.0,5617019.0,0.0
1582915131622,5239708.0,5694880.0,0.0
1582915131672,5243899.0,5804785.0,0.0
1582915131720,5265674.0,5867314.0,0.0
1582915131768,5208720.0,5807861.0,0.0
1582915131818,5151687.0,5707623.0,0.0
1582915131865,5165901.0,5677389.0,0.0
1582915131917,5167640.0,5666238.0,0.0
1582915131957,5162989.0,5690233.0,0.0
1582915132013,5192846.0,5732634.0,0.0
1582915132057,5249399.0,5895763.0,0.0
1582915132110,5259643.0,5950693.0,0.0
1582915132153,5246740.0,5953802.0,0.0
1582915132207,5205660.0,5863413.0,0.0
1582915132259,5215331.0,5805679.0,0.0
1582915132297,5194758.0,5759173.0,0.0
1582915132353,5237808.0,5797548.0,0.0
1582915132400,5194526.0,5758167.0,0.0
1582915132451,5239188.0,5803383.0,0.0
1582915132494,5216111.0,5761117.0,0.0
1582915132548,5216272.0,5753994.0,0.0
1582915132598,5216761.0,5730509.0,0.0
1582915132639,5229104.0,5704254.0,0.0
1582915132695,5237008.0,5706402.0,0.0
1582915132743,5268274.0,5802083.0,0.0
1582915132793,5291310.0,5890911.0,0.0
1582915132840,5297241.0,5934173.0,0.0
1582915132889,5297623.0,5935010.0,0.0
1582915132933,5289719.0,5912305.0,0.0
1582915132986,5275005.0,5873588.0,0.0
1582915133039,5298452.0,5873375.0,0.0
1582915133084,5321029.0,5901314.0,0.0
1582915133135,5318658.0,5943964.0,0.0
1582915133182,5302213.0,5934908.0,0.0
1582915133231,5311555.0,5960179.0,0.0
1582915133274,5307095.0,5953145.0,0.0
1582915133328,5317357.0,5948172.0,0.0
1582915133377,5327719.0,5927082.0,0.0
1582915133425,5334481.0,5940244.0,0.0
1582915133474,5350294.0,5968093.0,0.0
1582915133522,5342303.0,5970265.0,0.0
1582915133572,5340411.0,5988526.0,0.0
1582915133617,5343313.0,6003575.0,0.0
1582915133669,5340783.0,6006946.0,0.0
1582915133713,5340383.0,6003236.0,0.0
1582915133766,5346484.0,6010924.0,0.0
1582915133817,5363909.0,6034196.0,0.0
1582915133864,5365548.0,6047516.0,0.0
1582915133915,5364559.0,6035655.0,0.0
1582915133957,5364347.0,6038855.0,0.0
1582915134012,5363037.0,6053248.0,0.0
1582915134054,5349644.0,6068207.0,0.0
1582915134108,5363779.0,6079028.0,0.0
1582915134155,5364347.0,6093557.0,0.0
1582915134206,5380272.0,6098838.0,0.0
1582915134254,5382493.0,6111536.0,0.0
1582915134303,5389584.0,6107148.0,0.0
1582915134353,5398456.0,6090969.0,0.0
1582915134399,5407760.0,6087690.0,0.0
1582915134449,5408568.0,6076393.0,0.0
1582915134499,5395086.0,6090843.0,0.0
1582915134547,5401348.0,6116998.0,0.0
1582915134597,5409040.0,6126496.0,0.0
1582915134645,5396236.0,6123351.0,0.0
1582915134687,5388995.0,6117924.0,0.0
1582915134743,5387804.0,6083041.0,0.0
1582915134791,5381593.0,6094293.0,0.0
1582915134837,5379712.0,6104638.0,0.0
1582915134888,5380221.0,6129922.0,0.0
1582915134938,5388355.0,6143581.0,0.0
1582915134986,5387893.0,6157454.0,0.0
1582915135036,5399168.0,6186051.0,0.0
1582915135083,5384293.0,6194405.0,0.0
1582915135134,5366519.0,6167574.0,0.0
1582915135182,5359967.0,6130950.0,0.0
1582915135230,5384074.0,6110654.0,0.0
1582915135277,5380772.0,6109173.0,0.0
1582915135328,5403247.0,6138628.0,0.0
1582915135376,5399986.0,6159784.0,0.0
1582915135425,5396975.0,6168320.0,0.0
1582915135475,5398877.0,6172775.0,0.0
1582915135524,5396636.0,6156844.0,0.0
1582915135574,5386414.0,6125206.0,0.0
1582915135620,5409540.0,6160428.0,0.0
1582915135671,5429914.0,6177320.0,0.0
1582915135718,5436655.0,6194915.0,0.0
1582915135768,5455160.0,6226269.0,0.0
1582915135813,5457942.0,6242460.0,0.0
1582915135859,5469013.0,6254187.0,0.0
1582915135912,5462131.0,6241286.0,0.0
1582915135958,5473166.0,6218739.0,0.0
1582915136009,5488079.0,6257103.0,0.0
1582915136057,5507033.0,6272018.0,0.0
1582915136110,5508744.0,6297945.0,0.0
1582915136158,5507714.0,6306549.0,0.0
1582915136207,5521538.0,6316771.0,0.0
1582915136255,5518565.0,6313368.0,0.0
1582915136305,5511684.0,6307319.0,0.0
1582915136355,5530770.0,6292268.0,0.0
1582915136397,5554395.0,6318512.0,0.0
1582915136452,5558365.0,6332025.0,0.0
1582915136498,5572408.0,6394654.0,0.0
1582915136548,5562686.0,6423905.0,0.0
1582915136597,5559176.0,6424980.0,0.0
1582915136645,5567388.0,6438322.0,0.0
1582915136695,5568928.0,6365799.0,0.0
1582915136737,5581732.0,6353859.0,0.0
1582915136786,5593634.0,6360608.0,0.0
1582915136837,5602647.0,6421113.0,0.0
1582915136884,5593565.0,6438855.0,0.0
1582915136932,5599735.0,6478882.0,0.0
1582915136980,5585792.0,6462441.0,0.0
1582915137029,5606597.0,6483720.0,0.0
1582915137080,5606977.0,6416217.0,0.0
1582915137130,5605497.0,6391580.0,0.0
1582915137178,5609608.0,6412056.0,0.0
1582915137228,5604498.0,6436965.0,0.0
1582915137277,5575649.0,6382228.0,0.0
1582915137325,5575230.0,6336967.0,0.0
1582915137377,5602836.0,6368828.0,0.0
1582915137426,5539011.0,6319384.0,0.0
1582915137469,5578311.0,6363650.0,0.0
1582915137517,5557506.0,6347684.0,0.0
1582915137565,5570269.0,6342269.0,0.0
1582915137616,5547144.0,6269123.0,0.0
1582915137669,5550094.0,6295151.0,0.0
1582915137719,5555015.0,6303599.0,0.0
1582915137767,5545892.0,6278960.0,0.0
1582915137816,5596546.0,6376563.0,0.0
1582915137863,5565817.0,6326292.0,0.0
1582915137915,5550173.0,6281390.0,0.0
1582915137958,5571189.0,6307374.0,0.0
1582915138012,5543862.0,6269801.0,0.0
1582915138059,5530729.0,6260677.0,0.0
1582915138109,5537531.0,6278507.0,0.0
1582915138158,5520627.0,6217597.0,0.0
1582915138199,5538200.0,6222063.0,0.0
1582915138254,5544783.0,6237769.0,0.0
1582915138298,5564456.0,6273147.0,0.0
1582915138352,5562368.0,6260744.0,0.0
1582915138401,5544403.0,6186026.0,0.0
1582915138449,5564336.0,6203723.0,0.0
1582915138498,5553054.0,6208495.0,0.0
1582915138547,5559076.0,6214962.0,0.0
1582915138595,5555244.0,6225342.0,0.0
1582915138640,5555045.0,6246757.0,0.0
1582915138693,5582281.0,6297774.0,0.0
1582915138743,5566758.0,6306876.0,0.0
1582915138790,5562977.0,6266319.0,0.0
1582915138839,5551425.0,6223973.0,0.0
1582915138888,5546114.0,6221553.0,0.0
1582915138937,5585582.0,6263413.0,0.0
1582915138982,5570598.0,6248748.0,0.0
1582915139034,5575419.0,6252027.0,0.0
1582915139081,5567717.0,6268625.0,0.0
1582915139132,5572049.0,6281177.0,0.0
1582915139180,5575139.0,6281662.0,0.0
1582915139229,5562396.0,6249370.0,0.0
1582915139278,5570629.0,6253259.0,0.0
1582915139321,5563387.0,6263391.0,0.0
1582915139376,5567418.0,6269417.0,0.0
1582915139419,5575060.0,6286185.0,0.0
1582915139473,5582161.0,6296057.0,0.0
1582915139521,5582862.0,6312305.0,0.0
1582915139570,5585773.0,6336241.0,0.0
1582915139619,5571539.0,6299708.0,0.0
1582915139668,5579481.0,6312248.0,0.0
1582915139717,5593484.0,6345366.0,0.0
1582915139763,5583792.0,6325499.0,0.0
1582915139814,5571248.0,6310846.0,0.0
1582915139861,5579601.0,6300444.0,0.0
1582915139912,5589323.0,6304006.0,0.0
1582915139959,5608868.0,6315845.0,0.0
1582915140002,5703062.0,6355521.0,0.0
1582915140054,5767346.0,6407308.0,0.0
1582915140101,5715724.0,6308370.0,0.0
1582915140151,5636035.0,6255362.0,0.0
1582915140204,5604457.0,6243116.0,0.0
1582915140253,5585282.0,6232307.0,0.0
1582915140301,5574869.0,6225635.0,0.0
1582915140350,5568258.0,6207205.0,0.0
1582915140398,5577681.0,6203587.0,0.0
1582915140441,5609528.0,6161761.0,0.0
1582915140497,5612409.0,6147685.0,0.0
1582915140543,5618340.0,6146316.0,0.0
1582915140595,5609658.0,6159613.0,0.0
1582915140644,5626942.0,6194620.0,0.0
1582915140685,5629602.0,6232387.0,0.0
1582915140740,5632893.0,6257363.0,0.0
1582915140782,5707223.0,6325591.0,0.0
1582915140838,5796284.0,6371384.0,0.0
1582915140881,5639736.0,6180171.0,0.0
1582915140935,5617481.0,6123375.0,0.0
1582915140981,5593545.0,6119497.0,0.0
1582915141026,5578841.0,6128599.0,0.0
1582915141076,5562317.0,6119440.0,0.0
1582915141125,5546823.0,6094224.0,0.0
1582915141175,5570828.0,6164577.0,0.0
1582915141224,5584241.0,6117189.0,0.0
1582915141273,5588104.0,6064757.0,0.0
1582915141322,5591875.0,6021938.0,0.0
1582915141376,5592244.0,6037554.0,0.0
1582915141422,5599746.0,6084002.0,0.0
1582915141471,5618011.0,6150603.0,0.0
1582915141520,5725576.0,6241308.0,0.0
1582915141569,5769547.0,6332036.0,0.0
1582915141618,5753392.0,6286581.0,0.0
1582915141662,5620961.0,6116002.0,0.0
1582915141715,5597785.0,6056923.0,0.0
1582915141762,5577291.0,6048081.0,0.0
1582915141814,5565958.0,6045332.0,0.0
1582915141862,5555915.0,6036049.0,0.0
1582915141912,5553154.0,6037711.0,0.0
1582915141955,5582151.0,6118387.0,0.0
1582915142007,5580080.0,6088876.0,0.0
1582915142054,5572199.0,5986931.0,0.0
1582915142103,5558286.0,5908992.0,0.0
1582915142151,5553525.0,5887181.0,0.0
1582915142199,5547582.0,5899731.0,0.0
1582915142252,5544413.0,5932308.0,0.0
1582915142300,5567638.0,6005701.0,0.0
1582915142349,5604687.0,6056844.0,0.0
1582915142398,5578441.0,6017552.0,0.0
1582915142445,5559637.0,5969304.0,0.0
1582915142495,5531168.0,5909365.0,0.0
1582915142544,5508183.0,5876496.0,0.0
1582915142593,5502082.0,5874143.0,0.0
1582915142643,5489359.0,5856052.0,0.0
1582915142691,5501992.0,5896385.0,0.0
1582915142738,5531828.0,5959501.0,0.0
1582915142782,5539342.0,5971622.0,0.0
1582915142838,5532330.0,5911738.0,0.0
1582915142885,5521846.0,5842472.0,0.0
1582915142934,5522137.0,5805645.0,0.0
1582915142982,5515585.0,5806413.0,0.0
1582915143027,5528348.0,5853452.0,0.0
1582915143074,5598915.0,5981435.0,0.0
1582915143123,5672484.0,6045785.0,0.0
1582915143173,5571210.0,5971362.0,0.0
1582915143224,5550264.0,5924922.0,0.0
1582915143272,5524967.0,5883800.0,0.0
1582915143320,5511755.0,5829390.0,0.0
1582915143374,5487398.0,5780124.0,0.0
1582915143422,5466152.0,5757511.0,0.0
1582915143472,5494570.0,5831300.0,0.0
1582915143519,5498010.0,5841375.0,0.0
1582915143563,5511115.0,5873601.0,0.0
1582915143618,5501811.0,5833358.0,0.0
1582915143665,5506722.0,5812825.0,0.0
1582915143715,5500042.0,5744688.0,0.0
1582915143763,5496189.0,5738447.0,0.0
1582915143813,5495011.0,5762338.0,0.0
1582915143861,5528848.0,5862767.0,0.0
1582915143909,5611859.0,5932330.0,0.0
1582915143959,5523218.0,5848996.0,0.0
1582915144007,5502732.0,5832827.0,0.0
1582915144058,5475805.0,5820604.0,0.0
1582915144106,5470045.0,5806606.0,0.0
1582915144154,5455930.0,5752681.0,0.0
1582915144202,5436316.0,5719237.0,0.0
1582915144246,5465033.0,5790234.0,0.0
1582915144300,5470785.0,5796701.0,0.0
1582915144346,5476376.0,5802071.0,0.0
1582915144398,5470535.0,5767619.0,0.0
1582915144447,5474836.0,5760280.0,0.0
1582915144496,5471353.0,5723249.0,0.0
1582915144543,5465923.0,5672990.0,0.0
1582915144593,5470474.0,5680792.0,0.0
1582915144641,5477156.0,5735700.0,0.0
1582915144689,5508033.0,5750070.0,0.0
1582915144739,5461512.0,5733211.0,0.0
1582915144786,5442297.0,5733697.0,0.0
1582915144837,5429164.0,5748973.0,0.0
1582915144885,5419463.0,5754164.0,0.0
1582915144934,5404818.0,5695603.0,0.0
1582915144982,5415980.0,5664814.0,0.0
1582915145032,5444217.0,5734115.0,0.0
1582915145080,5453710.0,5728881.0,0.0
1582915145127,5460502.0,5723792.0,0.0
1582915145178,5481376.0,5736604.0,0.0
1582915145227,5494810.0,5778655.0,0.0
1582915145276,5529199.0,5840312.0,0.0
1582915145324,5554816.0,5840481.0,0.0
1582915145372,5602917.0,5830180.0,0.0
1582915145421,5607417.0,5820231.0,0.0
1582915145465,5580990.0,5792404.0,0.0
1582915145519,5535620.0,5801597.0,0.0
1582915145568,5514284.0,5812055.0,0.0
1582915145617,5497981.0,5833031.0,0.0
1582915145666,5485348.0,5831277.0,0.0
1582915145715,5480366.0,5807691.0,0.0
1582915145763,5515075.0,5828010.0,0.0
1582915145806,5564708.0,5823973.0,0.0
1582915145861,5541701.0,5805838.0,0.0
1582915145911,5558895.0,5805112.0,0.0
1582915145954,5555866.0,5820072.0,0.0
1582915146000,5581832.0,5875139.0,0.0
1582915146049,5589812.0,5920050.0,0.0
1582915146099,5612328.0,5948125.0,0.0
1582915146146,5628092.0,5933348.0,0.0
1582915146201,5623521.0,5856018.0,0.0
1582915146251,5573059.0,5827976.0,0.0
1582915146298,5548023.0,5822695.0,0.0
1582915146347,5516225.0,5822866.0,0.0
1582915146397,5502413.0,5833506.0,0.0
1582915146445,5487498.0,5821576.0,0.0
1582915146496,5472434.0,5808550.0,0.0
1582915146542,5497130.0,5854344.0,0.0
1582915146590,5496059.0,5767868.0,0.0
1582915146640,5467654.0,5710620.0,0.0
1582915146682,5456581.0,5664148.0,0.0
1582915146738,5444177.0,5672921.0,0.0
1582915146786,5443228.0,5693196.0,0.0
1582915146836,5441387.0,5719757.0,0.0
1582915146883,5473745.0,5747210.0,0.0
1582915146933,5479686.0,5737112.0,0.0
1582915146981,5459051.0,5668603.0,0.0
1582915147029,5418311.0,5608742.0,0.0
1582915147072,5371639.0,5577762.0,0.0
1582915147127,5354556.0,5602411.0,0.0
1582915147173,5345613.0,5620400.0,0.0
1582915147221,5335042.0,5643873.0,0.0
1582915147272,5360717.0,5722323.0,0.0
1582915147318,5358886.0,5731153.0,0.0
1582915147368,5365719.0,5730813.0,0.0
1582915147420,5338882.0,5616975.0,0.0
1582915147469,5327278.0,5553292.0,0.0
1582915147518,5308604.0,5536219.0,0.0
1582915147566,5282919.0,5525239.0,0.0
1582915147611,5261433.0,5508788.0,0.0
1582915147664,5263833.0,5519337.0,0.0
1582915147708,5216973.0,5478383.0,0.0
1582915147762,5207330.0,5482871.0,0.0
1582915147810,5192157.0,5445581.0,0.0
1582915147859,5162138.0,5407589.0,0.0
1582915147908,5138793.0,5393637.0,0.0
1582915147953,5112567.0,5392312.0,0.0
1582915148006,5104256.0,5414544.0,0.0
1582915148051,5123860.0,5459693.0,0.0
1582915148102,5123740.0,5472107.0,0.0
1582915148151,5121848.0,5454807.0,0.0
1582915148200,5101474.0,5374323.0,0.0
1582915148249,5080980.0,5294496.0,0.0
1582915148298,5051853.0,5258550.0,0.0
1582915148346,5015113.0,5224742.0,0.0
1582915148395,4998458.0,5247593.0,0.0
1582915148445,4985425.0,5237564.0,0.0
1582915148492,4962590.0,5231831.0,0.0
1582915148541,4953758.0,5224437.0,0.0
1582915148591,4933274.0,5216217.0,0.0
1582915148640,4929103.0,5177366.0,0.0
1582915148688,4904116.0,5146418.0,0.0
1582915148736,4885282.0,5136321.0,0.0
1582915148785,4855564.0,5152128.0,0.0
1582915148831,4846291.0,5132239.0,0.0
1582915148876,4850673.0,5124675.0,0.0
1582915148929,4807783.0,5075510.0,0.0
1582915148974,4798309.0,5074245.0,0.0
1582915149023,4771754.0,5019485.0,0.0
1582915149075,4744766.0,4963819.0,0.0
1582915149122,4701956.0,4922152.0,0.0
1582915149171,4665947.0,4914214.0,0.0
1582915149224,4689403.0,4917697.0,0.0
1582915149272,4742247.0,5001031.0,0.0
1582915149322,4773274.0,5052919.0,0.0
1582915149373,4828328.0,5161953.0,0.0
1582915149420,4872748.0,5210597.0,0.0
1582915149468,4925870.0,5231831.0,0.0
1582915149516,4995878.0,5281810.0,0.0
1582915149567,5062444.0,5366115.0,0.0
1582915149612,5093782.0,5454128.0,0.0
1582915149664,5122119.0,5521497.0,0.0
1582915149713,5148495.0,5595152.0,0.0
1582915149761,5174111.0,5639657.0,0.0
1582915149809,5194686.0,5687982.0,0.0
1582915149858,5195956.0,5695705.0,0.0
1582915149907,5205810.0,5701178.0,0.0
1582915149956,5198338.0,5667697.0,0.0
1582915150004,5168861.0,5608811.0,0.0
1582915150059,5142194.0,5545378.0,0.0
1582915150102,5135492.0,5528960.0,0.0
1582915150152,5126111.0,5521395.0,0.0
1582915150195,5095702.0,5502252.0,0.0
1582915150248,5083619.0,5481707.0,0.0
1582915150294,5082689.0,5433742.0,0.0
1582915150346,5058844.0,5378293.0,0.0
1582915150398,5048370.0,5352829.0,0.0
1582915150443,5050262.0,5339960.0,0.0
1582915150496,5080618.0,5394801.0,0.0
1582915150540,5094192.0,5444065.0,0.0
1582915150589,5135073.0,5473928.0,0.0
1582915150634,5149925.0,5511186.0,0.0
1582915150687,5173963.0,5458438.0,0.0
1582915150738,5143474.0,5426472.0,0.0
1582915150784,5110666.0,5378304.0,0.0
1582915150840,5078629.0,5366905.0,0.0
1582915150881,5064326.0,5389080.0,0.0
1582915150932,5056243.0,5398747.0,0.0
1582915150980,5028547.0,5387349.0,0.0
1582915151029,5055833.0,5461762.0,0.0
1582915151073,5056723.0,5441905.0,0.0
1582915151126,5051682.0,5384986.0,0.0
1582915151180,5007502.0,5294258.0,0.0
1582915151224,4991546.0,5265946.0,0.0
1582915151275,4985276.0,5269552.0,0.0
1582915151321,4977314.0,5279288.0,0.0
1582915151370,4970642.0,5279038.0,0.0
1582915151414,4981245.0,5297718.0,0.0
1582915151467,4964691.0,5260326.0,0.0
1582915151518,4953577.0,5219687.0,0.0
1582915151565,4906926.0,5155362.0,0.0
1582915151614,4866167.0,5140945.0,0.0
1582915151657,4853843.0,5151563.0,0.0
1582915151712,4829687.0,5146000.0,0.0
1582915151757,4805402.0,5150827.0,0.0
1582915151809,4842361.0,5189339.0,0.0
1582915151855,4820486.0,5172175.0,0.0
1582915151907,4817064.0,5127489.0,0.0
1582915151957,4795859.0,5048114.0,0.0
1582915152004,4771953.0,5001766.0,0.0
1582915152054,4744978.0,4986569.0,0.0
1582915152102,4719260.0,4975725.0,0.0
1582915152151,4731014.0,5020513.0,0.0
1582915152195,4735085.0,5014928.0,0.0
1582915152248,4741916.0,5021100.0,0.0
1582915152297,4715160.0,4994903.0,0.0
1582915152345,4687504.0,4974358.0,0.0
1582915152395,4672369.0,4958301.0,0.0
1582915152443,4656906.0,4947401.0,0.0
1582915152493,4627098.0,4943116.0,0.0
1582915152534,4646523.0,4972458.0,0.0
1582915152589,4638630.0,4979401.0,0.0
1582915152632,4654644.0,4978586.0,0.0
1582915152681,4631700.0,4937169.0,0.0
1582915152736,4627837.0,4899888.0,0.0
1582915152779,4599682.0,4821485.0,0.0
1582915152835,4562923.0,4776019.0,0.0
1582915152878,4548839.0,4770513.0,0.0
1582915152931,4552791.0,4782441.0,0.0
1582915152980,4540777.0,4783481.0,0.0
1582915153030,4517402.0,4763028.0,0.0
1582915153075,4489705.0,4744834.0,0.0
1582915153127,4489774.0,4759342.0,0.0
1582915153175,4496237.0,4749086.0,0.0
1582915153224,4462638.0,4723996.0,0.0
1582915153274,4470940.0,4743082.0,0.0
1582915153320,4473681.0,4747853.0,0.0
1582915153371,4484894.0,4751687.0,0.0
1582915153415,4464908.0,4713232.0,0.0
1582915153468,4453436.0,4697254.0,0.0
1582915153519,4452116.0,4699142.0,0.0
1582915153565,4435801.0,4678846.0,0.0
1582915153616,4416247.0,4622955.0,0.0
1582915153657,4422528.0,4652568.0,0.0
1582915153712,4389201.0,4604785.0,0.0
1582915153759,4376677.0,4590876.0,0.0
1582915153810,4359293.0,4574866.0,0.0
1582915153860,4368745.0,4585291.0,0.0
1582915153906,4376126.0,4607374.0,0.0
1582915153950,4376287.0,4613266.0,0.0
1582915153999,4375736.0,4621563.0,0.0
1582915154051,4390540.0,4613786.0,0.0
1582915154098,4377868.0,4591941.0,0.0
1582915154148,4366884.0,4563356.0,0.0
1582915154194,4371425.0,4546700.0,0.0
1582915154245,4364905.0,4563547.0,0.0
1582915154297,4360194.0,4569211.0,0.0
1582915154345,4340347.0,4572119.0,0.0
1582915154395,4387770.0,4570378.0,0.0
1582915154443,4364554.0,4524290.0,0.0
1582915154492,4349291.0,4500193.0,0.0
1582915154537,4331125.0,4493013.0,0.0
1582915154589,4322173.0,4497649.0,0.0
1582915154639,4322255.0,4512168.0,0.0
1582915154687,4312031.0,4535710.0,0.0
1582915154736,4335378.0,4578608.0,0.0
1582915154784,4378778.0,4609375.0,0.0
1582915154834,4381988.0,4573486.0,0.0
1582915154877,4355961.0,4506244.0,0.0
1582915154931,4356992.0,4498340.0,0.0
1582915154979,4333236.0,4500668.0,0.0
1582915155028,4318553.0,4508854.0,0.0
1582915155078,4323344.0,4513231.0,0.0
1582915155126,4387271.0,4587564.0,0.0
1582915155173,4414317.0,4586388.0,0.0
1582915155221,4414917.0,4544213.0,0.0
1582915155272,4387279.0,4509149.0,0.0
1582915155318,4372616.0,4515311.0,0.0
1582915155370,4365734.0,4519123.0,0.0
1582915155418,4349391.0,4522999.0,0.0
1582915155468,4335987.0,4527648.0,0.0
1582915155516,4403734.0,4599866.0,0.0
1582915155565,4414277.0,4602217.0,0.0
1582915155615,4417877.0,4594123.0,0.0
1582915155658,4399892.0,4533154.0,0.0
1582915155712,4401273.0,4513751.0,0.0
1582915155761,4382789.0,4525374.0,0.0
1582915155808,4383979.0,4563435.0,0.0
1582915155858,4438032.0,4618376.0,0.0
1582915155899,4497987.0,4711954.0,0.0
1582915155956,4474372.0,4705056.0,0.0
1582915155998,4481052.0,4675884.0,0.0
1582915156052,4470460.0,4644677.0,0.0
1582915156099,4460877.0,4633425.0,0.0
1582915156150,4451896.0,4629932.0,0.0
1582915156199,4428730.0,4622445.0,0.0
1582915156247,4472330.0,4673645.0,0.0
1582915156296,4509049.0,4707510.0,0.0
1582915156342,4527575.0,4751256.0,0.0
1582915156395,4552039.0,4759647.0,0.0
1582915156440,4565182.0,4734533.0,0.0
1582915156491,4546249.0,4710946.0,0.0
1582915156540,4532404.0,4730825.0,0.0
1582915156588,4523773.0,4748147.0,0.0
1582915156638,4534635.0,4819823.0,0.0
1582915156686,4564374.0,4843511.0,0.0
1582915156734,4548370.0,4791318.0,0.0
1582915156778,4533054.0,4750364.0,0.0
1582915156828,4523233.0,4746666.0,0.0
1582915156878,4529704.0,4726844.0,0.0
1582915156926,4506339.0,4683991.0,0.0
1582915156974,4467539.0,4658165.0,0.0
1582915157028,4532394.0,4727161.0,0.0
1582915157076,4583978.0,4770535.0,0.0
1582915157123,4625359.0,4850454.0,0.0
1582915157175,4677361.0,4881164.0,0.0
1582915157219,4717689.0,4890414.0,0.0
1582915157271,4722911.0,4886920.0,0.0
1582915157319,4725892.0,4895876.0,0.0
1582915157368,4731985.0,4930700.0,0.0
1582915157411,4763452.0,5009930.0,0.0
1582915157461,4778776.0,5060652.0,0.0
1582915157511,4779046.0,5011128.0,0.0
1582915157560,4768914.0,4986772.0,0.0
1582915157608,4737194.0,4961625.0,0.0
1582915157663,4717001.0,4959376.0,0.0
1582915157703,4706297.0,4937790.0,0.0
1582915157759,4691265.0,4907522.0,0.0
1582915157807,4715020.0,4931594.0,0.0
1582915157855,4710469.0,4930474.0,0.0
1582915157899,4690023.0,4916894.0,0.0
1582915157954,4671049.0,4874278.0,0.0
1582915158001,4662777.0,4847016.0,0.0
1582915158051,4642572.0,4831073.0,0.0
1582915158099,4617786.0,4783437.0,0.0
1582915158148,4581546.0,4741465.0,0.0
1582915158197,4610375.0,4745423.0,0.0
1582915158245,4614956.0,4727275.0,0.0
1582915158295,4606724.0,4735087.0,0.0
1582915158341,4584228.0,4731107.0,0.0
1582915158393,4577645.0,4739543.0,0.0
1582915158440,4577706.0,4761274.0,0.0
1582915158491,4568525.0,4758458.0,0.0
1582915158539,4542878.0,4734510.0,0.0
1582915158588,4583757.0,4780474.0,0.0
1582915158637,4580636.0,4766364.0,0.0
1582915158680,4579366.0,4759013.0,0.0
1582915158736,4565343.0,4726958.0,0.0
1582915158783,4548018.0,4712011.0,0.0
1582915158833,4547888.0,4724494.0,0.0
1582915158881,4563053.0,4749470.0,0.0
1582915158930,4535247.0,4687530.0,0.0
1582915158974,4542128.0,4657091.0,0.0
1582915159028,4513330.0,4628134.0,0.0
1582915159077,4482653.0,4622943.0,0.0
1582915159120,4449084.0,4602626.0,0.0
1582915159175,4440622.0,4614395.0,0.0
1582915159222,4436711.0,4624550.0,0.0
1582915159273,4428960.0,4637395.0,0.0
1582915159320,4431240.0,4638232.0,0.0
1582915159364,4441532.0,4626551.0,0.0
1582915159412,4422257.0,4596394.0,0.0
1582915159461,4368605.0,4555203.0,0.0
1582915159511,4358763.0,4545015.0,0.0
1582915159560,4305410.0,4537632.0,0.0
1582915159615,4222059.0,4499232.0,0.0
1582915159662,4197453.0,4474437.0,0.0
1582915159704,4214127.0,4454434.0,0.0
1582915159760,4210897.0,4407905.0,0.0
1582915159809,4207036.0,4369970.0,0.0
1582915159859,4178419.0,4348826.0,0.0
1582915159905,4178598.0,4365956.0,0.0
1582915159956,4197274.0,4395140.0,0.0
1582915160002,4190171.0,4407984.0,0.0
1582915160055,4195033.0,4418228.0,0.0
1582915160102,4217888.0,4425545.0,0.0
1582915160152,4235123.0,4385936.0,0.0
1582915160199,4190102.0,4322820.0,0.0
1582915160249,4171357.0,4297264.0,0.0
1582915160297,4159644.0,4318218.0,0.0
1582915160342,4133977.0,4340888.0,0.0
1582915160397,4135098.0,4367063.0,0.0
1582915160443,4174539.0,4452874.0,0.0
1582915160495,4267950.0,4516736.0,0.0
1582915160541,4225491.0,4427851.0,0.0
1582915160591,4191351.0,4353292.0,0.0
1582915160640,4146312.0,4325906.0,0.0
1582915160682,4131187.0,4340096.0,0.0
1582915160737,4120084.0,4347503.0,0.0
1582915160783,4109112.0,4346384.0,0.0
1582915160835,4174827.0,4415628.0,0.0
1582915160878,4251416.0,4449221.0,0.0
1582915160933,4251166.0,4414780.0,0.0
1582915160976,4226050.0,4368420.0,0.0
1582915161029,4212156.0,4356345.0,0.0
1582915161079,4207725.0,4368331.0,0.0
1582915161122,4186851.0,4400906.0,0.0
1582915161177,4190793.0,4436614.0,0.0
1582915161225,4248295.0,4514464.0,0.0
1582915161273,4300718.0,4520785.0,0.0
1582915161321,4288495.0,4510608.0,0.0
1582915161372,4259949.0,4484715.0,0.0
1582915161420,4227130.0,4459838.0,0.0
1582915161468,4205826.0,4442154.0,0.0
1582915161517,4180729.0,4422684.0,0.0
1582915161564,4170727.0,4430553.0,0.0
1582915161617,4247025.0,4513412.0,0.0
1582915161663,4268101.0,4533449.0,0.0
1582915161713,4283834.0,4551720.0,0.0
1582915161761,4291386.0,4508968.0,0.0
1582915161805,4283485.0,4478303.0,0.0
1582915161854,4264771.0,4485122.0,0.0
1582915161904,4270232.0,4521620.0,0.0
1582915161954,4290066.0,4574368.0,0.0
1582915162002,4319213.0,4676211.0,0.0
1582915162050,4317643.0,4657284.0,0.0
1582915162102,4325284.0,4629514.0,0.0
1582915162153,4294586.0,4608030.0,0.0
1582915162200,4301348.0,4611082.0,0.0
1582915162243,4305741.0,4609601.0,0.0
1582915162298,4285565.0,4592924.0,0.0
1582915162348,4296348.0,4609375.0,0.0
1582915162394,4402123.0,4707419.0,0.0
1582915162443,4402622.0,4703790.0,0.0
1582915162494,4421908.0,4723407.0,0.0
1582915162541,4443054.0,4721225.0,0.0
1582915162589,4450604.0,4717844.0,0.0
1582915162638,4452825.0,4740130.0,0.0
1582915162690,4422629.0,4749153.0,0.0
1582915162737,4457157.0,4771360.0,0.0
1582915162785,4465550.0,4790446.0,0.0
1582915162834,4472480.0,4785371.0,0.0
1582915162882,4466070.0,4784725.0,0.0
1582915162932,4442134.0,4778077.0,0.0
1582915162976,4432930.0,4766216.0,0.0
1582915163026,4421989.0,4745626.0,0.0
1582915163074,4382748.0,4717754.0,0.0
1582915163124,4402744.0,4754604.0,0.0
1582915163173,4460357.0,4795276.0,0.0
1582915163224,4449395.0,4791013.0,0.0
1582915163275,4463378.0,4791600.0,0.0
1582915163322,4466970.0,4785121.0,0.0
1582915163367,4456407.0,4763808.0,0.0
1582915163419,4436033.0,4769812.0,0.0
1582915163467,4426829.0,4800997.0,0.0
1582915163517,4472710.0,4890910.0,0.0
1582915163565,4550349.0,4949199.0,0.0
1582915163615,4509639.0,4915742.0,0.0
1582915163664,4524054.0,4894551.0,0.0
1582915163714,4501538.0,4886467.0,0.0
1582915163761,4485983.0,4882566.0,0.0
1582915163807,4478331.0,4881458.0,0.0
1582915163858,4473201.0,4877862.0,0.0
1582915163907,4471881.0,4900183.0,0.0
1582915163950,4522792.0,4922774.0,0.0
1582915164003,4555881.0,4938752.0,0.0
1582915164055,4559002.0,4919361.0,0.0
1582915164102,4573586.0,4931006.0,0.0
1582915164145,4588489.0,4960223.0,0.0
1582915164199,4605393.0,5011896.0,0.0
1582915164251,4619767.0,5073182.0,0.0
1582915164292,4683093.0,5165324.0,0.0
1582915164346,4719101.0,5242516.0,0.0
1582915164394,4703108.0,5177331.0,0.0
1582915164442,4722322.0,5146983.0,0.0
1582915164493,4701387.0,5132375.0,0.0
1582915164536,4692994.0,5128078.0,0.0
1582915164590,4687662.0,5119845.0,0.0
1582915164638,4676020.0,5097140.0,0.0
1582915164690,4701596.0,5120422.0,0.0
1582915164736,4761492.0,5137903.0,0.0
1582915164783,4777665.0,5150069.0,0.0
1582915164835,4778965.0,5141205.0,0.0
1582915164882,4781935.0,5138074.0,0.0
1582915164925,4776805.0,5135721.0,0.0
1582915164975,4776515.0,5140538.0,0.0
1582915165028,4771514.0,5145049.0,0.0
1582915165077,4796229.0,5199526.0,0.0
1582915165125,4836920.0,5265290.0,0.0
1582915165175,4823917.0,5230124.0,0.0
1582915165223,4811383.0,5208685.0,0.0
1582915165272,4767132.0,5190176.0,0.0
1582915165320,4751949.0,5187429.0,0.0
1582915165367,4747938.0,5183053.0,0.0
1582915165418,4728242.0,5142708.0,0.0
1582915165468,4731985.0,5139486.0,0.0
1582915165517,4783217.0,5189124.0,0.0
1582915165565,4797559.0,5183211.0,0.0
1582915165615,4810333.0,5209307.0,0.0
1582915165662,4828097.0,5202444.0,0.0
1582915165710,4817505.0,5219348.0,0.0
1582915165760,4819356.0,5230238.0,0.0
1582915165809,4804681.0,5220851.0,0.0
1582915165858,4853024.0,5271361.0,0.0
1582915165906,4893793.0,5312700.0,0.0
1582915165954,4887243.0,5281651.0,0.0
1582915166002,4860535.0,5263038.0,0.0
1582915166051,4833659.0,5253619.0,0.0
1582915166101,4810203.0,5245163.0,0.0
1582915166151,4805741.0,5250771.0,0.0
1582915166198,4790897.0,5227796.0,0.0
1582915166248,4794298.0,5222662.0,0.0
1582915166291,4860056.0,5278925.0,0.0
1582915166344,4846742.0,5261525.0,0.0
1582915166390,4846492.0,5251777.0,0.0
1582915166442,4849753.0,5244700.0,0.0
1582915166493,4870818.0,5253248.0,0.0
1582915166540,4872259.0,5269461.0,0.0
1582915166588,4881891.0,5270117.0,0.0
1582915166638,4899596.0,5286241.0,0.0
1582915166679,4980205.0,5343579.0,0.0
1582915166735,4905827.0,5307804.0,0.0
1582915166784,4926520.0,5287903.0,0.0
1582915166829,4902846.0,5294632.0,0.0
1582915166874,4888722.0,5314102.0,0.0
1582915166926,4883921.0,5312723.0,0.0
1582915166973,4871489.0,5293602.0,0.0
1582915167023,4901585.0,5322628.0,0.0
1582915167073,4953278.0,5335326.0,0.0
1582915167120,4955239.0,5344530.0,0.0
1582915167170,4974023.0,5352649.0,0.0
1582915167222,5018024.0,5403859.0,0.0
1582915167271,5021155.0,5435066.0,0.0
1582915167319,5015783.0,5469868.0,0.0
1582915167369,4988907.0,5466522.0,0.0
1582915167418,4991768.0,5455983.0,0.0
1582915167459,5016324.0,5453056.0,0.0
1582915167514,5006281.0,5411671.0,0.0
1582915167559,4999369.0,5398239.0,0.0
1582915167610,4972472.0,5378620.0,0.0
1582915167654,4953177.0,5366318.0,0.0
1582915167710,4945347.0,5373273.0,0.0
1582915167758,4937894.0,5368104.0,0.0
1582915167806,4937453.0,5360235.0,0.0
1582915167850,5029556.0,5442913.0,0.0
1582915167904,5040329.0,5428146.0,0.0
1582915167952,5065955.0,5457227.0,0.0
1582915168001,5097364.0,5463808.0,0.0
1582915168046,5098942.0,5467607.0,0.0
1582915168095,5104284.0,5499414.0,0.0
1582915168144,5115326.0,5546146.0,0.0
1582915168195,5163280.0,5607736.0,0.0
1582915168240,5210430.0,5664950.0,0.0
1582915168295,5218653.0,5697515.0,0.0
1582915168342,5216682.0,5642731.0,0.0
1582915168393,5172992.0,5617393.0,0.0
1582915168440,5149356.0,5609285.0,0.0
1582915168489,5133903.0,5611637.0,0.0
1582915168533,5117947.0,5590584.0,0.0
1582915168583,5117659.0,5583731.0,0.0
1582915168632,5165440.0,5651551.0,0.0
1582915168680,5243578.0,5663707.0,0.0
1582915168733,5249180.0,5666409.0,0.0
1582915168782,5246880.0,5673567.0,0.0
1582915168830,5230136.0,5661253.0,0.0
1582915168874,5214071.0,5662587.0,0.0
1582915168923,5208230.0,5671531.0,0.0
1582915168975,5257352.0,5709862.0,0.0
1582915169025,5348904.0,5800557.0,0.0
1582915169078,5338792.0,5868082.0,0.0
1582915169122,5360288.0,5838707.0,0.0
1582915169172,5313747.0,5781922.0,0.0
1582915169216,5280227.0,5751799.0,0.0
1582915169270,5251911.0,5737429.0,0.0
1582915169313,5238048.0,5731492.0,0.0
1582915169367,5225874.0,5722063.0,0.0
1582915169417,5270146.0,5729649.0,0.0
1582915169464,5322138.0,5758472.0,0.0
1582915169514,5339562.0,5780713.0,0.0
1582915169562,5336602.0,5784263.0,0.0
1582915169610,5315096.0,5769191.0,0.0
1582915169654,5306335.0,5775353.0,0.0
1582915169708,5313166.0,5779334.0,0.0
1582915169757,5309104.0,5795537.0,0.0
1582915169805,5454390.0,5955000.0,0.0
1582915169860,5569277.0,6152445.0,0.0
1582915169903,5505383.0,6182905.0,0.0
1582915169952,5493109.0,6134410.0,0.0
1582915170000,5450349.0,6102072.0,0.0
1582915170049,5424404.0,6096577.0,0.0
1582915170093,5415470.0,6103870.0,0.0
1582915170146,5401157.0,6094994.0,0.0
1582915170198,5420692.0,6093184.0,0.0
1582915170237,5470724.0,6117223.0,0.0
1582915170294,5579792.0,6227502.0,0.0
1582915170341,5608218.0,6240731.0,0.0
1582915170390,5561656.0,6224020.0,0.0
1582915170434,5538580.0,6207227.0,0.0
1582915170487,5537761.0,6215188.0,0.0
1582915170537,5551685.0,6236491.0,0.0
1582915170584,5565007.0,6266071.0,0.0
1582915170633,5554234.0,6296204.0,0.0
1582915170683,5471374.0,6295560.0,0.0
1582915170732,5554234.0,6262452.0,0.0
1582915170776,5525087.0,6233687.0,0.0
1582915170829,5476715.0,6222380.0,0.0
1582915170873,5459541.0,6220944.0,0.0
1582915170921,5449809.0,6218455.0,0.0
1582915170974,5451749.0,6199606.0,0.0
1582915171024,5472065.0,6210858.0,0.0
1582915171068,5571539.0,6244857.0,0.0
1582915171115,5632123.0,6301982.0,0.0
1582915171165,5577130.0,6301303.0,0.0
1582915171214,5524378.0,6283042.0,0.0
1582915171269,5509603.0,6269937.0,0.0
1582915171315,5512925.0,6271171.0,0.0
1582915171366,5509463.0,6261739.0,0.0
1582915171415,5566707.0,6273172.0,0.0
1582915171464,5681976.0,6391602.0,0.0
1582915171513,5618720.0,6370525.0,0.0
1582915171560,5553594.0,6277672.0,0.0
1582915171611,5486549.0,6230418.0,0.0
1582915171656,5452980.0,6189171.0,0.0
1582915171703,5432214.0,6175420.0,0.0
1582915171756,5419491.0,6160304.0,0.0
1582915171805,5410881.0,6118444.0,0.0
1582915171848,5421933.0,6129617.0,0.0
1582915171898,5427673.0,6104955.0,0.0
1582915171947,5440658.0,6115606.0,0.0
1582915172001,5444559.0,6106177.0,0.0
1582915172050,5450670.0,6097176.0,0.0
1582915172096,5454130.0,6107093.0,0.0
1582915172147,5462172.0,6111242.0,0.0
1582915172200,5485468.0,6093862.0,0.0
1582915172238,5502311.0,6125602.0,0.0
1582915172294,5532170.0,6174212.0,0.0
1582915172342,5481776.0,6095355.0,0.0
1582915172392,5454171.0,6074697.0,0.0
1582915172439,5416161.0,6054672.0,0.0
1582915172488,5397656.0,6060485.0,0.0
1582915172538,5392735.0,6044395.0,0.0
1582915172586,5373340.0,5984784.0,0.0
1582915172636,5407229.0,6020185.0,0.0
1582915172683,5440556.0,6011989.0,0.0
1582915172733,5436795.0,6058325.0,0.0
1582915172782,5465053.0,6059093.0,0.0
1582915172830,5454890.0,6054875.0,0.0
1582915172877,5462011.0,6072064.0,0.0
1582915172922,5464823.0,6100963.0,0.0
1582915172976,5464892.0,6090221.0,0.0
1582915173025,5546652.0,6145852.0,0.0
1582915173068,5557985.0,6243525.0,0.0
1582915173117,5524967.0,6152297.0,0.0
1582915173169,5477636.0,6107081.0,0.0
1582915173217,5439307.0,6093535.0,0.0
1582915173265,5410249.0,6083370.0,0.0
1582915173315,5409129.0,6093389.0,0.0
1582915173366,5404598.0,6059184.0,0.0
1582915173416,5439396.0,6012249.0,0.0
1582915173464,5534029.0,6104525.0,0.0
1582915173512,5535061.0,6095752.0,0.0
1582915173557,5498030.0,6065448.0,0.0
1582915173610,5478046.0,6053599.0,0.0
1582915173658,5458100.0,6051642.0,0.0
1582915173708,5464622.0,6057421.0,0.0
1582915173757,5451849.0,6002094.0,0.0
1582915173805,5481116.0,5992370.0,0.0
1582915173854,5476677.0,6015471.0,0.0
1582915173899,5426883.0,5966533.0,0.0
1582915173949,5392355.0,5930542.0,0.0
1582915173995,5362157.0,5908573.0,0.0
1582915174045,5348994.0,5913378.0,0.0
1582915174094,5336510.0,5919372.0,0.0
1582915174146,5322418.0,5872674.0,0.0
1582915174196,5313696.0,5817415.0,0.0
1582915174237,5345174.0,5871260.0,0.0
1582915174296,5373850.0,5882217.0,0.0
1582915174337,5371030.0,5878812.0,0.0
1582915174390,5380492.0,5874787.0,0.0
1582915174438,5376002.0,5886027.0,0.0
1582915174487,5371389.0,5919439.0,0.0
1582915174536,5382534.0,5911320.0,0.0
1582915174584,5409810.0,5906074.0,0.0
1582915174635,5462562.0,5973443.0,0.0
1582915174677,5440997.0,5947062.0,0.0
1582915174732,5364549.0,5858031.0,0.0
1582915174778,5318627.0,5840052.0,0.0
1582915174828,5307985.0,5857149.0,0.0
1582915174878,5299722.0,5861977.0,0.0
1582915174921,5284528.0,5806368.0,0.0
1582915174976,5241949.0,5718885.0,0.0
1582915175019,5274467.0,5769734.0,0.0
1582915175074,5275997.0,5761818.0,0.0
1582915175117,5262262.0,5752445.0,0.0
1582915175172,5259322.0,5735745.0,0.0
1582915175219,5271655.0,5734952.0,0.0
1582915175267,5274857.0,5753439.0,0.0
1582915175316,5283819.0,5752626.0,0.0
1582915175366,5289660.0,5710189.0,0.0
1582915175414,5304403.0,5720638.0,0.0
1582915175456,5266574.0,5671306.0,0.0
1582915175513,5201609.0,5623509.0,0.0
1582915175559,5159537.0,5600794.0,0.0
1582915175609,5127111.0,5598250.0,0.0
1582915175658,5120239.0,5599370.0,0.0
1582915175707,5102453.0,5563875.0,0.0
1582915175757,5072286.0,5507837.0,0.0
1582915175798,5098904.0,5524154.0,0.0
1582915175854,5092412.0,5506946.0,0.0
1582915175902,5095832.0,5535043.0,0.0
1582915175951,5101015.0,5527931.0,0.0
1582915175998,5114357.0,5532296.0,0.0
1582915176049,5129051.0,5550827.0,0.0
1582915176098,5147485.0,5535711.0,0.0
1582915176147,5136963.0,5507453.0,0.0
1582915176196,5158229.0,5545514.0,0.0
1582915176240,5162459.0,5582193.0,0.0
1582915176295,5114686.0,5507000.0,0.0
1582915176340,5053362.0,5472967.0,0.0
1582915176390,5031428.0,5474492.0,0.0
1582915176439,5020663.0,5481799.0,0.0
1582915176487,5006411.0,5436231.0,0.0
1582915176537,4968232.0,5352988.0,0.0
1582915176583,4981845.0,5388344.0,0.0
1582915176634,5001520.0,5391351.0,0.0
1582915176680,4998489.0,5431413.0,0.0
1582915176732,5006900.0,5427468.0,0.0
1582915176780,5024146.0,5426653.0,0.0
1582915176829,5028746.0,5433843.0,0.0
1582915176877,5039459.0,5437801.0,0.0
1582915176925,5041389.0,5422401.0,0.0
1582915176976,5088331.0,5497039.0,0.0
1582915177019,5092662.0,5544630.0,0.0
1582915177074,5099633.0,5513311.0,0.0
1582915177121,5067245.0,5478631.0,0.0
1582915177171,5051562.0,5470931.0,0.0
1582915177219,5026497.0,5470356.0,0.0
1582915177268,5009473.0,5447740.0,0.0
1582915177317,4977913.0,5369461.0,0.0
1582915177365,4957580.0,5341364.0,0.0
1582915177415,4995789.0,5414804.0,0.0
1582915177461,5008631.0,5421645.0,0.0
1582915177513,5012673.0,5424188.0,0.0
1582915177560,5022484.0,5414011.0,0.0
1582915177610,5012632.0,5402140.0,0.0
1582915177658,5019103.0,5363683.0,0.0
1582915177702,5002989.0,5316398.0,0.0
1582915177756,5079259.0,5429536.0,0.0
1582915177803,5157818.0,5522119.0,0.0
1582915177856,5101145.0,5512293.0,0.0
1582915177902,5018315.0,5426291.0,0.0
1582915177950,4987245.0,5376629.0,0.0
1582915177994,4946106.0,5366861.0,0.0
1582915178049,4928361.0,5351269.0,0.0
1582915178098,4899025.0,5283222.0,0.0
1582915178140,4856313.0,5224911.0,0.0
1582915178195,4883931.0,5268150.0,0.0
1582915178241,4874880.0,5259885.0,0.0
1582915178293,4869477.0,5262801.0,0.0
1582915178340,4859146.0,5241589.0,0.0
1582915178390,4864446.0,5232294.0,0.0
1582915178438,4856464.0,5204740.0,0.0
1582915178486,4826778.0,5147481.0,0.0
1582915178536,4800481.0,5135845.0,0.0
1582915178581,4821526.0,5190718.0,0.0
1582915178637,4862336.0,5190007.0,0.0
1582915178685,4822326.0,5150805.0,0.0
1582915178731,4787437.0,5130961.0,0.0
1582915178779,4762961.0,5110641.0,0.0
1582915178828,4757760.0,5099493.0,0.0
1582915178878,4724772.0,5018309.0,0.0
1582915178922,4671339.0,4955022.0,0.0
1582915178970,4699095.0,4990752.0,0.0
1582915179021,4724012.0,5016917.0,0.0
1582915179070,4721932.0,5029310.0,0.0
1582915179117,4717060.0,5011490.0,0.0
1582915179166,4723191.0,5009546.0,0.0
1582915179219,4724542.0,4977771.0,0.0
1582915179263,4697996.0,4923690.0,0.0
1582915179317,4678121.0,4898917.0,0.0
1582915179362,4686902.0,4906617.0,0.0
1582915179414,4699625.0,4888458.0,0.0
1582915179461,4676900.0,4877647.0,0.0
1582915179511,4657536.0,4849188.0,0.0
1582915179560,4634479.0,4825148.0,0.0
1582915179609,4636470.0,4834364.0,0.0
1582915179657,4610354.0,4781379.0,0.0
1582915179704,4561093.0,4721529.0,0.0
1582915179755,4590240.0,4749041.0,0.0
1582915179803,4644492.0,4801733.0,0.0
1582915179853,4642852.0,4825579.0,0.0
1582915179900,4643612.0,4824492.0,0.0
1582915179950,4670809.0,4834330.0,0.0
1582915179994,4675470.0,4821485.0,0.0
1582915180042,4661057.0,4792336.0,0.0
1582915180096,4655366.0,4793037.0,0.0
1582915180146,4735414.0,4849040.0,0.0
1582915180194,4757150.0,4897922.0,0.0
1582915180242,4740465.0,4864215.0,0.0
1582915180291,4722842.0,4855621.0,0.0
1582915180339,4685732.0,4847571.0,0.0
1582915180387,4671959.0,4835145.0,0.0
1582915180437,4650934.0,4779966.0,0.0
1582915180484,4606012.0,4733628.0,0.0
1582915180536,4614505.0,4745683.0,0.0
1582915180584,4683682.0,4805022.0,0.0
1582915180634,4706968.0,4854095.0,0.0
1582915180680,4716840.0,4853892.0,0.0
1582915180731,4730593.0,4859387.0,0.0
1582915180778,4746587.0,4866702.0,0.0
1582915180827,4741875.0,4843467.0,0.0
1582915180877,4721091.0,4852547.0,0.0
1582915180922,4706048.0,4896757.0,0.0
1582915180968,4725402.0,4932126.0,0.0
1582915181023,4751508.0,4934172.0,0.0
1582915181072,4752469.0,4930440.0,0.0
1582915181120,4730723.0,4917506.0,0.0
1582915181169,4706978.0,4904525.0,0.0
1582915181213,4695535.0,4895118.0,0.0
1582915181265,4678211.0,4872344.0,0.0
1582915181315,4663198.0,4864373.0,0.0
1582915181363,4719640.0,4919507.0,0.0
1582915181414,4783636.0,4968795.0,0.0
1582915181461,4795570.0,4958787.0,0.0
1582915181509,4791779.0,4948408.0,0.0
1582915181559,4790918.0,4945422.0,0.0
1582915181606,4772693.0,4911366.0,0.0
1582915181657,4755370.0,4919824.0,0.0
1582915181706,4731194.0,4934286.0,0.0
1582915181748,4788047.0,4973600.0,0.0
1582915181802,4821735.0,5011027.0,0.0
1582915181850,4811784.0,4973362.0,0.0
1582915181900,4784388.0,4965707.0,0.0
1582915181944,4770102.0,4964317.0,0.0
1582915181994,4762932.0,4936411.0,0.0
1582915182045,4724382.0,4890855.0,0.0
1582915182096,4700426.0,4875046.0,0.0
1582915182144,4755630.0,4921045.0,0.0
1582915182195,4798791.0,4950239.0,0.0
1582915182241,4791149.0,4939125.0,0.0
1582915182289,4798750.0,4938739.0,0.0
1582915182339,4806613.0,4950375.0,0.0
1582915182390,4793870.0,4940017.0,0.0
1582915182438,4763973.0,4942980.0,0.0
1582915182485,4758751.0,4959104.0,0.0
1582915182535,4790349.0,4995173.0,0.0
1582915182582,4824907.0,4996022.0,0.0
1582915182631,4787988.0,4985020.0,0.0
1582915182676,4774154.0,4976132.0,0.0
1582915182728,4775145.0,4973385.0,0.0
1582915182773,4771323.0,4942392.0,0.0
1582915182827,4748168.0,4902771.0,0.0
1582915182875,4722872.0,4883561.0,0.0
1582915182919,4792468.0,4912270.0,0.0
1582915182974,4817605.0,4937699.0,0.0
1582915183021,4793699.0,4919631.0,0.0
1582915183070,4774824.0,4902794.0,0.0
1582915183119,4766482.0,4913231.0,0.0
1582915183167,4743558.0,4894031.0,0.0
1582915183217,4715999.0,4891318.0,0.0
1582915183265,4727123.0,4904163.0,0.0
1582915183308,4775684.0,4989318.0,0.0
1582915183356,4819265.0,4980553.0,0.0
1582915183406,4840510.0,4989283.0,0.0
1582915183454,4833609.0,4994043.0,0.0
1582915183507,4816574.0,5004944.0,0.0
1582915183558,4809553.0,5012394.0,0.0
1582915183607,4803411.0,4992280.0,0.0
1582915183656,4873788.0,5027884.0,0.0
1582915183705,5006171.0,5142426.0,0.0
1582915183755,5046970.0,5185846.0,0.0
1582915183802,5028345.0,5170535.0,0.0
1582915183846,5003650.0,5169529.0,0.0
1582915183899,4974583.0,5177185.0,0.0
1582915183949,4967202.0,5180881.0,0.0
1582915183993,4945166.0,5186694.0,0.0
1582915184047,5029436.0,5279910.0,0.0
1582915184096,4982005.0,5488197.0,0.0
1582915184143,5152617.0,5577138.0,0.0
1582915184195,5110566.0,5456052.0,0.0
1582915184241,5012293.0,5394744.0,0.0
1582915184289,4988787.0,5388852.0,0.0
1582915184339,4967302.0,5349719.0,0.0
1582915184387,4943465.0,5293852.0,0.0
1582915184437,4959569.0,5296123.0,0.0
1582915184484,4970481.0,5287100.0,0.0
1582915184535,4977284.0,5296768.0,0.0
1582915184582,4976924.0,5274821.0,0.0
1582915184631,4971131.0,5272334.0,0.0
1582915184679,4977243.0,5290991.0,0.0
1582915184728,4977123.0,5321463.0,0.0
1582915184778,4984045.0,5332419.0,0.0
1582915184827,5123330.0,5531030.0,0.0
1582915184877,5171072.0,5730962.0,0.0
1582915184919,5280357.0,5738040.0,0.0
1582915184973,5240037.0,5662699.0,0.0
1582915185021,5170062.0,5582782.0,0.0
1582915185068,5126540.0,5565492.0,0.0
1582915185118,5090281.0,5535461.0,0.0
1582915185168,5090592.0,5490334.0,0.0
1582915185217,5176482.0,5529626.0,0.0
1582915185266,5267285.0,5600635.0,0.0
1582915185311,5281058.0,5693466.0,0.0
1582915185362,5272966.0,5707477.0,0.0
1582915185409,5254111.0,5698147.0,0.0
1582915185460,5250511.0,5699494.0,0.0
1582915185510,5240697.0,5704842.0,0.0
1582915185558,5277626.0,5692789.0,0.0
1582915185608,5518435.0,5901031.0,0.0
1582915185657,5613868.0,6083088.0,0.0
1582915185707,5454329.0,5936377.0,0.0
1582915185750,5351614.0,5834737.0,0.0
1582915185803,5311516.0,5754028.0,0.0
1582915185849,5278817.0,5719801.0,0.0
1582915185900,5249060.0,5683222.0,0.0
1582915185950,5226065.0,5605859.0,0.0
1582915185994,5235407.0,5596271.0,0.0
1582915186047,5231095.0,5562225.0,0.0
1582915186097,5212552.0,5549618.0,0.0
1582915186145,5196476.0,5529016.0,0.0
1582915186190,5189146.0,5510891.0,0.0
1582915186242,5170531.0,5496271.0,0.0
1582915186290,5178233.0,5507498.0,0.0
1582915186340,5211710.0,5523781.0,0.0
1582915186390,5250761.0,5588232.0,0.0
1582915186439,5247130.0,5734320.0,0.0
1582915186487,5345223.0,5720366.0,0.0
1582915186536,5282519.0,5666216.0,0.0
1582915186584,5224775.0,5609059.0,0.0
1582915186632,5194457.0,5583947.0,0.0
1582915186681,5178103.0,5560427.0,0.0
1582915186731,5157569.0,5506096.0,0.0
1582915186780,5198187.0,5512915.0,0.0
1582915186829,5242489.0,5532318.0,0.0
1582915186876,5240307.0,5533279.0,0.0
1582915186921,5236906.0,5526970.0,0.0
1582915186972,5220093.0,5520694.0,0.0
1582915187023,5210680.0,5528055.0,0.0
1582915187070,5205810.0,5539283.0,0.0
1582915187121,5207170.0,5526653.0,0.0
1582915187170,5254011.0,5605441.0,0.0
1582915187219,5248270.0,5591308.0,0.0
1582915187266,5185235.0,5529910.0,0.0
1582915187314,5173892.0,5498747.0,0.0
1582915187364,5150205.0,5485620.0,0.0
1582915187412,5127600.0,5485970.0,0.0
1582915187462,5123829.0,5486455.0,0.0
1582915187512,5117037.0,5467676.0,0.0
1582915187560,5135603.0,5467381.0,0.0
1582915187608,5147845.0,5452761.0,0.0
1582915187656,5131241.0,5414001.0,0.0
1582915187707,5115828.0,5394586.0,0.0
1582915187752,5109766.0,5381367.0,0.0
1582915187804,5093382.0,5378710.0,0.0
1582915187854,5102445.0,5403891.0,0.0
1582915187897,5114286.0,5416545.0,0.0
1582915187948,5099863.0,5441363.0,0.0
1582915187993,5089850.0,5397900.0,0.0
1582915188048,5098394.0,5363445.0,0.0
1582915188093,5076717.0,5345345.0,0.0
1582915188145,5046922.0,5324594.0,0.0
1582915188198,5035418.0,5313231.0,0.0
1582915188242,5020564.0,5289374.0,0.0
1582915188292,5007691.0,5246915.0,0.0
1582915188334,5035038.0,5252217.0,0.0
1582915188388,5027185.0,5248757.0,0.0
1582915188432,5029197.0,5241431.0,0.0
