time,value,value2,value3
1583189655933,5619167.0,5451981.0,0.0
1583189655977,5622052.0,5458253.0,0.0
1583189656030,5628678.0,5467865.0,0.0
1583189656079,5634761.0,5474033.0,0.0
1583189656126,5648861.0,5484873.0,0.0
1583189656178,5650647.0,5487380.0,0.0
1583189656219,5635303.0,5449807.0,0.0
1583189656275,5607464.0,5419430.0,0.0
1583189656314,5593411.0,5411577.0,0.0
1583189656370,5584648.0,5401153.0,0.0
1583189656418,5545559.0,5363527.0,0.0
1583189656466,5480214.0,5278778.0,0.0
1583189656517,5436218.0,5220815.0,0.0
1583189656562,5350918.0,5120493.0,0.0
1583189656614,5267516.0,4992896.0,0.0
1583189656679,5210540.0,4917394.0,0.0
1583189656772,5204242.0,4932091.0,0.0
1583189656772,5163117.0,4875741.0,0.0
1583189656840,5137316.0,4806326.0,0.0
1583189656866,5130000.0,4779633.0,0.0
1583189656897,5101901.0,4702998.0,0.0
1583189656946,5022762.0,4572529.0,0.0
1583189656994,4947819.0,4463739.0,0.0
1583189657045,4923906.0,4443818.0,0.0
1583189657092,4920185.0,4423273.0,0.0
1583189657140,4900024.0,4383110.0,0.0
1583189657189,4847707.0,4298526.0,0.0
1583189657239,4769099.0,4213475.0,0.0
1583189657289,4741544.0,4203666.0,0.0
1583189657338,4731424.0,4200825.0,0.0
1583189657385,4691521.0,4196654.0,0.0
1583189657434,4737824.0,4291015.0,0.0
1583189657481,4747503.0,4338909.0,0.0
1583189657532,4746565.0,4332917.0,0.0
1583189657579,4755191.0,4269533.0,0.0
1583189657628,4770253.0,4244713.0,0.0
1583189657675,4742981.0,4188383.0,0.0
1583189657726,4673408.0,4095821.0,0.0
1583189657773,4618331.0,4024513.0,0.0
1583189657823,4596203.0,3992742.0,0.0
1583189657871,4613694.0,4054909.0,0.0
1583189657924,4549764.0,4089839.0,0.0
1583189657973,4551121.0,4183734.0,0.0
1583189658018,4515118.0,4220694.0,0.0
1583189658070,4631255.0,4351069.0,0.0
1583189658118,4639622.0,4352566.0,0.0
1583189658166,4589068.0,4300107.0,0.0
1583189658215,4627183.0,4275681.0,0.0
1583189658260,4611445.0,4210178.0,0.0
1583189658312,4594304.0,4129192.0,0.0
1583189658358,4552059.0,4038192.0,0.0
1583189658409,4527376.0,3980552.0,0.0
1583189658458,4532520.0,3960068.0,0.0
1583189658507,4510088.0,3930339.0,0.0
1583189658549,4429604.0,4007598.0,0.0
1583189658597,4363367.0,4059174.0,0.0
1583189658646,4364621.0,4101772.0,0.0
1583189658698,4473146.0,4190973.0,0.0
1583189658745,4528993.0,4215877.0,0.0
1583189658794,4514259.0,4158935.0,0.0
1583189658842,4518353.0,4119509.0,0.0
1583189658895,4492346.0,4029547.0,0.0
1583189658938,4454603.0,3944880.0,0.0
1583189658992,4422196.0,3885878.0,0.0
1583189659041,4400928.0,3841397.0,0.0
1583189659085,4398904.0,3831535.0,0.0
1583189659138,4394699.0,3824190.0,0.0
1583189659186,4376992.0,3845152.0,0.0
1583189659235,4371927.0,3914059.0,0.0
1583189659278,4366951.0,3942186.0,0.0
1583189659333,4368918.0,3955896.0,0.0
1583189659381,4400770.0,3977898.0,0.0
1583189659429,4415798.0,3989113.0,0.0
1583189659478,4407442.0,3937985.0,0.0
1583189659527,4342007.0,3848283.0,0.0
1583189659576,4334998.0,3806589.0,0.0
1583189659617,4336184.0,3790850.0,0.0
1583189659671,4354627.0,3797103.0,0.0
1583189659720,4351957.0,3767320.0,0.0
1583189659766,4332147.0,3748512.0,0.0
1583189659818,4331469.0,3853557.0,0.0
1583189659867,4327761.0,3927218.0,0.0
1583189659910,4241170.0,3780240.0,0.0
1583189659958,4255463.0,3736279.0,0.0
1583189660012,4286468.0,3811781.0,0.0
1583189660061,4273316.0,3737246.0,0.0
1583189660110,4176934.0,3578150.0,0.0
1583189660158,4146326.0,3516982.0,0.0
1583189660205,4108007.0,3447899.0,0.0
1583189660256,4111229.0,3427874.0,0.0
1583189660301,4094982.0,3402118.0,0.0
1583189660354,4088094.0,3368643.0,0.0
1583189660400,4100126.0,3364502.0,0.0
1583189660449,4103777.0,3347724.0,0.0
1583189660498,4107938.0,3309828.0,0.0
1583189660547,4134771.0,3307158.0,0.0
1583189660595,4115299.0,3273815.0,0.0
1583189660642,4076606.0,3218767.0,0.0
1583189660692,4074424.0,3241041.0,0.0
1583189660740,4121756.0,3312006.0,0.0
1583189660790,4157645.0,3374575.0,0.0
1583189660837,4170626.0,3399060.0,0.0
1583189660882,4164349.0,3429327.0,0.0
1583189660929,4193499.0,3608854.0,0.0
1583189660980,4241895.0,3729623.0,0.0
1583189661027,4295275.0,3809852.0,0.0
1583189661079,4340876.0,3882892.0,0.0
1583189661131,4405396.0,4017444.0,0.0
1583189661178,4372368.0,4038302.0,0.0
1583189661226,4425341.0,4118379.0,0.0
1583189661275,4307961.0,4119281.0,0.0
1583189661321,4263525.0,4090055.0,0.0
1583189661372,4355644.0,4053906.0,0.0
1583189661421,4377173.0,3979552.0,0.0
1583189661470,4503304.0,4062902.0,0.0
1583189661519,4586534.0,4163293.0,0.0
1583189661566,4732068.0,4329927.0,0.0
1583189661616,4788717.0,4401519.0,0.0
1583189661661,4836807.0,4446082.0,0.0
1583189661714,4829830.0,4380454.0,0.0
1583189661756,4750646.0,4202579.0,0.0
1583189661804,4670817.0,4070345.0,0.0
1583189661858,4621033.0,3988356.0,0.0
1583189661903,4576721.0,3929811.0,0.0
1583189661949,4545546.0,3901364.0,0.0
1583189662001,4554942.0,3933750.0,0.0
1583189662047,4563898.0,3960797.0,0.0
1583189662097,4612553.0,4047091.0,0.0
1583189662147,4646700.0,4106408.0,0.0
1583189662192,4694416.0,4182332.0,0.0
1583189662241,4734116.0,4258982.0,0.0
1583189662297,4790741.0,4356077.0,0.0
1583189662348,4819122.0,4421583.0,0.0
1583189662393,4841736.0,4491700.0,0.0
1583189662441,4872752.0,4582670.0,0.0
1583189662490,4903314.0,4687857.0,0.0
1583189662538,4938209.0,4855844.0,0.0
1583189662581,4985563.0,4934192.0,0.0
1583189662636,5019666.0,4990567.0,0.0
1583189662685,5065776.0,5059874.0,0.0
1583189662733,5116420.0,5108896.0,0.0
1583189662781,5161636.0,5152656.0,0.0
1583189662831,5201280.0,5199429.0,0.0
1583189662878,5224901.0,5208291.0,0.0
1583189662922,5223962.0,5226544.0,0.0
1583189662975,5241748.0,5258012.0,0.0
1583189663023,5272141.0,5283809.0,0.0
1583189663073,5286456.0,5302174.0,0.0
1583189663123,5299098.0,5319698.0,0.0
1583189663172,5321213.0,5338053.0,0.0
1583189663219,5337022.0,5354126.0,0.0
1583189663262,5360451.0,5371601.0,0.0
1583189663316,5372413.0,5388194.0,0.0
1583189663367,5389972.0,5396016.0,0.0
1583189663415,5395931.0,5406228.0,0.0
1583189663462,5406142.0,5406108.0,0.0
1583189663512,5414158.0,5416801.0,0.0
1583189663560,5428213.0,5431035.0,0.0
1583189663603,5447696.0,5444358.0,0.0
1583189663657,5464588.0,5452389.0,0.0
1583189663705,5471429.0,5460022.0,0.0
1583189663754,5488707.0,5478166.0,0.0
1583189663802,5506074.0,5484017.0,0.0
1583189663852,5515131.0,5494109.0,0.0
1583189663899,5535087.0,5500602.0,0.0
1583189663948,5536298.0,5504083.0,0.0
1583189663996,5535303.0,5499952.0,0.0
1583189664045,5534906.0,5508433.0,0.0
1583189664090,5540494.0,5515666.0,0.0
1583189664141,5544722.0,5521097.0,0.0
1583189664190,5547570.0,5526349.0,0.0
1583189664239,5552004.0,5533630.0,0.0
1583189664284,5562530.0,5536390.0,0.0
1583189664336,5575352.0,5550023.0,0.0
1583189664378,5588276.0,5561947.0,0.0
1583189664431,5598939.0,5565907.0,0.0
1583189664478,5604571.0,5567148.0,0.0
1583189664527,5602208.0,5567049.0,0.0
1583189664574,5585123.0,5558475.0,0.0
1583189664625,5589871.0,5564596.0,0.0
1583189664676,5588866.0,5570129.0,0.0
1583189664724,5592551.0,5578851.0,0.0
1583189664773,5595253.0,5580611.0,0.0
1583189664821,5603145.0,5581761.0,0.0
1583189664869,5603620.0,5585893.0,0.0
1583189664919,5608177.0,5588614.0,0.0
1583189664966,5619632.0,5602647.0,0.0
1583189665017,5630555.0,5605788.0,0.0
1583189665064,5639226.0,5613498.0,0.0
1583189665114,5625161.0,5601456.0,0.0
1583189665161,5618535.0,5596444.0,0.0
1583189665209,5624573.0,5601576.0,0.0
1583189665258,5629106.0,5611318.0,0.0
1583189665307,5627162.0,5608998.0,0.0
1583189665356,5631469.0,5618190.0,0.0
1583189665404,5634637.0,5628982.0,0.0
1583189665454,5651823.0,5644816.0,0.0
1583189665501,5676212.0,5670103.0,0.0
1583189665547,5708416.0,5695138.0,0.0
1583189665598,5746259.0,5714484.0,0.0
1583189665647,5777105.0,5731718.0,0.0
1583189665696,5799482.0,5736309.0,0.0
1583189665744,5820988.0,5744402.0,0.0
1583189665787,5846383.0,5753012.0,0.0
1583189665841,5858425.0,5754504.0,0.0
1583189665888,5846462.0,5745802.0,0.0
1583189665938,5814905.0,5705132.0,0.0
1583189665987,5775262.0,5659371.0,0.0
1583189666035,5745932.0,5629913.0,0.0
1583189666078,5712599.0,5589203.0,0.0
1583189666129,5683584.0,5571549.0,0.0
1583189666180,5651439.0,5541152.0,0.0
1583189666228,5606312.0,5478987.0,0.0
1583189666278,5531843.0,5355467.0,0.0
1583189666327,5461410.0,5253581.0,0.0
1583189666376,5423928.0,5200479.0,0.0
1583189666424,5402093.0,5163030.0,0.0
1583189666472,5363616.0,5119939.0,0.0
1583189666516,5322402.0,5060593.0,0.0
1583189666568,5284455.0,5028516.0,0.0
1583189666618,5256378.0,4998400.0,0.0
1583189666667,5259467.0,5018164.0,0.0
1583189666717,5264237.0,5030227.0,0.0
1583189666759,5251462.0,5002430.0,0.0
1583189666808,5234748.0,4965810.0,0.0
1583189666860,5182780.0,4890963.0,0.0
1583189666907,5133267.0,4827517.0,0.0
1583189666958,5106198.0,4792949.0,0.0
1583189667007,5084318.0,4769513.0,0.0
1583189667054,5069269.0,4748127.0,0.0
1583189667097,5055815.0,4726513.0,0.0
1583189667151,5037541.0,4698475.0,0.0
1583189667200,5023678.0,4678532.0,0.0
1583189667249,5014645.0,4671949.0,0.0
1583189667297,5009749.0,4667469.0,0.0
1583189667346,5007995.0,4664998.0,0.0
1583189667395,5007713.0,4655106.0,0.0
1583189667443,4974957.0,4616246.0,0.0
1583189667489,4937565.0,4578476.0,0.0
1583189667540,4918692.0,4569463.0,0.0
1583189667588,4919190.0,4577426.0,0.0
1583189667637,4920693.0,4584748.0,0.0
1583189667684,4959252.0,4647673.0,0.0
1583189667731,4989600.0,4719071.0,0.0
1583189667782,5083867.0,4872868.0,0.0
1583189667831,5126528.0,4921790.0,0.0
1583189667876,5107714.0,4881091.0,0.0
1583189667923,5096474.0,4844021.0,0.0
1583189667977,5087949.0,4813043.0,0.0
1583189668020,5068399.0,4767963.0,0.0
1583189668070,5033992.0,4710790.0,0.0
1583189668122,5014972.0,4678450.0,0.0
1583189668169,5007453.0,4669809.0,0.0
1583189668219,5014091.0,4676120.0,0.0
1583189668268,5022210.0,4685372.0,0.0
1583189668317,5022809.0,4697185.0,0.0
1583189668364,5025127.0,4712600.0,0.0
1583189668409,5020446.0,4724061.0,0.0
1583189668461,5019822.0,4731845.0,0.0
1583189668510,5010856.0,4744988.0,0.0
1583189668560,5011490.0,4759870.0,0.0
1583189668608,5008934.0,4763192.0,0.0
1583189668651,4988186.0,4751620.0,0.0
1583189668700,4982623.0,4757571.0,0.0
1583189668750,4984647.0,4763412.0,0.0
1583189668798,4981006.0,4769403.0,0.0
1583189668848,4977716.0,4772784.0,0.0
1583189668895,4966227.0,4766923.0,0.0
1583189668945,4962688.0,4770362.0,0.0
1583189668991,4960788.0,4774513.0,0.0
1583189669045,4977749.0,4802241.0,0.0
1583189669096,5004795.0,4846051.0,0.0
1583189669142,5027478.0,4872567.0,0.0
1583189669191,5035993.0,4904866.0,0.0
1583189669238,5029117.0,4911268.0,0.0
1583189669287,5049459.0,4959719.0,0.0
1583189669331,5091137.0,5026295.0,0.0
1583189669385,5130057.0,5078599.0,0.0
1583189669433,5139317.0,5099243.0,0.0
1583189669478,5116873.0,5075898.0,0.0
1583189669528,5095399.0,5058543.0,0.0
1583189669575,5104774.0,5072987.0,0.0
1583189669623,5113910.0,5095702.0,0.0
1583189669671,5134047.0,5124390.0,0.0
1583189669724,5149561.0,5148546.0,0.0
1583189669777,5140866.0,5142944.0,0.0
1583189669822,5122807.0,5137623.0,0.0
1583189669872,5109839.0,5137452.0,0.0
1583189669914,5126653.0,5161679.0,0.0
1583189669968,5149720.0,5196058.0,0.0
1583189670010,5158347.0,5211861.0,0.0
1583189670064,5170557.0,5231055.0,0.0
1583189670116,5183290.0,5243219.0,0.0
1583189670161,5192200.0,5264644.0,0.0
1583189670211,5196700.0,5270706.0,0.0
1583189670257,5196383.0,5272106.0,0.0
1583189670307,5193795.0,5267935.0,0.0
1583189670351,5161242.0,5238857.0,0.0
1583189670404,5121824.0,5205160.0,0.0
1583189670454,5106322.0,5193906.0,0.0
1583189670502,5093940.0,5183325.0,0.0
1583189670551,5083404.0,5173782.0,0.0
1583189670598,5060315.0,5150856.0,0.0
1583189670647,5040402.0,5134441.0,0.0
1583189670690,5032714.0,5133523.0,0.0
1583189670744,5021541.0,5125930.0,0.0
1583189670795,5020117.0,5126540.0,0.0
1583189670841,5011649.0,5124429.0,0.0
1583189670890,4998192.0,5116359.0,0.0
1583189670937,4939700.0,5041060.0,0.0
1583189670987,4883177.0,4974214.0,0.0
1583189671032,4851799.0,4946366.0,0.0
1583189671079,4839566.0,4942665.0,0.0
1583189671133,4824854.0,4925771.0,0.0
1583189671181,4801416.0,4909137.0,0.0
1583189671231,4779706.0,4885142.0,0.0
1583189671276,4763694.0,4874199.0,0.0
1583189671327,4752806.0,4863256.0,0.0
1583189671373,4742074.0,4850352.0,0.0
1583189671424,4733437.0,4849113.0,0.0
1583189671474,4724675.0,4836640.0,0.0
1583189671521,4683696.0,4780976.0,0.0
1583189671571,4615424.0,4684773.0,0.0
1583189671695,4577422.0,4641062.0,0.0
1583189671695,4559500.0,4624597.0,0.0
1583189671723,4542041.0,4602073.0,0.0
1583189671823,4519009.0,4570085.0,0.0
1583189671823,4494461.0,4537085.0,0.0
1583189671861,4477998.0,4518651.0,0.0
1583189671909,4475522.0,4519243.0,0.0
1583189671955,4467019.0,4507869.0,0.0
1583189672007,4454593.0,4498356.0,0.0
1583189672053,4450986.0,4484593.0,0.0
1583189672099,4436138.0,4462498.0,0.0
1583189672153,4380157.0,4373457.0,0.0
1583189672201,4322458.0,4297597.0,0.0
1583189672413,4304083.0,4272583.0,0.0
1583189672414,4298644.0,4263690.0,0.0
1583189672415,4289351.0,4244654.0,0.0
1583189672416,4268511.0,4216427.0,0.0
1583189672459,4254626.0,4196423.0,0.0
1583189672532,4248159.0,4180699.0,0.0
1583189672548,4247287.0,4177879.0,0.0
1583189672590,4245999.0,4163435.0,0.0
1583189672636,4241826.0,4158514.0,0.0
1583189672687,4241702.0,4154792.0,0.0
1583189672739,4232013.0,4130927.0,0.0
1583189672777,4172300.0,4042105.0,0.0
1583189672826,4131334.0,3983211.0,0.0
1583189672873,4122514.0,3959426.0,0.0
1583189672922,4120342.0,3949433.0,0.0
1583189672972,4110640.0,3928708.0,0.0
1583189673022,4095229.0,3904552.0,0.0
1583189673072,4093533.0,3894619.0,0.0
1583189673119,4097491.0,3889428.0,0.0
1583189673172,4101256.0,3890738.0,0.0
1583189673219,4106898.0,3895560.0,0.0
1583189673263,4117934.0,3903841.0,0.0
1583189673315,4135663.0,3917805.0,0.0
1583189673366,4146779.0,3937280.0,0.0
1583189673415,4144562.0,3927677.0,0.0
1583189673463,4111059.0,3879936.0,0.0
1583189673513,4126742.0,3911074.0,0.0
1583189673559,4144845.0,3935809.0,0.0
1583189673609,4167686.0,3970779.0,0.0
1583189673655,4189157.0,4001446.0,0.0
1583189673705,4195840.0,4010317.0,0.0
1583189673755,4218443.0,4045797.0,0.0
1583189673803,4236885.0,4069083.0,0.0
1583189673851,4252025.0,4081184.0,0.0
1583189673896,4264791.0,4093437.0,0.0
1583189673948,4278428.0,4104510.0,0.0
1583189673995,4284375.0,4114714.0,0.0
1583189674045,4295954.0,4120145.0,0.0
1583189674095,4305044.0,4132437.0,0.0
1583189674143,4315560.0,4135659.0,0.0
1583189674191,4293036.0,4089478.0,0.0
1583189674234,4260154.0,4026581.0,0.0
1583189674289,4247797.0,4003175.0,0.0
1583189674338,4253484.0,4006997.0,0.0
1583189674385,4263401.0,4009638.0,0.0
1583189674435,4258029.0,3999236.0,0.0
1583189674481,4254965.0,3989812.0,0.0
1583189674532,4259149.0,3995434.0,0.0
1583189674575,4268229.0,3998754.0,0.0
1583189674629,4279139.0,4007417.0,0.0
1583189674676,4290401.0,4022631.0,0.0
1583189674725,4309715.0,4055598.0,0.0
1583189674777,4342267.0,4106782.0,0.0
1583189674823,4386592.0,4176168.0,0.0
1583189674873,4434885.0,4246176.0,0.0
1583189674917,4443150.0,4253777.0,0.0
1583189674968,4456334.0,4276083.0,0.0
1583189675017,4505033.0,4354332.0,0.0
1583189675065,4553744.0,4434281.0,0.0
1583189675114,4623045.0,4535747.0,0.0
1583189675158,4686195.0,4623768.0,0.0
1583189675213,4731503.0,4692315.0,0.0
1583189675256,4796824.0,4779995.0,0.0
1583189675308,4848205.0,4849212.0,0.0
1583189675357,4890798.0,4899874.0,0.0
1583189675405,4928745.0,4942486.0,0.0
1583189675454,4962405.0,4978375.0,0.0
1583189675498,5002026.0,5014003.0,0.0
1583189675552,5038762.0,5048681.0,0.0
1583189675598,5070185.0,5062595.0,0.0
1583189675648,5084454.0,5053543.0,0.0
1583189675695,5097435.0,5052442.0,0.0
1583189675745,5112078.0,5062054.0,0.0
1583189675794,5126324.0,5061944.0,0.0
1583189675836,5145039.0,5077319.0,0.0
1583189675893,5160856.0,5079040.0,0.0
1583189675936,5181899.0,5095923.0,0.0
1583189675987,5212294.0,5120808.0,0.0
1583189676037,5238865.0,5142914.0,0.0
1583189676084,5270999.0,5172981.0,0.0
1583189676134,5304515.0,5205189.0,0.0
1583189676176,5324854.0,5229114.0,0.0
1583189676230,5350013.0,5250700.0,0.0
1583189676278,5342405.0,5248040.0,0.0
1583189676327,5284851.0,5193327.0,0.0
1583189676376,5200465.0,5078599.0,0.0
1583189676425,5101348.0,4926362.0,0.0
1583189676473,5017506.0,4813143.0,0.0
1583189676516,4938605.0,4733145.0,0.0
1583189676571,4883256.0,4670419.0,0.0
1583189676617,4829411.0,4603422.0,0.0
1583189676667,4774912.0,4540548.0,0.0
1583189676715,4731459.0,4494636.0,0.0
1583189676760,4690696.0,4451774.0,0.0
1583189676813,4667743.0,4425740.0,0.0
1583189676858,4643307.0,4393472.0,0.0
1583189676911,4621994.0,4363995.0,0.0
1583189676958,4597491.0,4337217.0,0.0
1583189677007,4583403.0,4311702.0,0.0
1583189677056,4540265.0,4246176.0,0.0
1583189677099,4482385.0,4163265.0,0.0
1583189677154,4442821.0,4110232.0,0.0
1583189677199,4422627.0,4081605.0,0.0
1583189677249,4408098.0,4058339.0,0.0
1583189677299,4386716.0,4026402.0,0.0
1583189677346,4360494.0,3994323.0,0.0
1583189677396,4344472.0,3970108.0,0.0
1583189677440,4336162.0,3950453.0,0.0
1583189677492,4330666.0,3935280.0,0.0
1583189677544,4322186.0,3923586.0,0.0
1583189677590,4318386.0,3911503.0,0.0
1583189677637,4313864.0,3901391.0,0.0
1583189677687,4291283.0,3862542.0,0.0
1583189677734,4241690.0,3795435.0,0.0
1583189677778,4211909.0,3750284.0,0.0
1583189677833,4199188.0,3735070.0,0.0
1583189677880,4193466.0,3721508.0,0.0
1583189677926,4177828.0,3696881.0,0.0
1583189677973,4164803.0,3674335.0,0.0
1583189678020,4145479.0,3654300.0,0.0
1583189678071,4158130.0,3668685.0,0.0
1583189678119,4232283.0,3768939.0,0.0
1583189678168,4312789.0,3900781.0,0.0
1583189678216,4371134.0,3978510.0,0.0
1583189678265,4368207.0,3971108.0,0.0
1583189678313,4332001.0,3926818.0,0.0
1583189678362,4277692.0,3877424.0,0.0
1583189678412,4272186.0,3897431.0,0.0
1583189678459,4317675.0,3972158.0,0.0
1583189678508,4359308.0,4023911.0,0.0
1583189678556,4373373.0,4039025.0,0.0
1583189678605,4363152.0,4026311.0,0.0
1583189678653,4357046.0,4018060.0,0.0
1583189678702,4360427.0,4014348.0,0.0
1583189678750,4441329.0,4115854.0,0.0
1583189678800,4524730.0,4222740.0,0.0
1583189678853,4580282.0,4282315.0,0.0
1583189678899,4652907.0,4372246.0,0.0
1583189678949,4704705.0,4444995.0,0.0
1583189678997,4741363.0,4485185.0,0.0
1583189679041,4730723.0,4490684.0,0.0
1583189679094,4705678.0,4476172.0,0.0
1583189679143,4667324.0,4427790.0,0.0
1583189679192,4629152.0,4392541.0,0.0
1583189679239,4597853.0,4370887.0,0.0
1583189679288,4580870.0,4365234.0,0.0
1583189679336,4585234.0,4368656.0,0.0
1583189679380,4604976.0,4386860.0,0.0
1583189679435,4622514.0,4397962.0,0.0
1583189679481,4660675.0,4434931.0,0.0
1583189679528,4695208.0,4488864.0,0.0
1583189679576,4709138.0,4510110.0,0.0
1583189679625,4693512.0,4470639.0,0.0
1583189679673,4718047.0,4481832.0,0.0
1583189679720,4736093.0,4492275.0,0.0
1583189679772,4760494.0,4502148.0,0.0
1583189679822,4737926.0,4425329.0,0.0
1583189679872,4728179.0,4407545.0,0.0
1583189679918,4707159.0,4369026.0,0.0
1583189679969,4689192.0,4321633.0,0.0
1583189680017,4669167.0,4269240.0,0.0
1583189680059,4648419.0,4217819.0,0.0
1583189680110,4630237.0,4165715.0,0.0
1583189680161,4584974.0,4079475.0,0.0
1583189680212,4530090.0,3990383.0,0.0
1583189680259,4490142.0,3925528.0,0.0
1583189680307,4467323.0,3887429.0,0.0
1583189680357,4446699.0,3847478.0,0.0
1583189680403,4421054.0,3800356.0,0.0
1583189680454,4392606.0,3756296.0,0.0
1583189680502,4371949.0,3718877.0,0.0
1583189680552,4352058.0,3686389.0,0.0
1583189680599,4330260.0,3651370.0,0.0
1583189680647,4308595.0,3620882.0,0.0
1583189680696,4276947.0,3577423.0,0.0
1583189680745,4220976.0,3502023.0,0.0
1583189680796,4169992.0,3444400.0,0.0
1583189680841,4140312.0,3404700.0,0.0
1583189680892,4112461.0,3378334.0,0.0
1583189680939,4085822.0,3346716.0,0.0
1583189680985,4051132.0,3308107.0,0.0
1583189681036,4024029.0,3281379.0,0.0
1583189681083,4001505.0,3265176.0,0.0
1583189681133,3988638.0,3245860.0,0.0
1583189681181,3975511.0,3240139.0,0.0
1583189681232,3964170.0,3228808.0,0.0
1583189681278,3934533.0,3149986.0,0.0
1583189681322,3885685.0,3097782.0,0.0
1583189681377,3848724.0,3065833.0,0.0
1583189681423,3829140.0,3053801.0,0.0
1583189681474,3813682.0,3041838.0,0.0
1583189681521,3793794.0,3026870.0,0.0
1583189681571,3772808.0,3009645.0,0.0
1583189681618,3759205.0,3000687.0,0.0
1583189681662,3749922.0,2993527.0,0.0
1583189681715,3744449.0,2993850.0,0.0
1583189681765,3743975.0,2995342.0,0.0
1583189681808,3737348.0,2991571.0,0.0
1583189681860,3708820.0,2957746.0,0.0
1583189681911,3668195.0,2923280.0,0.0
1583189681959,3647232.0,2907822.0,0.0
1583189682003,3637562.0,2904096.0,0.0
1583189682055,3568438.0,2904862.0,0.0
1583189682104,3563438.0,2900173.0,0.0
1583189682153,3553430.0,2889242.0,0.0
1583189682200,3554151.0,2890810.0,0.0
1583189682251,3564950.0,2901818.0,0.0
1583189682298,3567918.0,2902308.0,0.0
1583189682346,3573380.0,2900258.0,0.0
1583189682396,3550537.0,2873577.0,0.0
1583189682444,3524463.0,2849247.0,0.0
1583189682493,3511964.0,2837124.0,0.0
1583189682541,3509916.0,2836579.0,0.0
1583189682586,3510696.0,2836703.0,0.0
1583189682638,3511586.0,2836053.0,0.0
1583189682685,3513717.0,2839340.0,0.0
1583189682735,3519362.0,2841415.0,0.0
1583189682779,3529772.0,2850517.0,0.0
1583189682832,3538212.0,2858051.0,0.0
1583189682876,3545788.0,2862610.0,0.0
1583189682924,3534386.0,2846340.0,0.0
1583189682971,3511107.0,2819262.0,0.0
1583189683024,3502358.0,2812800.0,0.0
1583189683069,3507240.0,2820142.0,0.0
1583189683120,3517206.0,2830683.0,0.0
1583189683169,3523431.0,2838363.0,0.0
1583189683217,3529262.0,2838623.0,0.0
1583189683264,3530721.0,2840250.0,0.0
1583189683313,3534464.0,2841346.0,0.0
1583189683365,3538464.0,2848237.0,0.0
1583189683415,3543842.0,2852260.0,0.0
1583189683463,3554722.0,2861293.0,0.0
1583189683513,3559060.0,2856927.0,0.0
1583189683556,3525227.0,2817993.0,0.0
1583189683604,3488516.0,2789953.0,0.0
1583189683658,3473917.0,2773461.0,0.0
1583189683705,3497073.0,2791107.0,0.0
1583189683755,3516308.0,2833436.0,0.0
1583189683806,3541593.0,2883514.0,0.0
1583189683854,3586375.0,2960010.0,0.0
1583189683901,3629706.0,3041426.0,0.0
1583189683945,3687950.0,3124364.0,0.0
1583189683998,3743571.0,3201716.0,0.0
1583189684047,3791380.0,3267405.0,0.0
1583189684096,3829250.0,3318280.0,0.0
1583189684145,3856412.0,3353984.0,0.0
1583189684194,3890373.0,3396551.0,0.0
1583189684240,3924935.0,3440249.0,0.0
1583189684284,3961478.0,3481951.0,0.0
1583189684337,3995261.0,3518980.0,0.0
1583189684387,4027174.0,3556918.0,0.0
1583189684436,4059296.0,3593977.0,0.0
1583189684485,4084941.0,3627731.0,0.0
1583189684533,4105528.0,3670442.0,0.0
1583189684582,4123591.0,3700833.0,0.0
1583189684625,4148380.0,3729601.0,0.0
1583189684679,4176869.0,3753953.0,0.0
1583189684726,4203706.0,3776396.0,0.0
1583189684776,4214462.0,3780228.0,0.0
1583189684824,4224922.0,3781215.0,0.0
1583189684872,4248161.0,3774445.0,0.0
1583189684920,4285031.0,3778584.0,0.0
1583189684967,4304930.0,3760471.0,0.0
1583189685017,4307882.0,3729247.0,0.0
1583189685066,4262968.0,3664034.0,0.0
1583189685110,4280685.0,3651084.0,0.0
1583189685163,4289611.0,3625398.0,0.0
1583189685208,4220141.0,3544756.0,0.0
1583189685260,4239461.0,3526536.0,0.0
1583189685306,4241542.0,3506182.0,0.0
1583189685357,4249847.0,3489798.0,0.0
1583189685405,4253505.0,3473101.0,0.0
1583189685456,4265073.0,3461022.0,0.0
1583189685502,4274620.0,3448937.0,0.0
1583189685549,4277195.0,3433449.0,0.0
1583189685599,4276047.0,3404505.0,0.0
1583189685648,4283822.0,3391662.0,0.0
1583189685697,4289243.0,3385573.0,0.0
1583189685746,4293530.0,3381046.0,0.0
1583189685790,4289930.0,3371469.0,0.0
1583189685843,4289629.0,3357511.0,0.0
1583189685888,4289562.0,3350918.0,0.0
1583189685938,4290862.0,3346098.0,0.0
1583189685988,4294729.0,3344768.0,0.0
1583189686037,4297463.0,3341232.0,0.0
1583189686085,4304251.0,3345440.0,0.0
1583189686135,4311239.0,3345891.0,0.0
1583189686183,4321145.0,3350229.0,0.0
1583189686229,4329837.0,3354971.0,0.0
1583189686280,4336339.0,3352102.0,0.0
1583189686329,4323512.0,3329659.0,0.0
1583189686378,4314040.0,3312412.0,0.0
1583189686425,4310274.0,3306087.0,0.0
1583189686471,4310735.0,3301382.0,0.0
1583189686522,4305954.0,3299646.0,0.0
1583189686568,4304804.0,3294866.0,0.0
1583189686619,4306448.0,3296465.0,0.0
1583189686668,4311708.0,3298720.0,0.0
1583189686718,4318236.0,3299921.0,0.0
1583189686760,4320357.0,3302629.0,0.0
1583189686809,4323663.0,3306087.0,0.0
1583189686862,4330953.0,3308909.0,0.0
1583189686910,4334929.0,3314285.0,0.0
1583189686959,4338446.0,3316427.0,0.0
1583189687003,4342656.0,3315976.0,0.0
1583189687052,4341599.0,3317790.0,0.0
1583189687100,4333312.0,3306170.0,0.0
1583189687152,4319636.0,3286397.0,0.0
1583189687196,4311163.0,3274044.0,0.0
1583189687252,4304134.0,3271773.0,0.0
1583189687293,4297463.0,3268110.0,0.0
1583189687346,4290074.0,3264851.0,0.0
1583189687392,4283042.0,3258465.0,0.0
1583189687446,4278219.0,3262289.0,0.0
1583189687494,4279854.0,3265531.0,0.0
1583189687543,4280283.0,3271834.0,0.0
1583189687594,4281742.0,3279215.0,0.0
1583189687640,4287187.0,3286444.0,0.0
1583189687689,4286423.0,3287316.0,0.0
1583189687736,4283916.0,3289809.0,0.0
1583189687786,4290182.0,3305238.0,0.0
1583189687829,4297673.0,3319204.0,0.0
1583189687883,4296517.0,3316183.0,0.0
1583189687936,4280055.0,3293305.0,0.0
1583189687980,4277959.0,3295668.0,0.0
1583189688029,4290267.0,3310835.0,0.0
1583189688073,4315962.0,3346533.0,0.0
1583189688120,4372085.0,3479503.0,0.0
1583189688174,4401917.0,3658349.0,0.0
1583189688222,4445389.0,3854537.0,0.0
1583189688272,4496345.0,4048505.0,0.0
1583189688315,4537344.0,4195258.0,0.0
1583189688369,4608475.0,4307468.0,0.0
1583189688412,4664330.0,4365088.0,0.0
1583189688466,4746928.0,4422255.0,0.0
1583189688515,4802683.0,4440880.0,0.0
1583189688562,4815418.0,4418813.0,0.0
1583189688611,4835803.0,4423976.0,0.0
1583189688660,4863991.0,4428413.0,0.0
1583189688708,4918479.0,4468073.0,0.0
1583189688751,4964408.0,4504695.0,0.0
1583189688807,5005112.0,4524797.0,0.0
1583189688852,5029434.0,4532262.0,0.0
1583189688902,5142629.0,4604062.0,0.0
1583189688950,5132092.0,4603062.0,0.0
1583189688998,5110743.0,4612425.0,0.0
1583189689048,5133821.0,4669218.0,0.0
1583189689091,5129864.0,4680240.0,0.0
1583189689145,5146181.0,4677550.0,0.0
1583189689195,5154379.0,4661097.0,0.0
1583189689242,5176573.0,4681602.0,0.0
1583189689292,5194508.0,4686382.0,0.0
1583189689333,5214273.0,4691545.0,0.0
1583189689382,5230870.0,4681841.0,0.0
1583189689431,5240007.0,4667767.0,0.0
1583189689481,5238062.0,4652765.0,0.0
1583189689532,5234263.0,4634530.0,0.0
1583189689575,5240301.0,4634201.0,0.0
1583189689629,5242902.0,4608134.0,0.0
1583189689673,5244745.0,4592359.0,0.0
1583189689724,5249030.0,4602963.0,0.0
1583189689772,5254129.0,4600712.0,0.0
1583189689825,5255046.0,4594580.0,0.0
1583189689875,5253168.0,4588300.0,0.0
1583189689921,5257159.0,4579096.0,0.0
1583189689972,5249097.0,4574896.0,0.0
1583189690019,5235224.0,4558002.0,0.0
1583189690068,5228745.0,4558982.0,0.0
1583189690111,5225849.0,4560302.0,0.0
1583189690165,5222944.0,4558951.0,0.0
1583189690217,5225963.0,4569644.0,0.0
1583189690262,5219110.0,4578425.0,0.0
1583189690312,5223781.0,4568234.0,0.0
1583189690359,5225929.0,4552240.0,0.0
1583189690409,5220616.0,4539457.0,0.0
1583189690453,5227897.0,4550020.0,0.0
1583189690505,5231878.0,4545338.0,0.0
1583189690557,5228168.0,4532654.0,0.0
1583189690602,5219078.0,4523003.0,0.0
1583189690651,5204016.0,4512550.0,0.0
1583189690700,5192754.0,4520181.0,0.0
1583189690748,5213706.0,4576776.0,0.0
1583189690799,5233334.0,4616596.0,0.0
1583189690844,5234557.0,4615545.0,0.0
1583189690894,5237044.0,4616636.0,0.0
1583189690942,5233664.0,4608705.0,0.0
1583189690990,5231018.0,4594050.0,0.0
1583189691038,5226280.0,4578547.0,0.0
1583189691088,5215798.0,4550089.0,0.0
1583189691135,5212088.0,4523253.0,0.0
1583189691185,5199618.0,4501569.0,0.0
1583189691234,5168648.0,4446224.0,0.0
1583189691282,5151550.0,4416146.0,0.0
1583189691332,5164046.0,4481934.0,0.0
1583189691379,5173985.0,4533195.0,0.0
1583189691428,5151867.0,4551340.0,0.0
1583189691474,5135055.0,4590299.0,0.0
1583189691524,5129061.0,4609964.0,0.0
1583189691573,5142912.0,4646733.0,0.0
1583189691621,5162926.0,4683822.0,0.0
1583189691671,5174664.0,4711779.0,0.0
1583189691718,5214080.0,4774054.0,0.0
1583189691763,5225364.0,4780066.0,0.0
1583189691814,5231786.0,4804551.0,0.0
1583189691865,5224856.0,4777784.0,0.0
1583189691915,5246077.0,4780635.0,0.0
1583189691962,5264961.0,4782037.0,0.0
1583189692011,5277490.0,4771023.0,0.0
1583189692055,5281966.0,4755370.0,0.0
1583189692109,5286977.0,4747459.0,0.0
1583189692157,5289171.0,4748978.0,0.0
1583189692205,5290628.0,4740376.0,0.0
1583189692254,5300703.0,4746678.0,0.0
1583189692303,5303552.0,4741636.0,0.0
1583189692353,5304344.0,4737556.0,0.0
1583189692395,5295118.0,4714680.0,0.0
1583189692448,5274583.0,4675049.0,0.0
1583189692498,5268886.0,4671130.0,0.0
1583189692545,5266115.0,4670709.0,0.0
1583189692595,5266013.0,4675781.0,0.0
1583189692640,5269632.0,4680322.0,0.0
1583189692693,5275251.0,4682183.0,0.0
1583189692734,5261230.0,4663086.0,0.0
1583189692783,5258211.0,4647092.0,0.0
1583189692837,5257374.0,4649843.0,0.0
1583189692885,5256086.0,4655455.0,0.0
1583189692935,5243997.0,4633309.0,0.0
1583189692980,5194065.0,4538177.0,0.0
1583189693031,5141012.0,4448954.0,0.0
1583189693074,5103280.0,4392500.0,0.0
1583189693123,5075059.0,4354432.0,0.0
1583189693176,5042517.0,4302669.0,0.0
1583189693224,5009680.0,4268682.0,0.0
1583189693272,4993794.0,4244876.0,0.0
1583189693320,4995592.0,4241765.0,0.0
1583189693371,5020942.0,4260018.0,0.0
1583189693415,5001335.0,4221730.0,0.0
1583189693468,4966001.0,4173088.0,0.0
1583189693515,4923713.0,4119854.0,0.0
1583189693565,4848306.0,4030803.0,0.0
1583189693615,4778743.0,3953024.0,0.0
1583189693657,4723273.0,3898300.0,0.0
1583189693711,4682227.0,3855969.0,0.0
1583189693759,4645343.0,3816531.0,0.0
1583189693809,4602737.0,3774130.0,0.0
1583189693857,4562427.0,3741123.0,0.0
1583189693905,4523633.0,3701621.0,0.0
1583189693954,4485585.0,3664934.0,0.0
1583189693997,4454853.0,3637227.0,0.0
1583189694050,4432306.0,3612261.0,0.0
1583189694097,4406085.0,3586423.0,0.0
1583189694147,4355858.0,3532261.0,0.0
1583189694195,4282022.0,3462763.0,0.0
1583189694244,4233606.0,3416813.0,0.0
1583189694293,4198735.0,3385766.0,0.0
1583189694337,4171463.0,3362108.0,0.0
1583189694392,4134477.0,3332063.0,0.0
1583189694437,4105543.0,3307946.0,0.0
1583189694487,4070229.0,3281030.0,0.0
1583189694535,4048859.0,3256244.0,0.0
1583189694585,4031244.0,3238160.0,0.0
1583189694633,4028088.0,3220295.0,0.0
1583189694678,4017267.0,3215843.0,0.0
1583189694730,4002872.0,3158997.0,0.0
1583189694777,3945297.0,3110359.0,0.0
1583189694826,3890842.0,3064159.0,0.0
1583189694875,3852422.0,3049335.0,0.0
1583189694924,3833311.0,3045770.0,0.0
1583189694973,3819629.0,3038908.0,0.0
1583189695017,3796382.0,3021570.0,0.0
1583189695070,3771270.0,3005230.0,0.0
1583189695117,3752488.0,2989106.0,0.0
1583189695166,3736488.0,2975439.0,0.0
1583189695215,3728134.0,2964868.0,0.0
1583189695264,3723904.0,2969211.0,0.0
1583189695311,3731480.0,2979905.0,0.0
1583189695360,3736602.0,2982430.0,0.0
1583189695410,3709206.0,2947972.0,0.0
1583189695457,3658798.0,2889211.0,0.0
1583189695507,3619935.0,2858219.0,0.0
1583189695555,3601030.0,2846057.0,0.0
1583189695604,3522927.0,2837589.0,0.0
1583189695654,3507870.0,2822261.0,0.0
1583189695697,3496771.0,2813051.0,0.0
1583189695753,3495462.0,2819860.0,0.0
1583189695801,3509010.0,2851726.0,0.0
1583189695847,3536635.0,2884715.0,0.0
1583189695896,3556593.0,2906063.0,0.0
1583189695941,3567583.0,2920114.0,0.0
1583189695993,3579369.0,2929812.0,0.0
1583189696040,3574983.0,2919763.0,0.0
1583189696090,3540435.0,2886314.0,0.0
1583189696138,3517214.0,2864436.0,0.0
1583189696188,3517407.0,2859694.0,0.0
1583189696236,3500789.0,2846998.0,0.0
1583189696283,3484186.0,2840901.0,0.0
1583189696333,3477124.0,2845246.0,0.0
1583189696378,3479547.0,2846356.0,0.0
1583189696431,3478223.0,2845385.0,0.0
1583189696478,3473558.0,2836512.0,0.0
1583189696527,3464129.0,2821863.0,0.0
1583189696575,3459027.0,2816211.0,0.0
1583189696622,3456359.0,2813358.0,0.0
1583189696673,3456694.0,2815577.0,0.0
1583189696719,3412443.0,2772451.0,0.0
1583189696766,3385287.0,2744677.0,0.0
1583189696819,3392544.0,2762752.0,0.0
1583189696867,3413457.0,2793303.0,0.0
1583189696915,3445085.0,2823401.0,0.0
1583189696962,3467861.0,2848442.0,0.0
1583189697014,3490612.0,2870105.0,0.0
1583189697064,3511897.0,2884278.0,0.0
1583189697110,3519018.0,2893602.0,0.0
1583189697157,3531670.0,2904151.0,0.0
1583189697207,3550494.0,2920382.0,0.0
1583189697256,3559218.0,2924856.0,0.0
1583189697299,3550260.0,2911768.0,0.0
1583189697352,3506862.0,2870747.0,0.0
1583189697400,3468986.0,2841207.0,0.0
1583189697450,3457107.0,2835577.0,0.0
1583189697499,3448364.0,2827936.0,0.0
1583189697546,3430487.0,2815414.0,0.0
1583189697596,3410722.0,2795956.0,0.0
1583189697638,3391142.0,2785416.0,0.0
1583189697694,3396378.0,2795138.0,0.0
1583189697740,3404019.0,2806412.0,0.0
1583189697791,3402971.0,2806245.0,0.0
1583189697838,3407861.0,2810993.0,0.0
1583189697888,3424524.0,2832449.0,0.0
1583189697936,3451906.0,2868920.0,0.0
1583189697981,3486998.0,2894933.0,0.0
1583189698032,3504262.0,2894728.0,0.0
1583189698081,3518573.0,2902513.0,0.0
1583189698127,3532483.0,2914661.0,0.0
1583189698178,3532844.0,2920159.0,0.0
1583189698228,3539429.0,2926630.0,0.0
1583189698276,3547054.0,2931403.0,0.0
1583189698319,3530067.0,2910301.0,0.0
1583189698374,3506854.0,2896227.0,0.0
1583189698421,3502852.0,2898153.0,0.0
1583189698472,3511720.0,2911234.0,0.0
1583189698518,3504757.0,2908976.0,0.0
1583189698569,3496846.0,2902383.0,0.0
1583189698616,3484119.0,2889931.0,0.0
1583189698664,3446192.0,2850531.0,0.0
1583189698714,3421637.0,2824395.0,0.0
1583189698761,3413910.0,2817702.0,0.0
1583189698810,3410245.0,2811643.0,0.0
1583189698856,3406638.0,2809341.0,0.0
1583189698903,3417618.0,2828395.0,0.0
1583189698953,3441948.0,2869485.0,0.0
1583189699000,3477652.0,2904724.0,0.0
1583189699050,3505554.0,2931128.0,0.0
1583189699098,3534504.0,2957442.0,0.0
1583189699147,3560905.0,2979913.0,0.0
1583189699195,3579454.0,3001323.0,0.0
1583189699244,3588187.0,3011275.0,0.0
1583189699292,3590343.0,3010310.0,0.0
1583189699341,3569546.0,2978590.0,0.0
1583189699389,3531871.0,2940009.0,0.0
1583189699438,3507466.0,2920037.0,0.0
1583189699488,3499741.0,2921949.0,0.0
1583189699535,3500261.0,2928666.0,0.0
1583189699585,3495956.0,2931649.0,0.0
1583189699632,3497248.0,2929117.0,0.0
1583189699681,3488808.0,2923816.0,0.0
1583189699730,3497650.0,2929416.0,0.0
1583189699778,3516241.0,2942480.0,0.0
1583189699827,3504371.0,2935771.0,0.0
1583189699879,3489178.0,2923991.0,0.0
1583189699924,3513388.0,2942740.0,0.0
1583189699977,3512836.0,2933790.0,0.0
1583189700021,3538952.0,2955245.0,0.0
1583189700069,3533053.0,2961893.0,0.0
1583189700117,3530871.0,2968165.0,0.0
1583189700171,3534665.0,2983025.0,0.0
1583189700221,3558119.0,3007418.0,0.0
1583189700271,3568715.0,3022801.0,0.0
1583189700318,3600989.0,3051836.0,0.0
1583189700365,3614931.0,3061589.0,0.0
1583189700415,3598321.0,3044026.0,0.0
1583189700464,3581854.0,3039813.0,0.0
1583189700508,3578884.0,3046718.0,0.0
1583189700560,3571610.0,3042574.0,0.0
1583189700612,3555679.0,3020109.0,0.0
1583189700658,3535008.0,2990010.0,0.0
1583189700703,3508390.0,2961708.0,0.0
1583189700756,3490671.0,2943152.0,0.0
1583189700808,3488095.0,2941943.0,0.0
1583189700853,3484346.0,2939083.0,0.0
1583189700901,3471016.0,2928375.0,0.0
1583189700948,3465740.0,2930907.0,0.0
1583189700998,3473775.0,2947283.0,0.0
1583189701044,3492459.0,2983393.0,0.0
1583189701096,3540764.0,3021218.0,0.0
1583189701144,3562349.0,3048685.0,0.0
1583189701193,3552936.0,3046359.0,0.0
1583189701239,3553708.0,3033195.0,0.0
1583189701291,3578766.0,3046146.0,0.0
1583189701338,3584814.0,3047430.0,0.0
1583189701384,3572642.0,3032567.0,0.0
1583189701434,3547349.0,3017837.0,0.0
1583189701483,3527927.0,3007809.0,0.0
1583189701533,3521922.0,3013997.0,0.0
1583189701581,3526233.0,3010348.0,0.0
1583189701631,3524211.0,2993336.0,0.0
1583189701677,3482433.0,2972257.0,0.0
1583189701725,3448592.0,2947925.0,0.0
1583189701775,3439305.0,2946060.0,0.0
1583189701825,3433055.0,2933002.0,0.0
1583189701873,3437409.0,2931923.0,0.0
1583189701922,3479312.0,2960347.0,0.0
1583189701964,3538354.0,3005285.0,0.0
1583189702017,3603110.0,3052846.0,0.0
1583189702069,3658002.0,3091159.0,0.0
1583189702116,3667632.0,3097323.0,0.0
1583189702163,3655887.0,3095726.0,0.0
1583189702213,3675987.0,3112332.0,0.0
1583189702259,3705878.0,3148848.0,0.0
1583189702304,3751003.0,3180698.0,0.0
1583189702357,3790809.0,3212686.0,0.0
1583189702407,3797369.0,3216922.0,0.0
1583189702454,3778133.0,3195032.0,0.0
1583189702499,3760961.0,3187435.0,0.0
1583189702553,3758252.0,3190190.0,0.0
1583189702600,3759175.0,3184392.0,0.0
1583189702647,3750467.0,3173187.0,0.0
1583189702697,3728168.0,3145337.0,0.0
1583189702746,3696725.0,3134919.0,0.0
1583189702795,3679024.0,3128868.0,0.0
1583189702843,3673228.0,3133978.0,0.0
1583189702891,3655527.0,3132907.0,0.0
1583189702940,3654487.0,3138446.0,0.0
1583189702985,3675174.0,3167213.0,0.0
1583189703037,3718318.0,3195660.0,0.0
1583189703086,3767261.0,3220640.0,0.0
1583189703131,3822705.0,3255411.0,0.0
1583189703182,3883710.0,3304618.0,0.0
1583189703232,3936278.0,3340162.0,0.0
1583189703279,3965874.0,3355436.0,0.0
1583189703326,3979365.0,3354520.0,0.0
1583189703377,3978156.0,3340048.0,0.0
1583189703426,3966344.0,3329347.0,0.0
1583189703475,3956882.0,3330755.0,0.0
1583189703522,3958651.0,3338028.0,0.0
1583189703568,3953962.0,3325324.0,0.0
1583189703619,3930422.0,3290873.0,0.0
1583189703670,3911682.0,3271864.0,0.0
1583189703717,3895322.0,3263741.0,0.0
1583189703765,3883761.0,3260109.0,0.0
1583189703811,3879206.0,3262342.0,0.0
1583189703857,3871471.0,3259910.0,0.0
1583189703910,3865632.0,3260936.0,0.0
1583189703959,3869131.0,3265822.0,0.0
1583189704007,3864970.0,3282214.0,0.0
1583189704057,3872495.0,3307172.0,0.0
1583189704107,3891657.0,3329950.0,0.0
1583189704155,3911363.0,3332276.0,0.0
1583189704204,3941991.0,3334916.0,0.0
1583189704248,3975547.0,3344292.0,0.0
1583189704299,3989489.0,3346862.0,0.0
1583189704348,3993827.0,3347490.0,0.0
1583189704398,3987317.0,3341035.0,0.0
1583189704445,3970094.0,3334196.0,0.0
1583189704494,3963048.0,3333477.0,0.0
1583189704542,3965850.0,3341608.0,0.0
1583189704588,3973743.0,3343772.0,0.0
1583189704639,3965448.0,3337608.0,0.0
1583189704691,3955236.0,3331856.0,0.0
1583189704737,3929331.0,3309543.0,0.0
1583189704785,3905733.0,3287706.0,0.0
1583189704829,3895003.0,3278764.0,0.0
1583189704883,3890750.0,3273112.0,0.0
1583189704929,3879298.0,3272584.0,0.0
1583189704979,3878627.0,3277884.0,0.0
1583189705028,3896957.0,3313942.0,0.0
1583189705077,3948265.0,3367017.0,0.0
1583189705125,3980162.0,3386286.0,0.0
1583189705171,4021193.0,3408384.0,0.0
1583189705221,4069128.0,3433555.0,0.0
1583189705272,4093322.0,3446781.0,0.0
1583189705319,4095429.0,3440333.0,0.0
1583189705368,4088742.0,3422701.0,0.0
1583189705417,4069270.0,3404942.0,0.0
1583189705464,4047325.0,3387587.0,0.0
1583189705509,4038692.0,3393452.0,0.0
1583189705561,4033198.0,3396039.0,0.0
1583189705609,4037282.0,3397109.0,0.0
1583189705658,4029665.0,3388450.0,0.0
1583189705708,4009918.0,3377007.0,0.0
1583189705751,3989457.0,3367493.0,0.0
1583189705805,3976320.0,3364195.0,0.0
1583189705856,3968081.0,3359951.0,0.0
1583189705901,3951622.0,3339926.0,0.0
1583189705950,3937729.0,3326203.0,0.0
1583189705998,3932082.0,3326967.0,0.0
1583189706047,3940152.0,3345042.0,0.0
1583189706090,3959759.0,3370973.0,0.0
1583189706139,4003793.0,3400153.0,0.0
1583189706195,4058004.0,3435574.0,0.0
1583189706237,4092609.0,3455967.0,0.0
1583189706289,4096938.0,3458039.0,0.0
1583189706334,4095729.0,3459754.0,0.0
1583189706387,4095874.0,3458958.0,0.0
1583189706430,4083911.0,3452066.0,0.0
1583189706485,4054875.0,3425670.0,0.0
1583189706536,4035110.0,3408873.0,0.0
1583189706581,4032333.0,3404436.0,0.0
1583189706630,4023759.0,3397146.0,0.0
1583189706677,3998425.0,3379210.0,0.0
1583189706727,3970799.0,3363332.0,0.0
1583189706775,3957250.0,3354244.0,0.0
1583189706825,3947016.0,3357356.0,0.0
1583189706873,3939130.0,3360898.0,0.0
1583189706921,3933200.0,3360087.0,0.0
1583189706971,3934642.0,3363307.0,0.0
1583189707019,3945305.0,3367875.0,0.0
1583189707067,3929047.0,3359453.0,0.0
1583189707112,3953802.0,3373986.0,0.0
1583189707164,4024598.0,3439024.0,0.0
1583189707213,4112904.0,3510044.0,0.0
1583189707261,4147911.0,3528671.0,0.0
1583189707310,4169354.0,3539555.0,0.0
1583189707355,4185963.0,3537596.0,0.0
1583189707407,4177156.0,3516080.0,0.0
1583189707451,4153581.0,3498908.0,0.0
1583189707504,4141141.0,3495549.0,0.0
1583189707555,4143548.0,3503229.0,0.0
1583189707601,4133749.0,3486394.0,0.0
1583189707652,4119505.0,3466256.0,0.0
1583189707697,4095764.0,3450099.0,0.0
1583189707747,4071302.0,3436676.0,0.0
1583189707795,4056645.0,3428124.0,0.0
1583189707844,4045470.0,3422297.0,0.0
1583189707894,4028903.0,3409208.0,0.0
1583189707942,4016696.0,3403664.0,0.0
1583189707992,4016747.0,3411350.0,0.0
1583189708039,4028684.0,3436692.0,0.0
1583189708087,4070101.0,3464917.0,0.0
1583189708132,4090729.0,3461719.0,0.0
1583189708185,4094766.0,3452180.0,0.0
1583189708232,4107778.0,3451920.0,0.0
1583189708282,4125277.0,3458169.0,0.0
1583189708334,4137567.0,3456570.0,0.0
1583189708379,4129103.0,3440125.0,0.0
1583189708429,4101250.0,3413538.0,0.0
1583189708475,4093826.0,3410356.0,0.0
1583189708520,4096544.0,3410647.0,0.0
1583189708576,4066200.0,3393139.0,0.0
1583189708622,4029255.0,3360637.0,0.0
1583189708671,3999414.0,3327297.0,0.0
1583189708719,3973853.0,3303050.0,0.0
1583189708764,3969850.0,3297619.0,0.0
1583189708813,3993618.0,3299821.0,0.0
1583189708864,4095546.0,3342059.0,0.0
1583189708914,4160243.0,3461229.0,0.0
1583189708961,4224991.0,3543716.0,0.0
1583189709011,4269143.0,3577339.0,0.0
1583189709059,4313654.0,3627266.0,0.0
1583189709108,4353897.0,3657829.0,0.0
1583189709153,4389686.0,3675284.0,0.0
1583189709205,4415481.0,3676080.0,0.0
1583189709254,4430112.0,3680432.0,0.0
1583189709302,4431991.0,3699677.0,0.0
1583189709352,4406137.0,3697145.0,0.0
1583189709398,4435281.0,3704801.0,0.0
1583189709448,4476153.0,3704045.0,0.0
1583189709494,4497007.0,3691347.0,0.0
1583189709544,4529290.0,3727620.0,0.0
1583189709594,4559709.0,3743987.0,0.0
1583189709641,4576873.0,3756600.0,0.0
1583189709692,4589590.0,3767332.0,0.0
1583189709732,4522083.0,3699998.0,0.0
1583189709787,4489803.0,3699325.0,0.0
1583189709835,4556999.0,3781268.0,0.0
1583189709884,4601150.0,3822679.0,0.0
1583189709933,4637114.0,3855616.0,0.0
1583189709981,4657308.0,3862538.0,0.0
1583189710031,4667676.0,3868710.0,0.0
1583189710074,4681124.0,3886715.0,0.0
1583189710126,4683205.0,3975015.0,0.0
1583189710178,4675169.0,4100557.0,0.0
1583189710223,4714160.0,4131720.0,0.0
1583189710273,4739488.0,4132713.0,0.0
1583189710321,4777634.0,4125553.0,0.0
1583189710369,4785377.0,4111634.0,0.0
1583189710413,4801525.0,4111236.0,0.0
1583189710466,4838991.0,4173565.0,0.0
1583189710516,4823119.0,4181292.0,0.0
1583189710563,4808421.0,4120360.0,0.0
1583189710613,4841918.0,4119458.0,0.0
1583189710661,4878957.0,4169344.0,0.0
1583189710710,4891172.0,4183686.0,0.0
1583189710754,4888110.0,4174990.0,0.0
1583189710807,4890735.0,4159079.0,0.0
1583189710855,4890081.0,4147246.0,0.0
1583189710904,4893118.0,4175256.0,0.0
1583189710953,4910283.0,4259907.0,0.0
1583189710994,4969644.0,4406958.0,0.0
1583189711050,4995608.0,4441140.0,0.0
1583189711095,5017000.0,4437914.0,0.0
1583189711141,5123114.0,4377425.0,0.0
1583189711196,5122344.0,4334943.0,0.0
1583189711243,5118376.0,4323882.0,0.0
1583189711292,5113864.0,4281010.0,0.0
1583189711338,5077162.0,4224798.0,0.0
1583189711389,4998192.0,4145334.0,0.0
1583189711435,4931074.0,4090063.0,0.0
1583189711486,5027592.0,4153801.0,0.0
1583189711535,5067845.0,4184588.0,0.0
1583189711583,5089509.0,4198617.0,0.0
1583189711632,5111704.0,4220194.0,0.0
1583189711676,5134839.0,4239721.0,0.0
1583189711730,5143716.0,4244961.0,0.0
1583189711779,5151065.0,4241672.0,0.0
1583189711828,5119156.0,4225771.0,0.0
1583189711875,5025804.0,4164020.0,0.0
1583189711918,5052105.0,4184718.0,0.0
1583189711972,5048328.0,4154796.0,0.0
1583189712016,5069338.0,4160136.0,0.0
1583189712070,5092030.0,4174965.0,0.0
1583189712116,5095072.0,4180435.0,0.0
1583189712165,5088536.0,4162543.0,0.0
1583189712215,5050884.0,4106294.0,0.0
1583189712263,4987530.0,4092204.0,0.0
1583189712307,4908178.0,4083874.0,0.0
1583189712354,4991770.0,4183594.0,0.0
1583189712409,5042913.0,4228608.0,0.0
1583189712456,5067154.0,4277721.0,0.0
1583189712506,5077660.0,4285462.0,0.0
1583189712555,5096045.0,4294702.0,0.0
1583189712603,5106052.0,4316434.0,0.0
1583189712654,5102151.0,4356161.0,0.0
1583189712696,5055802.0,4478169.0,0.0
1583189712749,5057680.0,4493047.0,0.0
1583189712797,5097673.0,4498830.0,0.0
1583189712845,5125613.0,4487011.0,0.0
1583189712894,5135268.0,4468043.0,0.0
1583189712942,5123147.0,4442670.0,0.0
1583189712991,5102760.0,4422454.0,0.0
1583189713037,5046519.0,4381181.0,0.0
1583189713089,4933969.0,4287473.0,0.0
1583189713136,4966375.0,4290143.0,0.0
1583189713185,5030588.0,4336512.0,0.0
1583189713234,5102886.0,4376508.0,0.0
1583189713280,5172536.0,4417123.0,0.0
1583189713331,5215595.0,4447979.0,0.0
1583189713380,5241996.0,4473474.0,0.0
1583189713428,5258867.0,4488336.0,0.0
1583189713476,5246858.0,4492862.0,0.0
1583189713525,5206808.0,4523987.0,0.0
1583189713574,5187722.0,4537839.0,0.0
1583189713616,5231301.0,4659596.0,0.0
1583189713673,5254954.0,4644683.0,0.0
1583189713716,5254231.0,4617157.0,0.0
1583189713763,5259692.0,4608054.0,0.0
1583189713819,5254966.0,4577867.0,0.0
1583189713864,5243467.0,4562413.0,0.0
1583189713913,5175080.0,4468089.0,0.0
1583189713956,5140051.0,4414646.0,0.0
1583189714010,5141160.0,4422089.0,0.0
1583189714058,5164487.0,4438093.0,0.0
1583189714108,5185980.0,4467659.0,0.0
1583189714151,5202885.0,4471810.0,0.0
1583189714205,5215469.0,4484453.0,0.0
1583189714254,5217235.0,4488815.0,0.0
1583189714296,5208945.0,4489634.0,0.0
1583189714349,5193252.0,4502298.0,0.0
1583189714398,5198577.0,4570985.0,0.0
1583189714447,5209386.0,4623138.0,0.0
1583189714496,5200670.0,4610564.0,0.0
1583189714543,5184625.0,4577227.0,0.0
1583189714594,5149527.0,4534755.0,0.0
1583189714639,5153586.0,4525423.0,0.0
1583189714690,5148397.0,4521902.0,0.0
1583189714738,5175228.0,4571554.0,0.0
1583189714787,5239293.0,4655876.0,0.0
1583189714836,5181074.0,4548008.0,0.0
1583189714882,5231989.0,4607063.0,0.0
1583189714933,5231177.0,4596270.0,0.0
1583189714981,5223476.0,4588188.0,0.0
1583189715030,5234149.0,4628299.0,0.0
1583189715077,5237134.0,4650654.0,0.0
1583189715127,5228925.0,4666987.0,0.0
1583189715170,5204130.0,4708608.0,0.0
1583189715218,5132216.0,4660857.0,0.0
1583189715274,5118986.0,4651524.0,0.0
1583189715318,5131887.0,4640501.0,0.0
1583189715370,5145220.0,4624048.0,0.0
1583189715418,5140729.0,4602922.0,0.0
1583189715466,5124979.0,4574476.0,0.0
1583189715516,5094597.0,4542648.0,0.0
1583189715559,5058606.0,4488775.0,0.0
1583189715613,4997380.0,4405233.0,0.0
1583189715659,4977342.0,4394181.0,0.0
1583189715709,5024436.0,4443213.0,0.0
1583189715757,5064972.0,4502517.0,0.0
1583189715808,5079208.0,4516882.0,0.0
1583189715854,5073792.0,4510870.0,0.0
1583189715898,5083810.0,4519432.0,0.0
1583189715952,5093467.0,4540418.0,0.0
1583189716000,5072424.0,4527473.0,0.0
1583189716049,4990720.0,4457878.0,0.0
1583189716097,4991995.0,4477752.0,0.0
1583189716142,4990752.0,4471409.0,0.0
1583189716194,4998160.0,4455137.0,0.0
1583189716239,4991951.0,4433672.0,0.0
1583189716292,4994123.0,4435811.0,0.0
1583189716342,4990650.0,4416556.0,0.0
1583189716389,4932567.0,4338458.0,0.0
1583189716437,4758493.0,4245434.0,0.0
1583189716485,4904252.0,4468890.0,0.0
1583189716536,4949402.0,4473971.0,0.0
1583189716582,5003428.0,4509230.0,0.0
1583189716633,5039916.0,4543488.0,0.0
1583189716680,5069462.0,4592400.0,0.0
1583189716729,5074889.0,4607274.0,0.0
1583189716778,5067674.0,4586008.0,0.0
1583189716827,5010383.0,4537246.0,0.0
1583189716875,5000216.0,4576755.0,0.0
1583189716920,4987180.0,4587609.0,0.0
1583189716972,5006945.0,4588420.0,0.0
1583189717020,5024369.0,4569045.0,0.0
1583189717070,5003156.0,4512270.0,0.0
1583189717117,4978620.0,4465468.0,0.0
1583189717167,4979378.0,4456827.0,0.0
1583189717215,4941080.0,4401783.0,0.0
1583189717262,4923532.0,4368546.0,0.0
1583189717313,4874561.0,4312561.0,0.0
1583189717360,4975047.0,4409366.0,0.0
1583189717409,5016238.0,4436571.0,0.0
1583189717457,5051981.0,4462208.0,0.0
1583189717502,5067585.0,4479091.0,0.0
1583189717555,5061501.0,4473941.0,0.0
1583189717604,5033551.0,4447254.0,0.0
1583189717646,5003993.0,4429419.0,0.0
1583189717693,4971304.0,4426028.0,0.0
1583189717742,4978450.0,4446464.0,0.0
1583189717791,4975975.0,4433371.0,0.0
1583189717843,4968342.0,4395662.0,0.0
1583189717895,4941543.0,4353842.0,0.0
1583189717942,4943500.0,4348180.0,0.0
1583189717991,4964758.0,4368694.0,0.0
1583189718039,4924718.0,4304650.0,0.0
1583189718089,4833708.0,4203804.0,0.0
1583189718138,4841238.0,4214038.0,0.0
1583189718181,4866793.0,4234953.0,0.0
1583189718234,4924696.0,4300198.0,0.0
1583189718283,4951505.0,4318724.0,0.0
1583189718332,4969528.0,4333106.0,0.0
1583189718379,4981764.0,4347109.0,0.0
1583189718430,4968263.0,4342759.0,0.0
1583189718477,4952783.0,4353231.0,0.0
1583189718523,4935720.0,4337978.0,0.0
1583189718575,4917493.0,4340987.0,0.0
1583189718622,4908641.0,4328545.0,0.0
1583189718672,4899584.0,4294987.0,0.0
1583189718720,4901008.0,4271101.0,0.0
1583189718763,4884782.0,4240264.0,0.0
1583189718817,4874640.0,4215848.0,0.0
1583189718863,4846474.0,4182099.0,0.0
1583189718914,4840730.0,4186601.0,0.0
1583189718962,4776732.0,4131437.0,0.0
1583189719011,4854276.0,4228961.0,0.0
1583189719059,4914159.0,4303110.0,0.0
1583189719108,4937813.0,4314142.0,0.0
1583189719152,4936659.0,4292567.0,0.0
1583189719207,4925013.0,4263159.0,0.0
1583189719247,4895762.0,4222110.0,0.0
1583189719297,4858697.0,4176408.0,0.0
1583189719345,4846179.0,4170276.0,0.0
1583189719393,4835516.0,4158915.0,0.0
1583189719443,4815152.0,4144300.0,0.0
1583189719493,4793240.0,4102269.0,0.0
1583189719542,4759025.0,4060950.0,0.0
1583189719591,4746644.0,4026902.0,0.0
1583189719641,4738661.0,4008218.0,0.0
1583189719692,4746260.0,4002306.0,0.0
1583189719740,4721269.0,3975088.0,0.0
1583189719782,4655339.0,3910993.0,0.0
1583189719839,4714339.0,3974290.0,0.0
1583189719880,4737564.0,3980800.0,0.0
1583189719930,4772321.0,4037024.0,0.0
1583189719977,4785121.0,4082996.0,0.0
1583189720027,4800284.0,4110413.0,0.0
1583189720075,4797559.0,4105900.0,0.0
1583189720122,4784499.0,4096739.0,0.0
1583189720172,4778575.0,4110212.0,0.0
1583189720220,4766612.0,4113263.0,0.0
1583189720269,4776890.0,4139209.0,0.0
1583189720317,4783618.0,4146411.0,0.0
1583189720367,4778099.0,4117333.0,0.0
1583189720414,4768353.0,4088647.0,0.0
1583189720463,4762993.0,4069213.0,0.0
1583189720511,4761376.0,4060231.0,0.0
1583189720560,4740492.0,4023251.0,0.0
1583189720609,4656843.0,3916184.0,0.0
1583189720657,4672367.0,3933358.0,0.0
1583189720708,4690458.0,3950443.0,0.0
1583189720754,4710686.0,3969787.0,0.0
1583189720809,4731751.0,3989562.0,0.0
1583189720856,4755248.0,4012379.0,0.0
1583189720904,4766884.0,4033722.0,0.0
1583189720954,4774369.0,4040966.0,0.0
1583189721000,4779977.0,4059099.0,0.0
1583189721043,4780779.0,4059591.0,0.0
1583189721097,4749425.0,4030423.0,0.0
1583189721146,4753473.0,4024482.0,0.0
1583189721196,4744382.0,3996923.0,0.0
1583189721243,4738490.0,3969428.0,0.0
1583189721293,4740358.0,3967097.0,0.0
1583189721340,4743387.0,3972658.0,0.0
1583189721383,4739397.0,3960236.0,0.0
1583189721438,4731107.0,3940061.0,0.0
1583189721486,4681831.0,3894588.0,0.0
1583189721535,4718839.0,3938791.0,0.0
1583189721584,4732905.0,3952193.0,0.0
1583189721633,4744122.0,3979351.0,0.0
1583189721680,4754265.0,3995883.0,0.0
1583189721725,4767969.0,4016680.0,0.0
1583189721777,4771949.0,4023682.0,0.0
1583189721828,4771541.0,4038404.0,0.0
1583189721875,4766624.0,4078165.0,0.0
1583189721923,4753495.0,4093649.0,0.0
1583189721970,4775080.0,4097349.0,0.0
1583189722019,4783063.0,4073453.0,0.0
1583189722066,4749720.0,4004876.0,0.0
1583189722117,4736873.0,3975060.0,0.0
1583189722164,4738639.0,3966488.0,0.0
1583189722215,4744259.0,3978051.0,0.0
1583189722262,4743558.0,3974889.0,0.0
1583189722308,4683166.0,3918996.0,0.0
1583189722359,4705259.0,3965058.0,0.0
1583189722410,4737767.0,4013129.0,0.0
1583189722457,4769168.0,4054018.0,0.0
1583189722506,4794179.0,4090477.0,0.0
1583189722555,4812497.0,4100599.0,0.0
1583189722602,4800408.0,4080615.0,0.0
1583189722648,4793411.0,4089136.0,0.0
1583189722693,4789317.0,4110492.0,0.0
1583189722749,4750069.0,4083165.0,0.0
1583189722790,4786230.0,4107672.0,0.0
1583189722846,4795932.0,4080495.0,0.0
1583189722893,4791409.0,4050708.0,0.0
1583189722943,4802625.0,4049178.0,0.0
1583189722994,4811761.0,4062900.0,0.0
1583189723039,4810144.0,4054568.0,0.0
1583189723087,4789463.0,4006436.0,0.0
1583189723137,4717368.0,3901791.0,0.0
1583189723185,4779140.0,3954895.0,0.0
1583189723233,4791363.0,3978520.0,0.0
1583189723281,4836309.0,4052847.0,0.0
1583189723328,4865820.0,4105612.0,0.0
1583189723379,4873872.0,4119235.0,0.0
1583189723428,4890662.0,4132278.0,0.0
1583189723477,4881345.0,4115523.0,0.0
1583189723524,4871326.0,4096018.0,0.0
1583189723570,4823702.0,4034444.0,0.0
1583189723621,4825634.0,4020480.0,0.0
1583189723668,4836014.0,4007677.0,0.0
1583189723719,4840448.0,4006237.0,0.0
1583189723767,4837235.0,4005957.0,0.0
1583189723817,4832735.0,4014238.0,0.0
1583189723864,4836738.0,4030232.0,0.0
1583189723911,4821983.0,4000256.0,0.0
1583189723961,4777703.0,3950652.0,0.0
1583189724009,4799764.0,3987013.0,0.0
1583189724059,4813017.0,4000526.0,0.0
1583189724107,4827987.0,4020480.0,0.0
1583189724151,4843239.0,4056299.0,0.0
1583189724203,4854672.0,4086026.0,0.0
1583189724248,4860111.0,4115734.0,0.0
1583189724295,4859623.0,4120214.0,0.0
1583189724349,4839610.0,4108472.0,0.0
1583189724394,4833121.0,4111183.0,0.0
1583189724444,4849946.0,4103151.0,0.0
1583189724492,4857047.0,4074032.0,0.0
1583189724540,4839033.0,4041986.0,0.0
1583189724596,4824165.0,4025660.0,0.0
1583189724640,4806300.0,4010258.0,0.0
1583189724693,4783154.0,3994213.0,0.0
1583189724737,4727228.0,3943610.0,0.0
1583189724787,4740358.0,3983262.0,0.0
1583189724830,4765448.0,4024021.0,0.0
1583189724883,4785168.0,4050818.0,0.0
1583189724935,4791952.0,4058790.0,0.0
1583189724981,4795784.0,4070753.0,0.0
1583189725030,4773205.0,4043266.0,0.0
1583189725077,4753269.0,4039344.0,0.0
1583189725126,4762394.0,4050088.0,0.0
1583189725169,4710970.0,4013289.0,0.0
1583189725220,4746780.0,4080444.0,0.0
1583189725271,4766929.0,4077655.0,0.0
1583189725316,4751981.0,4024852.0,0.0
1583189725365,4738186.0,4004916.0,0.0
1583189725411,4738039.0,3996663.0,0.0
1583189725466,4750262.0,4004817.0,0.0
1583189725510,4728665.0,3981350.0,0.0
1583189725556,4670468.0,3895700.0,0.0
1583189725616,4707204.0,3916984.0,0.0
1583189725659,4741113.0,3956736.0,0.0
1583189725709,4758198.0,3991653.0,0.0
1583189725751,4768184.0,4007797.0,0.0
1583189725806,4767301.0,4011637.0,0.0
1583189725851,4764249.0,4008636.0,0.0
1583189725902,4769552.0,4012598.0,0.0
1583189725950,4770230.0,4017149.0,0.0
1583189725999,4708640.0,3968987.0,0.0
1583189726049,4716544.0,3998904.0,0.0
1583189726092,4723204.0,3990032.0,0.0
1583189726145,4730305.0,3976840.0,0.0
1583189726194,4734364.0,3966057.0,0.0
1583189726242,4740368.0,3972679.0,0.0
1583189726291,4740244.0,3983872.0,0.0
1583189726339,4698317.0,3948732.0,0.0
1583189726388,4634636.0,3905243.0,0.0
1583189726431,4664860.0,3950543.0,0.0
1583189726485,4716645.0,3982010.0,0.0
1583189726537,4740108.0,4003397.0,0.0
1583189726582,4757690.0,4026433.0,0.0
1583189726631,4775159.0,4053648.0,0.0
1583189726679,4777341.0,4070682.0,0.0
1583189726729,4780011.0,4091457.0,0.0
1583189726777,4792799.0,4124036.0,0.0
1583189726826,4743647.0,4094208.0,0.0
1583189726875,4775025.0,4139178.0,0.0
1583189726922,4801292.0,4137039.0,0.0
1583189726972,4809715.0,4093578.0,0.0
1583189727019,4794993.0,4063240.0,0.0
1583189727070,4794451.0,4061661.0,0.0
1583189727115,4783821.0,4052169.0,0.0
1583189727161,4783063.0,4054948.0,0.0
1583189727213,4661920.0,3968268.0,0.0
1583189727262,4738366.0,4077265.0,0.0
1583189727311,4787835.0,4130698.0,0.0
1583189727360,4836502.0,4190811.0,0.0
1583189727408,4861297.0,4212207.0,0.0
1583189727453,4869530.0,4212888.0,0.0
1583189727506,4865458.0,4194633.0,0.0
1583189727556,4882566.0,4223609.0,0.0
1583189727598,4871700.0,4249575.0,0.0
1583189727652,4829525.0,4227490.0,0.0
1583189727699,4873159.0,4315702.0,0.0
1583189727749,4910935.0,4331895.0,0.0
1583189727793,4915742.0,4286435.0,0.0
1583189727848,4916421.0,4258929.0,0.0
1583189727895,4920401.0,4236143.0,0.0
1583189727943,4929275.0,4228000.0,0.0
1583189727993,4997187.0,4335546.0,0.0
1583189728040,5001313.0,4258919.0,0.0
1583189728090,5075421.0,4305529.0,0.0
1583189728134,5115278.0,4393031.0,0.0
1583189728185,5122366.0,4429210.0,0.0
1583189728237,5115142.0,4414086.0,0.0
1583189728282,5112021.0,4388561.0,0.0
1583189728333,5111399.0,4369645.0,0.0
1583189728379,5105452.0,4363475.0,0.0
1583189728428,5107352.0,4365704.0,0.0
1583189728474,5074775.0,4351232.0,0.0
1583189728525,5085257.0,4386230.0,0.0
1583189728576,5090696.0,4376307.0,0.0
1583189728622,5088707.0,4349440.0,0.0
1583189728672,5069259.0,4307090.0,0.0
1583189728719,5060404.0,4287934.0,0.0
1583189728763,5064667.0,4289495.0,0.0
1583189728813,5041261.0,4273972.0,0.0
1583189728865,4916691.0,4169236.0,0.0
1583189728914,4913174.0,4181829.0,0.0
1583189728963,4941102.0,4204755.0,0.0
1583189729011,5002477.0,4266581.0,0.0
1583189729058,5046158.0,4313831.0,0.0
1583189729109,5083664.0,4351800.0,0.0
1583189729155,5104107.0,4377888.0,0.0
1583189729206,5115357.0,4382488.0,0.0
1583189729255,5088402.0,4360214.0,0.0
1583189729296,5032825.0,4326786.0,0.0
1583189729351,5064216.0,4371106.0,0.0
1583189729394,5076687.0,4360194.0,0.0
1583189729443,5102728.0,4374696.0,0.0
1583189729492,5091736.0,4352902.0,0.0
1583189729541,5102027.0,4362193.0,0.0
1583189729591,5125227.0,4391730.0,0.0
1583189729635,5112665.0,4377526.0,0.0
1583189729684,4999470.0,4215767.0,0.0
1583189729733,5058165.0,4289015.0,0.0
1583189729782,5118443.0,4330646.0,0.0
1583189729840,5149606.0,4365765.0,0.0
1583189729885,5164227.0,4377738.0,0.0
1583189729933,5175590.0,4393642.0,0.0
1583189729982,5179796.0,4401322.0,0.0
1583189730030,5176766.0,4412436.0,0.0
1583189730073,5155238.0,4403915.0,0.0
1583189730128,5085281.0,4365925.0,0.0
1583189730178,5114463.0,4418848.0,0.0
1583189730221,5123295.0,4415217.0,0.0
1583189730271,5116149.0,4380127.0,0.0
1583189730318,5099312.0,4354082.0,0.0
1583189730368,5076370.0,4334297.0,0.0
1583189730413,5076630.0,4329025.0,0.0
1583189730467,5025680.0,4282353.0,0.0
1583189730516,4933776.0,4208115.0,0.0
1583189730565,4959081.0,4248886.0,0.0
1583189730614,5035517.0,4322683.0,0.0
1583189730663,5071213.0,4365025.0,0.0
1583189730711,5101958.0,4399083.0,0.0
1583189730753,5123023.0,4434692.0,0.0
1583189730809,5122299.0,4443274.0,0.0
1583189730855,5107951.0,4443253.0,0.0
1583189730899,5074980.0,4434192.0,0.0
1583189730954,4988808.0,4384069.0,0.0
1583189731003,5024402.0,4432262.0,0.0
1583189731051,5024867.0,4407574.0,0.0
1583189731094,5043443.0,4401342.0,0.0
1583189731150,5045355.0,4396271.0,0.0
1583189731196,5049786.0,4403433.0,0.0
1583189731245,5075736.0,4464438.0,0.0
1583189731294,4969360.0,4331997.0,0.0
1583189731340,4999493.0,4343769.0,0.0
1583189731390,5072843.0,4414096.0,0.0
1583189731437,5093546.0,4443814.0,0.0
1583189731488,5094857.0,4453516.0,0.0
1583189731536,5096531.0,4459977.0,0.0
1583189731585,5097606.0,4462939.0,0.0
1583189731634,5095570.0,4480223.0,0.0
1583189731681,5081650.0,4468299.0,0.0
1583189731732,5052444.0,4464249.0,0.0
1583189731777,5009940.0,4444143.0,0.0
1583189731828,5014985.0,4441734.0,0.0
1583189731876,5014395.0,4418598.0,0.0
1583189731925,5011059.0,4401273.0,0.0
1583189731974,5004932.0,4399234.0,0.0
1583189732021,5019676.0,4426780.0,0.0
1583189732071,4950375.0,4334236.0,0.0
1583189732118,4896916.0,4317263.0,0.0
1583189732163,4893015.0,4291356.0,0.0
1583189732216,4948453.0,4343879.0,0.0
1583189732265,4959160.0,4362684.0,0.0
1583189732314,4961444.0,4374647.0,0.0
1583189732356,4971542.0,4396822.0,0.0
1583189732412,4979004.0,4411635.0,0.0
1583189732457,4974809.0,4417206.0,0.0
1583189732500,4955225.0,4416696.0,0.0
1583189732556,4885449.0,4368885.0,0.0
1583189732604,4934568.0,4430850.0,0.0
1583189732653,4924527.0,4391570.0,0.0
1583189732698,4899413.0,4343789.0,0.0
1583189732752,4878246.0,4309111.0,0.0
1583189732797,4877139.0,4310141.0,0.0
1583189732848,4875918.0,4306570.0,0.0
1583189732896,4842550.0,4262810.0,0.0
1583189732942,4750760.0,4174279.0,0.0
1583189732993,4821780.0,4270780.0,0.0
1583189733039,4858357.0,4306139.0,0.0
1583189733091,4877354.0,4332586.0,0.0
1583189733137,4878065.0,4341890.0,0.0
1583189733187,4861354.0,4325345.0,0.0
1583189733235,4836851.0,4299818.0,0.0
1583189733284,4820252.0,4294217.0,0.0
1583189733333,4777081.0,4277073.0,0.0
1583189733379,4780643.0,4302409.0,0.0
1583189733430,4802501.0,4317342.0,0.0
1583189733478,4797832.0,4284974.0,0.0
1583189733527,4786421.0,4255538.0,0.0
1583189733576,4781401.0,4250067.0,0.0
1583189733623,4758844.0,4218908.0,0.0
1583189733674,4719721.0,4160835.0,0.0
1583189733718,4663614.0,4109541.0,0.0
1583189733766,4639305.0,4113674.0,0.0
1583189733813,4707362.0,4178468.0,0.0
1583189733868,4732363.0,4211047.0,0.0
1583189733911,4754671.0,4239343.0,0.0
1583189733963,4770750.0,4256857.0,0.0
1583189734013,4770547.0,4259669.0,0.0
1583189734059,4757227.0,4258198.0,0.0
1583189734109,4746406.0,4252206.0,0.0
1583189734158,4670772.0,4186361.0,0.0
1583189734207,4708719.0,4247056.0,0.0
1583189734255,4720333.0,4242234.0,0.0
1583189734302,4724108.0,4219389.0,0.0
1583189734354,4722458.0,4202756.0,0.0
1583189734399,4724549.0,4202235.0,0.0
1583189734450,4737056.0,4199954.0,0.0
1583189734498,4675397.0,4123946.0,0.0
1583189734547,4591238.0,4032914.0,0.0
1583189734596,4612394.0,4072704.0,0.0
1583189734638,4668409.0,4107841.0,0.0
1583189734696,4690153.0,4132286.0,0.0
1583189734743,4715991.0,4165115.0,0.0
1583189734786,4721158.0,4171956.0,0.0
1583189734831,4722956.0,4170717.0,0.0
1583189734884,4722797.0,4166645.0,0.0
1583189734930,4713626.0,4163254.0,0.0
1583189734979,4658121.0,4116914.0,0.0
1583189735029,4669856.0,4125706.0,0.0
1583189735080,4661705.0,4087826.0,0.0
1583189735130,4649888.0,4062220.0,0.0
1583189735172,4644110.0,4050608.0,0.0
1583189735227,4654004.0,4051447.0,0.0
1583189735274,4644845.0,4041795.0,0.0
1583189735319,4607995.0,3983711.0,0.0
1583189735373,4584510.0,3959915.0,0.0
1583189735420,4633291.0,4017349.0,0.0
1583189735470,4654388.0,4031213.0,0.0
1583189735517,4655441.0,4023151.0,0.0
1583189735566,4663785.0,4033574.0,0.0
1583189735615,4667572.0,4047498.0,0.0
1583189735662,4682158.0,4064121.0,0.0
1583189735712,4698272.0,4072964.0,0.0
1583189735760,4676563.0,4078854.0,0.0
1583189735810,4710302.0,4128197.0,0.0
1583189735858,4728903.0,4128566.0,0.0
1583189735906,4731436.0,4111713.0,0.0
1583189735955,4715097.0,4075574.0,0.0
1583189736001,4701539.0,4047427.0,0.0
1583189736053,4694111.0,4048778.0,0.0
1583189736100,4664689.0,4012027.0,0.0
1583189736144,4641306.0,3987913.0,0.0
1583189736197,4592201.0,3943480.0,0.0
1583189736245,4657397.0,4011288.0,0.0
1583189736294,4687416.0,4038515.0,0.0
1583189736344,4716940.0,4076034.0,0.0
1583189736392,4725443.0,4082145.0,0.0
1583189736440,4717358.0,4069012.0,0.0
1583189736490,4706423.0,4057110.0,0.0
1583189736537,4695241.0,4051147.0,0.0
1583189736580,4667290.0,4030362.0,0.0
1583189736636,4687384.0,4059430.0,0.0
1583189736683,4679808.0,4035553.0,0.0
1583189736732,4676132.0,4008636.0,0.0
1583189736779,4661660.0,3990572.0,0.0
1583189736829,4652952.0,3975139.0,0.0
1583189736877,4630215.0,3933659.0,0.0
1583189736921,4539113.0,3850349.0,0.0
1583189736974,4537597.0,3837486.0,0.0
1583189737022,4566103.0,3863031.0,0.0
1583189737071,4617155.0,3904881.0,0.0
1583189737119,4661241.0,3952264.0,0.0
1583189737165,4693670.0,3986862.0,0.0
1583189737217,4712372.0,4011627.0,0.0
1583189737262,4719112.0,4022170.0,0.0
1583189737313,4704073.0,4006196.0,0.0
1583189737362,4692969.0,4004417.0,0.0
1583189737411,4645749.0,3966687.0,0.0
1583189737459,4676823.0,3998114.0,0.0
1583189737509,4671597.0,3980271.0,0.0
1583189737557,4668580.0,3964877.0,0.0
1583189737603,4686433.0,3981980.0,0.0
1583189737654,4692833.0,3983211.0,0.0
1583189737703,4670626.0,3950392.0,0.0
1583189737745,4606210.0,3880055.0,0.0
1583189737798,4548181.0,3845128.0,0.0
1583189737845,4605633.0,3895669.0,0.0
1583189737893,4651099.0,3944502.0,0.0
1583189737946,4680610.0,3979020.0,0.0
1583189737995,4702976.0,4041085.0,0.0
1583189738043,4704830.0,4049028.0,0.0
1583189738092,4707476.0,4081826.0,0.0
1583189738139,4723159.0,4108021.0,0.0
1583189738189,4718500.0,4115504.0,0.0
1583189738236,4723949.0,4121925.0,0.0
1583189738283,4710269.0,4066602.0,0.0
1583189738333,4707486.0,4018299.0,0.0
1583189738382,4702579.0,4015360.0,0.0
1583189738432,4710552.0,4020971.0,0.0
1583189738479,4705926.0,4010538.0,0.0
1583189738527,4667176.0,3946902.0,0.0
1583189738576,4608617.0,3895350.0,0.0
1583189738624,4644167.0,3948572.0,0.0
1583189738675,4699708.0,3999215.0,0.0
1583189738722,4713445.0,4006966.0,0.0
1583189738768,4718602.0,4002986.0,0.0
1583189738819,4724494.0,4016390.0,0.0
1583189738864,4721009.0,4012188.0,0.0
1583189738917,4715639.0,4012889.0,0.0
1583189738965,4716848.0,4024192.0,0.0
1583189739015,4703632.0,4022651.0,0.0
1583189739064,4726235.0,4024482.0,0.0
1583189739112,4724833.0,3995794.0,0.0
1583189739159,4722027.0,3982571.0,0.0
1583189739208,4717968.0,3975289.0,0.0
1583189739257,4717980.0,3974160.0,0.0
1583189739304,4684895.0,3927318.0,0.0
1583189739348,4639995.0,3882036.0,0.0
1583189739405,4618319.0,3877164.0,0.0
1583189739453,4678146.0,3926818.0,0.0
1583189739501,4709059.0,3953383.0,0.0
1583189739546,4734782.0,3994374.0,0.0
1583189739598,4754117.0,4014898.0,0.0
1583189739648,4738230.0,3990373.0,0.0
1583189739696,4722944.0,3987951.0,0.0
1583189739744,4706131.0,3970927.0,0.0
1583189739794,4662767.0,3948263.0,0.0
1583189739842,4705068.0,3996755.0,0.0
1583189739886,4702896.0,3975078.0,0.0
1583189739937,4697752.0,3953253.0,0.0
1583189739988,4699392.0,3957185.0,0.0
1583189740035,4704457.0,3955275.0,0.0
1583189740084,4683347.0,3919136.0,0.0
1583189740133,4640357.0,3866532.0,0.0
1583189740176,4573949.0,3809698.0,0.0
1583189740224,4638153.0,3879296.0,0.0
1583189740273,4671733.0,3920465.0,0.0
1583189740320,4705145.0,3954543.0,0.0
1583189740368,4724041.0,3971707.0,0.0
1583189740420,4735189.0,3988173.0,0.0
1583189740469,4743545.0,4005906.0,0.0
1583189740517,4716680.0,3972689.0,0.0
1583189740564,4692618.0,3955435.0,0.0
1583189740618,4666215.0,3938060.0,0.0
1583189740666,4679322.0,3930808.0,0.0
1583189740715,4675216.0,3915834.0,0.0
1583189740763,4673452.0,3910633.0,0.0
1583189740809,4674978.0,3907433.0,0.0
1583189740856,4688875.0,3918045.0,0.0
1583189740906,4641261.0,3871565.0,0.0
1583189740953,4607250.0,3857720.0,0.0
1583189741002,4634512.0,3883477.0,0.0
1583189741051,4673204.0,3910814.0,0.0
1583189741099,4699424.0,3940731.0,0.0
1583189741151,4721814.0,3971978.0,0.0
1583189741195,4733517.0,3993022.0,0.0
1583189741246,4747355.0,4007168.0,0.0
1583189741293,4750149.0,4027891.0,0.0
1583189741342,4724041.0,4004376.0,0.0
1583189741391,4647411.0,3958635.0,0.0
1583189741439,4714361.0,4008756.0,0.0
1583189741490,4701301.0,3963056.0,0.0
1583189741535,4702884.0,3953143.0,0.0
1583189741585,4708605.0,3958584.0,0.0
1583189741633,4722277.0,3974859.0,0.0
1583189741682,4738820.0,3992523.0,0.0
1583189741731,4653960.0,3906062.0,0.0
1583189741782,4590900.0,3867503.0,0.0
1583189741828,4651030.0,3918226.0,0.0
1583189741879,4714361.0,3970208.0,0.0
1583189741928,4733901.0,3988853.0,0.0
1583189741977,4746575.0,4006907.0,0.0
1583189742026,4758176.0,4031323.0,0.0
1583189742074,4761207.0,4053199.0,0.0
1583189742123,4757215.0,4062801.0,0.0
1583189742168,4686208.0,4011318.0,0.0
1583189742213,4704581.0,4047036.0,0.0
1583189742263,4734262.0,4042065.0,0.0
1583189742310,4754037.0,4035234.0,0.0
1583189742366,4748046.0,4036134.0,0.0
1583189742414,4742131.0,4036254.0,0.0
1583189742463,4735607.0,4020859.0,0.0
1583189742507,4714441.0,3994424.0,0.0
1583189742553,4667099.0,3950163.0,0.0
1583189742609,4618024.0,3916174.0,0.0
1583189742657,4700771.0,3990643.0,0.0
1583189742707,4739397.0,4034734.0,0.0
1583189742749,4774267.0,4084205.0,0.0
1583189742803,4801901.0,4119125.0,0.0
1583189742855,4798136.0,4118763.0,0.0
1583189742899,4782872.0,4102330.0,0.0
1583189742948,4744982.0,4068912.0,0.0
1583189742991,4707295.0,4049326.0,0.0
1583189743045,4690696.0,4068872.0,0.0
1583189743089,4743387.0,4099870.0,0.0
1583189743142,4755543.0,4093188.0,0.0
1583189743193,4754931.0,4081546.0,0.0
1583189743240,4756390.0,4082196.0,0.0
1583189743289,4757227.0,4084786.0,0.0
1583189743335,4707124.0,4019781.0,0.0
1583189743385,4666544.0,3974219.0,0.0
1583189743430,4623498.0,3960555.0,0.0
1583189743483,4683223.0,4020540.0,0.0
1583189743533,4717653.0,4050188.0,0.0
1583189743580,4740358.0,4075715.0,0.0
1583189743629,4756368.0,4097568.0,0.0
1583189743673,4770253.0,4117654.0,0.0
1583189743724,4778597.0,4131386.0,0.0
1583189743771,4748554.0,4101339.0,0.0
1583189743818,4697943.0,4057979.0,0.0
1583189743873,4707850.0,4082576.0,0.0
1583189743915,4712135.0,4077864.0,0.0
1583189743968,4727795.0,4077053.0,0.0
1583189744010,4733289.0,4077704.0,0.0
1583189744064,4738389.0,4086135.0,0.0
1583189744114,4746235.0,4094368.0,0.0
1583189744161,4711253.0,4044716.0,0.0
1583189744209,4652184.0,3988303.0,0.0
1583189744258,4650477.0,4006528.0,0.0
1583189744308,4697604.0,4046866.0,0.0
1583189744351,4725839.0,4073624.0,0.0
1583189744405,4747684.0,4101451.0,0.0
1583189744456,4766624.0,4125767.0,0.0
1583189744502,4786161.0,4157204.0,0.0
1583189744552,4785789.0,4168315.0,0.0
1583189744592,4767234.0,4155312.0,0.0
1583189744647,4704615.0,4109102.0,0.0
1583189744691,4773814.0,4161755.0,0.0
1583189744744,4781470.0,4146121.0,0.0
1583189744792,4786513.0,4146600.0,0.0
1583189744841,4788638.0,4156342.0,0.0
1583189744891,4801019.0,4174478.0,0.0
1583189744938,4791635.0,4148792.0,0.0
1583189744988,4699538.0,4066842.0,0.0
1583189745032,4667845.0,4035604.0,0.0
1583189745086,4732420.0,4093037.0,0.0
1583189745131,4766973.0,4110512.0,0.0
1583189745177,4809148.0,4144410.0,0.0
1583189745230,4845106.0,4163145.0,0.0
1583189745279,4860111.0,4180859.0,0.0
1583189745328,4877513.0,4189952.0,0.0
1583189745375,4814226.0,4141429.0,0.0
1583189745425,4753970.0,4111532.0,0.0
1583189745472,4810731.0,4164425.0,0.0
1583189745522,4827331.0,4166217.0,0.0
1583189745571,4845840.0,4169967.0,0.0
1583189745619,4854989.0,4170567.0,0.0
1583189745669,4853518.0,4172558.0,0.0
1583189745717,4854107.0,4175788.0,0.0
1583189745761,4815278.0,4111953.0,0.0
1583189745811,4776133.0,4082716.0,0.0
1583189745864,4762587.0,4090806.0,0.0
1583189745912,4828269.0,4151722.0,0.0
1583189745959,4866035.0,4177538.0,0.0
1583189746009,4887462.0,4204594.0,0.0
1583189746053,4900668.0,4219418.0,0.0
1583189746106,4900636.0,4221519.0,0.0
1583189746155,4905000.0,4226220.0,0.0
1583189746204,4832940.0,4179200.0,0.0
1583189746251,4810134.0,4168667.0,0.0
1583189746300,4875442.0,4231771.0,0.0
1583189746349,4898860.0,4236462.0,0.0
1583189746393,4912790.0,4241263.0,0.0
1583189746445,4923623.0,4260100.0,0.0
1583189746496,4921372.0,4251648.0,0.0
1583189746542,4905010.0,4224660.0,0.0
1583189746591,4842357.0,4163726.0,0.0
1583189746639,4785076.0,4111703.0,0.0
1583189746689,4839261.0,4188582.0,0.0
1583189746732,4880948.0,4219168.0,0.0
1583189746785,4914419.0,4252517.0,0.0
1583189746832,4933176.0,4281784.0,0.0
1583189746882,4944800.0,4302829.0,0.0
1583189746931,4961897.0,4329675.0,0.0
1583189746979,4956153.0,4340087.0,0.0
1583189747027,4905530.0,4314152.0,0.0
1583189747074,4881265.0,4300858.0,0.0
1583189747124,4937226.0,4362634.0,0.0
1583189747174,4959386.0,4354182.0,0.0
1583189747222,4971373.0,4363184.0,0.0
1583189747270,4975681.0,4369546.0,0.0
1583189747319,4998532.0,4410126.0,0.0
1583189747368,5014905.0,4440462.0,0.0
1583189747412,5030779.0,4425679.0,0.0
1583189747464,5015334.0,4391761.0,0.0
1583189747513,5036196.0,4403104.0,0.0
1583189747561,5040810.0,4414116.0,0.0
1583189747611,5052862.0,4452705.0,0.0
1583189747657,5070569.0,4482673.0,0.0
1583189747709,5083617.0,4497286.0,0.0
1583189747758,5086411.0,4508129.0,0.0
1583189747805,5070886.0,4506949.0,0.0
1583189747856,5003111.0,4445244.0,0.0
1583189747902,5011840.0,4473811.0,0.0
1583189747951,5023973.0,4443243.0,0.0
1583189747995,5035483.0,4431229.0,0.0
1583189748047,5034534.0,4434350.0,0.0
1583189748094,5031617.0,4434620.0,0.0
1583189748144,5037880.0,4442603.0,0.0
1583189748193,5009759.0,4397663.0,0.0
1583189748240,4961751.0,4326235.0,0.0
1583189748291,4949471.0,4333828.0,0.0
1583189748333,5000250.0,4389071.0,0.0
1583189748388,5018150.0,4413805.0,0.0
1583189748434,5023181.0,4430720.0,0.0
1583189748484,5038524.0,4442292.0,0.0
1583189748533,5039181.0,4452266.0,0.0
1583189748581,5045558.0,4485203.0,0.0
1583189748630,4996949.0,4434401.0,0.0
1583189748674,4944768.0,4398453.0,0.0
1583189748727,4998068.0,4437323.0,0.0
1583189748776,5009444.0,4417637.0,0.0
1583189748824,5022311.0,4424819.0,0.0
1583189748872,5013739.0,4400123.0,0.0
1583189748922,4987406.0,4372427.0,0.0
1583189748972,4970185.0,4358773.0,0.0
1583189749015,4937937.0,4306381.0,0.0
1583189749068,4963594.0,4338407.0,0.0
1583189749115,4972830.0,4342599.0,0.0
1583189749164,4993387.0,4364814.0,0.0
1583189749213,5016126.0,4395272.0,0.0
1583189749261,5014566.0,4383658.0,0.0
1583189749312,5009625.0,4380338.0,0.0
1583189749355,5002093.0,4372366.0,0.0
1583189749408,4988468.0,4379599.0,0.0
1583189749455,4946712.0,4349960.0,0.0
1583189749505,4953033.0,4362993.0,0.0
1583189749553,4954806.0,4364734.0,0.0
1583189749599,4956379.0,4360033.0,0.0
1583189749650,4944144.0,4332377.0,0.0
1583189749695,4905813.0,4265681.0,0.0
1583189749747,4880428.0,4238433.0,0.0
1583189749796,4844732.0,4204875.0,0.0
1583189749837,4783425.0,4161625.0,0.0
1583189749893,4786704.0,4192182.0,0.0
1583189749940,4844314.0,4245044.0,0.0
1583189749987,4871598.0,4285515.0,0.0
1583189750036,4892222.0,4310802.0,0.0
1583189750087,4905927.0,4325914.0,0.0
1583189750136,4883177.0,4294997.0,0.0
1583189750179,4857793.0,4291907.0,0.0
1583189750233,4827580.0,4283755.0,0.0
1583189750277,4773282.0,4242854.0,0.0
1583189750333,4821022.0,4292577.0,0.0
1583189750376,4814939.0,4261148.0,0.0
1583189750426,4811207.0,4239534.0,0.0
1583189750475,4807917.0,4232031.0,0.0
1583189750524,4802761.0,4222500.0,0.0
1583189750572,4773250.0,4177948.0,0.0
1583189750614,4702037.0,4109821.0,0.0
1583189750672,4687756.0,4089656.0,0.0
1583189750716,4734025.0,4140820.0,0.0
1583189750762,4806627.0,4256818.0,0.0
1583189750814,4861196.0,4375298.0,0.0
1583189750865,4898102.0,4443664.0,0.0
1583189750913,4902093.0,4440303.0,0.0
1583189750958,4891849.0,4424049.0,0.0
1583189751010,4875658.0,4457376.0,0.0
1583189751057,4848859.0,4454316.0,0.0
1583189751106,4860009.0,4464459.0,0.0
1583189751155,4879038.0,4470991.0,0.0
1583189751203,4882860.0,4434421.0,0.0
1583189751252,4859546.0,4387829.0,0.0
1583189751297,4871655.0,4390341.0,0.0
1583189751348,4883968.0,4396422.0,0.0
1583189751397,4848656.0,4353172.0,0.0
1583189751446,4819913.0,4289596.0,0.0
1583189751495,4794010.0,4242015.0,0.0
1583189751541,4854615.0,4301379.0,0.0
1583189751592,4868896.0,4315343.0,0.0
1583189751637,4889498.0,4334287.0,0.0
1583189751689,4903190.0,4357713.0,0.0
1583189751737,4902794.0,4355421.0,0.0
1583189751786,4905949.0,4368865.0,0.0
1583189751834,4889102.0,4351101.0,0.0
1583189751877,4790471.0,4261790.0,0.0
1583189751932,4850048.0,4314721.0,0.0
1583189751977,4843477.0,4283284.0,0.0
1583189752029,4831640.0,4258218.0,0.0
1583189752076,4833200.0,4269821.0,0.0
1583189752125,4851031.0,4299558.0,0.0
1583189752174,4858843.0,4303120.0,0.0
1583189752221,4800093.0,4236824.0,0.0
1583189752272,4734195.0,4185270.0,0.0
1583189752318,4811694.0,4264980.0,0.0
1583189752368,4847492.0,4285354.0,0.0
1583189752416,4862169.0,4302860.0,0.0
1583189752465,4877307.0,4315713.0,0.0
1583189752514,4886920.0,4333466.0,0.0
1583189752559,4892290.0,4336727.0,0.0
1583189752610,4850194.0,4304170.0,0.0
1583189752659,4782409.0,4265130.0,0.0
1583189752709,4829433.0,4299989.0,0.0
1583189752756,4835823.0,4285655.0,0.0
1583189752806,4832770.0,4263990.0,0.0
1583189752854,4825849.0,4246576.0,0.0
1583189752897,4814080.0,4232671.0,0.0
1583189752950,4814746.0,4227141.0,0.0
1583189752998,4789351.0,4201805.0,0.0
1583189753042,4722966.0,4133987.0,0.0
1583189753096,4766069.0,4200525.0,0.0
1583189753143,4824878.0,4256768.0,0.0
1583189753189,4836423.0,4268210.0,0.0
1583189753239,4834917.0,4265209.0,0.0
1583189753291,4841589.0,4266089.0,0.0
1583189753338,4836467.0,4263040.0,0.0
1583189753388,4824821.0,4269021.0,0.0
1583189753436,4821869.0,4279503.0,0.0
1583189753484,4800522.0,4271041.0,0.0
1583189753535,4831120.0,4299708.0,0.0
1583189753578,4833312.0,4283664.0,0.0
1583189753632,4809148.0,4234002.0,0.0
1583189753680,4795162.0,4211037.0,0.0
1583189753730,4794971.0,4213908.0,0.0
1583189753776,4760596.0,4175857.0,0.0
1583189753826,4741453.0,4143201.0,0.0
1583189753875,4728145.0,4114434.0,0.0
1583189753918,4783969.0,4165436.0,0.0
1583189753972,4826969.0,4206376.0,0.0
1583189754019,4851177.0,4235893.0,0.0
1583189754070,4864170.0,4253876.0,0.0
1583189754117,4859806.0,4240914.0,0.0
1583189754166,4853790.0,4239863.0,0.0
1583189754215,4850488.0,4256709.0,0.0
1583189754260,4819281.0,4250136.0,0.0
1583189754306,4839814.0,4286165.0,0.0
1583189754353,4850216.0,4286866.0,0.0
1583189754402,4890979.0,4318604.0,0.0
1583189754457,4889463.0,4313392.0,0.0
1583189754502,4878021.0,4292006.0,0.0
1583189754555,4859160.0,4249106.0,0.0
1583189754601,4717368.0,4133248.0,0.0
1583189754647,4812021.0,4391200.0,0.0
1583189754702,4958447.0,4495937.0,0.0
1583189754751,4955034.0,4496156.0,0.0
1583189754797,4962688.0,4503578.0,0.0
1583189754846,4953281.0,4485315.0,0.0
1583189754895,4964916.0,4501818.0,0.0
1583189754941,4966883.0,4513091.0,0.0
1583189754993,4961377.0,4548589.0,0.0
1583189755041,4950714.0,4574636.0,0.0
1583189755092,4922063.0,4529235.0,0.0
1583189755138,4942900.0,4523213.0,0.0
1583189755183,4937315.0,4469079.0,0.0
1583189755236,4929503.0,4440352.0,0.0
1583189755282,4937100.0,4429939.0,0.0
1583189755333,4937077.0,4412227.0,0.0
1583189755380,4925964.0,4382159.0,0.0
1583189755431,4906752.0,4341969.0,0.0
1583189755478,4871836.0,4299499.0,0.0
1583189755528,4894157.0,4315152.0,0.0
1583189755576,4909884.0,4325485.0,0.0
1583189755622,4919948.0,4338759.0,0.0
1583189755672,4930236.0,4349761.0,0.0
1583189755720,4947096.0,4371586.0,0.0
1583189755766,4955192.0,4385410.0,0.0
1583189755818,4919608.0,4345130.0,0.0
1583189755861,4866352.0,4302638.0,0.0
1583189755915,4890989.0,4326824.0,0.0
1583189755965,4896101.0,4318994.0,0.0
1583189756014,4905679.0,4316812.0,0.0
1583189756060,4920614.0,4334017.0,0.0
1583189756110,4926437.0,4356173.0,0.0
1583189756157,4911388.0,4343478.0,0.0
1583189756207,4928631.0,4379798.0,0.0
1583189756254,4914350.0,4381468.0,0.0
1583189756304,4941850.0,4432530.0,0.0
1583189756352,4922650.0,4429880.0,0.0
1583189756400,4931921.0,4447514.0,0.0
1583189756447,4930746.0,4457786.0,0.0
1583189756497,4949776.0,4483563.0,0.0
1583189756543,4958415.0,4493377.0,0.0
1583189756590,4971022.0,4486465.0,0.0
1583189756642,4998849.0,4547488.0,0.0
1583189756692,4975116.0,4637702.0,0.0
1583189756739,4999584.0,4709569.0,0.0
1583189756787,5010767.0,4754669.0,0.0
1583189756837,4973521.0,4761020.0,0.0
1583189756884,4824720.0,4622167.0,0.0
1583189756934,4730225.0,4580406.0,0.0
1583189756983,4655780.0,4564252.0,0.0
1583189757032,4603032.0,4521742.0,0.0
1583189757079,4582893.0,4474991.0,0.0
1583189757127,4549684.0,4457756.0,0.0
1583189757176,4506707.0,4419348.0,0.0
1583189757225,4493817.0,4400932.0,0.0
1583189757274,4498509.0,4378268.0,0.0
1583189757323,4512235.0,4358572.0,0.0
1583189757372,4516250.0,4366344.0,0.0
1583189757419,4531074.0,4344899.0,0.0
1583189757463,4556322.0,4345469.0,0.0
1583189757517,4569496.0,4350451.0,0.0
1583189757567,4582294.0,4347489.0,0.0
1583189757615,4614475.0,4340579.0,0.0
1583189757661,4671949.0,4353572.0,0.0
1583189757711,4712293.0,4345750.0,0.0
1583189757754,4729851.0,4349200.0,0.0
1583189757802,4730577.0,4333137.0,0.0
1583189757856,4721948.0,4323815.0,0.0
1583189757906,4719449.0,4317003.0,0.0
1583189757953,4715367.0,4313821.0,0.0
1583189758003,4712338.0,4315322.0,0.0
1583189758051,4707872.0,4312541.0,0.0
1583189758098,4720377.0,4314361.0,0.0
1583189758146,4700749.0,4312561.0,0.0
1583189758191,4683572.0,4318752.0,0.0
1583189758244,4665695.0,4323043.0,0.0
1583189758295,4654017.0,4330995.0,0.0
1583189758341,4641125.0,4334837.0,0.0
1583189758391,4624392.0,4341349.0,0.0
1583189758439,4615594.0,4346821.0,0.0
1583189758485,4604446.0,4345959.0,0.0
1583189758536,4593058.0,4356522.0,0.0
1583189758584,4570071.0,4352942.0,0.0
1583189758634,4548238.0,4354541.0,0.0
1583189758682,4531267.0,4358192.0,0.0
1583189758730,4521417.0,4355793.0,0.0
1583189758778,4507385.0,4366825.0,0.0
1583189758825,4492879.0,4353861.0,0.0
1583189758877,4477716.0,4365155.0,0.0
1583189758924,4437564.0,4348080.0,0.0
1583189758973,4427241.0,4352932.0,0.0
1583189759021,4407296.0,4350941.0,0.0
1583189759067,4409770.0,4356152.0,0.0
1583189759117,4407759.0,4362695.0,0.0
1583189759166,4425443.0,4342259.0,0.0
1583189759215,4523497.0,4441604.0,0.0
1583189759265,4597605.0,4559351.0,0.0
1583189759314,4496292.0,4485983.0,0.0
1583189759361,4434295.0,4509919.0,0.0
1583189759409,4383764.0,4681252.0,0.0
1583189759458,4401708.0,4861775.0,0.0
1583189759507,4433223.0,4972523.0,0.0
1583189759555,4498407.0,5047001.0,0.0
1583189759605,4573192.0,5084560.0,0.0
1583189759654,4673995.0,5060404.0,0.0
1583189759702,4732170.0,4897505.0,0.0
1583189759747,4760890.0,4895754.0,0.0
1583189759798,4852376.0,4977633.0,0.0
1583189759847,5095706.0,4770064.0,0.0
1583189759894,5529492.0,4745707.0,0.0
1583189759943,5875738.0,4826778.0,0.0
1583189759989,6620097.0,5537200.0,0.0
1583189760035,7163266.0,5650098.0,0.0
1583189760087,7832852.0,6268838.0,0.0
1583189760131,7250015.0,6111150.0,0.0
1583189760187,7382539.0,6299867.0,0.0
1583189760235,6360385.0,6246081.0,0.0
1583189760280,5957222.0,5634694.0,0.0
1583189760327,6226708.0,5652443.0,0.0
1583189760380,6570928.0,5864951.0,0.0
1583189760428,6708463.0,5915010.0,0.0
1583189760477,6502944.0,5977793.0,0.0
1583189760526,6490226.0,6024276.0,0.0
1583189760576,6488943.0,6031205.0,0.0
1583189760624,6541656.0,6101957.0,0.0
1583189760669,6641943.0,6148948.0,0.0
1583189760720,6656849.0,6147102.0,0.0
1583189760773,6696145.0,6134870.0,0.0
1583189760818,6713876.0,6066666.0,0.0
1583189760870,6717335.0,6015885.0,0.0
1583189760916,6725364.0,5983550.0,0.0
1583189760963,6721996.0,5952726.0,0.0
1583189761009,6733239.0,5940388.0,0.0
1583189761060,6730961.0,5918535.0,0.0
1583189761107,6735222.0,5888822.0,0.0
1583189761151,6736051.0,5877690.0,0.0
1583189761202,6707400.0,5836131.0,0.0
1583189761255,6700497.0,5793102.0,0.0
1583189761303,6691160.0,5739240.0,0.0
1583189761348,6727954.0,5720489.0,0.0
1583189761400,6807272.0,5716493.0,0.0
1583189761450,6854844.0,5718666.0,0.0
1583189761497,6968650.0,5713258.0,0.0
1583189761546,7285064.0,5683798.0,0.0
1583189761591,7699183.0,5720925.0,0.0
1583189761643,7769977.0,5750927.0,0.0
1583189761695,7742519.0,5763219.0,0.0
1583189761736,8213732.0,5716276.0,0.0
1583189761785,8214778.0,5617321.0,0.0
1583189761833,8143067.0,5642940.0,0.0
1583189761882,8030279.0,5707741.0,0.0
1583189761930,7916083.0,5777501.0,0.0
1583189761979,7892608.0,5780085.0,0.0
1583189762031,7878058.0,5861751.0,0.0
1583189762075,7843566.0,5891490.0,0.0
1583189762125,7810227.0,5895873.0,0.0
1583189762172,7802945.0,5895063.0,0.0
1583189762222,7777951.0,5894061.0,0.0
1583189762269,7757056.0,5881493.0,0.0
1583189762319,7769116.0,5896090.0,0.0
1583189762371,7841285.0,5918088.0,0.0
1583189762415,7947252.0,5939627.0,0.0
1583189762465,8004414.0,5882350.0,0.0
1583189762512,7985132.0,5880491.0,0.0
1583189762561,7977361.0,5848688.0,0.0
1583189762609,7966358.0,5806563.0,0.0
1583189762658,7914800.0,5790626.0,0.0
1583189762714,7882680.0,5805259.0,0.0
1583189762755,7894775.0,5813963.0,0.0
1583189762808,7914783.0,5813614.0,0.0
1583189762851,7919200.0,5835118.0,0.0
1583189762906,7941836.0,5852891.0,0.0
1583189762950,7946302.0,5865882.0,0.0
1583189763003,7927162.0,5866871.0,0.0
1583189763056,7854441.0,5812466.0,0.0
1583189763100,7775624.0,5746280.0,0.0
1583189763150,7784740.0,5770064.0,0.0
1583189763193,7830348.0,5806286.0,0.0
1583189763246,7867659.0,5805186.0,0.0
1583189763290,7874909.0,5795178.0,0.0
1583189763343,7875305.0,5796384.0,0.0
1583189763393,7861390.0,5791351.0,0.0
1583189763441,7828858.0,5761529.0,0.0
1583189763491,7730983.0,5695099.0,0.0
1583189763537,7690965.0,5673717.0,0.0
1583189763587,7724128.0,5703079.0,0.0
1583189763634,7744216.0,5719621.0,0.0
1583189763684,7726202.0,5718050.0,0.0
1583189763732,7748903.0,5738346.0,0.0
1583189763780,7740908.0,5730269.0,0.0
1583189763830,7705543.0,5716892.0,0.0
1583189763880,7614555.0,5662392.0,0.0
1583189763927,7559543.0,5580120.0,0.0
1583189763970,7578399.0,5623332.0,0.0
1583189764024,7596381.0,5636096.0,0.0
1583189764072,7604343.0,5628730.0,0.0
1583189764121,7601447.0,5634379.0,0.0
1583189764169,7608064.0,5625699.0,0.0
1583189764218,7585379.0,5625252.0,0.0
1583189764268,7483497.0,5574289.0,0.0
1583189764313,7381996.0,5510794.0,0.0
1583189764364,7425575.0,5556046.0,0.0
1583189764415,7438159.0,5529762.0,0.0
1583189764462,7445680.0,5541788.0,0.0
1583189764510,7440534.0,5537935.0,0.0
1583189764559,7441991.0,5538262.0,0.0
1583189764608,7436546.0,5541835.0,0.0
1583189764654,7351537.0,5484739.0,0.0
1583189764706,7248930.0,5413504.0,0.0
1583189764753,7263476.0,5418333.0,0.0
1583189764802,7281809.0,5435224.0,0.0
1583189764852,7309511.0,5467316.0,0.0
1583189764899,7290103.0,5455086.0,0.0
1583189764949,7275776.0,5452587.0,0.0
1583189764992,7278483.0,5463465.0,0.0
1583189765039,7260009.0,5447660.0,0.0
1583189765096,7170255.0,5390383.0,0.0
1583189765143,7127102.0,5353788.0,0.0
1583189765192,7207375.0,5397386.0,0.0
1583189765239,7215257.0,5369194.0,0.0
1583189765289,7231072.0,5370691.0,0.0
1583189765335,7217188.0,5357784.0,0.0
1583189765385,7185419.0,5350853.0,0.0
1583189765434,7160425.0,5335024.0,0.0
1583189765482,7063085.0,5272786.0,0.0
1583189765531,6944836.0,5182776.0,0.0
1583189765579,6976210.0,5234295.0,0.0
1583189765628,7014613.0,5251729.0,0.0
1583189765673,7024287.0,5264659.0,0.0
1583189765720,7042966.0,5271070.0,0.0
1583189765773,7052842.0,5271675.0,0.0
1583189765822,7043077.0,5264249.0,0.0
1583189765873,6983270.0,5232459.0,0.0
1583189765912,6836067.0,5147316.0,0.0
1583189765962,6817089.0,5113762.0,0.0
1583189766011,6897123.0,5179515.0,0.0
1583189766058,6947731.0,5198726.0,0.0
1583189766113,6994477.0,5242359.0,0.0
1583189766162,7006193.0,5223330.0,0.0
1583189766205,6993371.0,5200728.0,0.0
1583189766259,6948303.0,5190274.0,0.0
1583189766309,6818480.0,5128335.0,0.0
1583189766355,6727870.0,5053780.0,0.0
1583189766405,6772258.0,5089000.0,0.0
1583189766455,6840027.0,5136909.0,0.0
1583189766502,6881533.0,5157699.0,0.0
1583189766551,6935148.0,5198242.0,0.0
1583189766597,6968263.0,5179092.0,0.0
1583189766648,6954444.0,5159957.0,0.0
1583189766694,6921184.0,5144200.0,0.0
1583189766739,6821836.0,5095339.0,0.0
1583189766793,6825019.0,5114270.0,0.0
1583189766843,6850995.0,5125378.0,0.0
1583189766892,6894685.0,5155525.0,0.0
1583189766936,6925411.0,5159836.0,0.0
1583189766988,6917560.0,5156660.0,0.0
1583189767034,6888211.0,5112868.0,0.0
1583189767084,6836352.0,5067702.0,0.0
1583189767127,6739236.0,5015736.0,0.0
1583189767182,6671721.0,4949959.0,0.0
1583189767224,6707703.0,4989741.0,0.0
1583189767276,6739805.0,5012017.0,0.0
1583189767325,6769868.0,5040221.0,0.0
1583189767372,6798614.0,5062473.0,0.0
1583189767421,6816122.0,5078048.0,0.0
1583189767474,6819288.0,5071600.0,0.0
1583189767522,6768728.0,5016955.0,0.0
1583189767570,6646408.0,4950827.0,0.0
1583189767615,6685841.0,4987181.0,0.0
1583189767668,6751820.0,5030406.0,0.0
1583189767717,6843380.0,5080873.0,0.0
1583189767760,6938029.0,5096630.0,0.0
1583189767813,6975655.0,5109295.0,0.0
1583189767862,6975513.0,5120705.0,0.0
1583189767910,6938598.0,5070986.0,0.0
1583189767953,6811628.0,5016389.0,0.0
1583189768008,6701860.0,4906276.0,0.0
1583189768055,6763329.0,4976570.0,0.0
1583189768104,6764168.0,4978369.0,0.0
1583189768153,6786568.0,5002877.0,0.0
1583189768197,6795750.0,5004483.0,0.0
1583189768252,6801797.0,5007527.0,0.0
1583189768293,6807051.0,5021724.0,0.0
1583189768348,6741990.0,4970966.0,0.0
1583189768395,6618217.0,4871829.0,0.0
1583189768444,6592921.0,4881199.0,0.0
1583189768493,6582283.0,4889734.0,0.0
1583189768542,6581191.0,4893899.0,0.0
1583189768591,6564852.0,4891992.0,0.0
1583189768638,6549387.0,4900516.0,0.0
1583189768683,6548738.0,4903341.0,0.0
1583189768735,6498699.0,4895785.0,0.0
1583189768784,6414407.0,4801562.0,0.0
1583189768834,6322750.0,4737364.0,0.0
1583189768880,6285866.0,4728406.0,0.0
1583189768932,6284108.0,4737002.0,0.0
1583189768975,6291882.0,4746602.0,0.0
1583189769027,6287118.0,4741892.0,0.0
1583189769076,6275291.0,4736676.0,0.0
1583189769124,6273106.0,4743896.0,0.0
1583189769173,6216152.0,4705588.0,0.0
1583189769221,6152894.0,4672796.0,0.0
1583189769270,6182323.0,4675777.0,0.0
1583189769320,6159891.0,4657943.0,0.0
1583189769368,6119682.0,4639412.0,0.0
1583189769415,6102303.0,4630586.0,0.0
1583189769464,6100781.0,4649168.0,0.0
1583189769513,6095638.0,4642091.0,0.0
1583189769557,5932020.0,4561596.0,0.0
1583189769611,5908687.0,4537691.0,0.0
1583189769656,5896069.0,4540867.0,0.0
1583189769707,5970614.0,4577533.0,0.0
1583189769754,6026555.0,4575325.0,0.0
1583189769804,6061064.0,4584560.0,0.0
1583189769853,6102334.0,4611835.0,0.0
1583189769896,6121756.0,4631575.0,0.0
1583189769951,6080014.0,4601127.0,0.0
1583189769997,5974840.0,4556005.0,0.0
1583189770047,5957316.0,4559422.0,0.0
1583189770095,6050318.0,4608720.0,0.0
1583189770142,6086092.0,4595499.0,0.0
1583189770192,6054465.0,4563733.0,0.0
1583189770237,6029041.0,4554146.0,0.0
1583189770292,6042766.0,4557032.0,0.0
1583189770338,6027158.0,4541361.0,0.0
1583189770387,5934458.0,4484228.0,0.0
1583189770434,5896672.0,4457461.0,0.0
1583189770483,5970471.0,4503378.0,0.0
1583189770533,6021569.0,4523793.0,0.0
1583189770576,6065974.0,4560195.0,0.0
1583189770630,6082767.0,4550258.0,0.0
1583189770677,6072257.0,4538595.0,0.0
1583189770726,6040962.0,4528913.0,0.0
1583189770769,5962618.0,4481319.0,0.0
1583189770823,5889214.0,4457003.0,0.0
1583189770869,5951616.0,4507676.0,0.0
1583189770921,6023025.0,4524107.0,0.0
1583189770970,6047371.0,4551779.0,0.0
1583189771017,6070596.0,4572162.0,0.0
1583189771067,6038206.0,4542811.0,0.0
1583189771115,5967923.0,4516657.0,0.0
1583189771158,5888551.0,4478999.0,0.0
1583189771208,5775286.0,4424873.0,0.0
1583189771258,5822034.0,4470272.0,0.0
1583189771310,5866166.0,4483551.0,0.0
1583189771357,5892824.0,4501517.0,0.0
1583189771406,5961241.0,4558917.0,0.0
1583189771454,6010820.0,4560848.0,0.0
1583189771497,5956286.0,4475342.0,0.0
1583189771553,5887758.0,4430622.0,0.0
1583189771599,5779547.0,4391732.0,0.0
1583189771649,5757192.0,4387058.0,0.0
1583189771697,5839351.0,4433820.0,0.0
1583189771746,5839382.0,4442767.0,0.0
1583189771793,5859424.0,4478190.0,0.0
1583189771837,5871928.0,4496978.0,0.0
1583189771894,5894124.0,4531171.0,0.0
1583189771939,5863506.0,4495928.0,0.0
1583189771987,5715609.0,4407536.0,0.0
1583189772037,5664952.0,4355703.0,0.0
1583189772086,5669796.0,4383848.0,0.0
1583189772128,5721733.0,4429413.0,0.0
1583189772180,5770379.0,4457038.0,0.0
1583189772227,5792224.0,4477780.0,0.0
1583189772275,5817949.0,4498716.0,0.0
1583189772325,5829063.0,4502532.0,0.0
1583189772373,5835329.0,4491509.0,0.0
1583189772419,5757622.0,4425912.0,0.0
1583189772474,5675209.0,4368913.0,0.0
1583189772524,5651655.0,4371968.0,0.0
1583189772570,5643298.0,4385839.0,0.0
1583189772619,5654678.0,4411665.0,0.0
1583189772668,5688413.0,4451870.0,0.0
1583189772716,5708896.0,4474606.0,0.0
1583189772760,5706490.0,4477526.0,0.0
1583189772814,5622226.0,4393591.0,0.0
1583189772860,5491566.0,4306659.0,0.0
1583189772911,5476132.0,4313313.0,0.0
1583189772958,5478476.0,4311176.0,0.0
1583189773008,5474804.0,4323456.0,0.0
1583189773057,5493657.0,4351889.0,0.0
1583189773104,5502902.0,4361064.0,0.0
1583189773154,5528388.0,4368199.0,0.0
1583189773200,5538249.0,4360630.0,0.0
1583189773247,5476022.0,4334490.0,0.0
1583189773295,5472571.0,4296675.0,0.0
1583189773345,5424369.0,4261540.0,0.0
1583189773396,5432206.0,4272722.0,0.0
1583189773440,5456836.0,4293668.0,0.0
1583189773492,5479458.0,4315426.0,0.0
1583189773542,5525760.0,4342797.0,0.0
1583189773590,5565206.0,4366255.0,0.0
1583189773638,5551593.0,4305911.0,0.0
1583189773688,5568230.0,4311562.0,0.0
1583189773736,5630933.0,4311406.0,0.0
1583189773779,5612444.0,4300298.0,0.0
1583189773833,5600762.0,4302700.0,0.0
1583189773881,5612364.0,4319822.0,0.0
1583189773930,5590772.0,4291991.0,0.0
1583189773978,5579218.0,4308881.0,0.0
1583189774027,5517528.0,4304221.0,0.0
1583189774076,5532646.0,4331762.0,0.0
1583189774125,5598023.0,4368212.0,0.0
1583189774174,5667612.0,4373306.0,0.0
1583189774222,5629494.0,4345200.0,0.0
1583189774271,5595505.0,4322332.0,0.0
1583189774318,5639799.0,4328356.0,0.0
1583189774368,5679405.0,4323273.0,0.0
1583189774416,5601792.0,4274327.0,0.0
1583189774462,5553115.0,4270088.0,0.0
1583189774512,5580768.0,4296760.0,0.0
1583189774560,5627576.0,4330530.0,0.0
1583189774611,5664571.0,4349112.0,0.0
1583189774658,5658478.0,4316572.0,0.0
1583189774706,5609042.0,4281027.0,0.0
1583189774756,5582003.0,4271913.0,0.0
1583189774802,5598560.0,4281196.0,0.0
1583189774847,5529338.0,4226720.0,0.0
1583189774904,5521817.0,4173837.0,0.0
1583189774952,5577412.0,4187613.0,0.0
1583189774998,5624823.0,4201413.0,0.0
1583189775041,5682224.0,4224282.0,0.0
1583189775094,5708310.0,4226974.0,0.0
1583189775143,5658240.0,4178763.0,0.0
1583189775193,5612586.0,4142700.0,0.0
1583189775240,5506241.0,4115774.0,0.0
1583189775290,5501934.0,4100213.0,0.0
1583189775338,5542539.0,4152044.0,0.0
1583189775381,5593671.0,4185211.0,0.0
1583189775436,5635746.0,4220658.0,0.0
1583189775483,5745100.0,4295033.0,0.0
1583189775532,5789138.0,4311610.0,0.0
1583189775580,5736661.0,4244371.0,0.0
1583189775631,5639182.0,4194544.0,0.0
1583189775678,5569024.0,4173450.0,0.0
1583189775724,5608581.0,4215371.0,0.0
1583189775775,5674117.0,4251339.0,0.0
1583189775823,5683996.0,4252570.0,0.0
1583189775873,5703040.0,4273264.0,0.0
1583189775921,5728145.0,4283938.0,0.0
1583189775971,5731564.0,4253704.0,0.0
1583189776018,5598165.0,4156778.0,0.0
1583189776063,5497423.0,4110342.0,0.0
1583189776115,5484839.0,4147408.0,0.0
1583189776164,5521120.0,4178353.0,0.0
1583189776209,5587686.0,4217882.0,0.0
1583189776262,5639404.0,4253368.0,0.0
1583189776312,5670729.0,4281511.0,0.0
1583189776358,5692165.0,4297302.0,0.0
1583189776404,5700283.0,4294139.0,0.0
1583189776449,5572664.0,4213451.0,0.0
1583189776503,5515437.0,4171483.0,0.0
1583189776553,5539595.0,4207993.0,0.0
1583189776601,5550043.0,4213126.0,0.0
1583189776651,5575560.0,4238939.0,0.0
1583189776697,5606397.0,4265526.0,0.0
1583189776744,5640954.0,4278723.0,0.0
1583189776788,5637805.0,4252268.0,0.0
1583189776838,5595571.0,4224197.0,0.0
1583189776893,5505086.0,4166823.0,0.0
1583189776940,5498564.0,4177097.0,0.0
1583189776991,5494209.0,4166870.0,0.0
1583189777037,5510991.0,4179380.0,0.0
1583189777086,5556724.0,4207911.0,0.0
1583189777135,5597201.0,4240449.0,0.0
1583189777184,5631251.0,4248502.0,0.0
1583189777226,5616560.0,4259477.0,0.0
1583189777274,5610023.0,4218075.0,0.0
1583189777323,5570400.0,4177666.0,0.0
1583189777371,5497090.0,4127064.0,0.0
1583189777424,5473584.0,4099113.0,0.0
1583189777472,5496948.0,4114327.0,0.0
1583189777520,5550802.0,4137339.0,0.0
1583189777573,5588872.0,4134272.0,0.0
1583189777620,5553271.0,4125628.0,0.0
1583189777667,5534116.0,4108133.0,0.0
1583189777717,5561472.0,4125954.0,0.0
1583189777766,5588778.0,4127221.0,0.0
1583189777814,5528846.0,4098655.0,0.0
1583189777864,5494431.0,4084638.0,0.0
1583189777908,5510419.0,4117731.0,0.0
1583189777960,5535652.0,4133848.0,0.0
1583189778004,5530018.0,4132050.0,0.0
1583189778056,5519823.0,4096047.0,0.0
1583189778105,5538264.0,4107843.0,0.0
1583189778155,5569055.0,4109437.0,0.0
1583189778198,5543947.0,4084263.0,0.0
1583189778249,5457786.0,4014019.0,0.0
1583189778296,5445708.0,3996500.0,0.0
1583189778344,5439630.0,3982203.0,0.0
1583189778393,5425666.0,3978088.0,0.0
1583189778446,5426679.0,4001184.0,0.0
1583189778496,5473393.0,4017423.0,0.0
1583189778543,5512351.0,4037538.0,0.0
1583189778592,5552401.0,4062507.0,0.0
1583189778640,5603706.0,4093802.0,0.0
1583189778687,5596171.0,4080557.0,0.0
1583189778738,5515059.0,4025077.0,0.0
1583189778788,5475626.0,4014971.0,0.0
1583189778836,5437997.0,4002004.0,0.0
1583189778884,5451690.0,4016071.0,0.0
1583189778932,5494243.0,4029882.0,0.0
1583189778982,5531696.0,4056205.0,0.0
1583189779029,5578410.0,4071864.0,0.0
1583189779078,5590141.0,4063158.0,0.0
1583189779127,5424130.0,3960315.0,0.0
1583189779177,5271421.0,3893584.0,0.0
1583189779219,5263442.0,3938594.0,0.0
1583189779274,5292347.0,3962621.0,0.0
1583189779321,5347467.0,3996125.0,0.0
1583189779367,5402049.0,4031717.0,0.0
1583189779412,5454634.0,4065271.0,0.0
1583189779461,5481136.0,4078516.0,0.0
1583189779512,5458323.0,4060598.0,0.0
1583189779561,5349097.0,3994072.0,0.0
1583189779610,5230830.0,3941601.0,0.0
1583189779656,5241264.0,3950377.0,0.0
1583189779708,5279112.0,3972896.0,0.0
1583189779754,5319876.0,4005410.0,0.0
1583189779808,5360796.0,4024740.0,0.0
1583189779857,5355050.0,4012231.0,0.0
1583189779906,5331970.0,3999251.0,0.0
1583189779947,5311800.0,4000954.0,0.0
1583189780001,5318402.0,4020430.0,0.0
1583189780048,5297666.0,4002197.0,0.0
1583189780099,5308794.0,4023931.0,0.0
1583189780148,5343431.0,4057448.0,0.0
1583189780192,5371875.0,4088753.0,0.0
1583189780244,5397410.0,4102966.0,0.0
1583189780287,5382704.0,4099343.0,0.0
1583189780341,5373872.0,4078722.0,0.0
1583189780388,5429435.0,4100683.0,0.0
1583189780438,5349336.0,4042174.0,0.0
1583189780488,5298267.0,4015164.0,0.0
1583189780530,5298204.0,4013077.0,0.0
1583189780584,5324006.0,4031331.0,0.0
1583189780631,5341624.0,4036258.0,0.0
1583189780682,5301751.0,4012110.0,0.0
1583189780735,5299234.0,4027843.0,0.0
1583189780778,5357360.0,4078962.0,0.0
1583189780828,5416200.0,4105380.0,0.0
1583189780875,5432411.0,4103437.0,0.0
1583189780925,5371875.0,4064594.0,0.0
1583189780972,5335358.0,4052013.0,0.0
1583189781021,5319796.0,4049043.0,0.0
1583189781073,5329595.0,4056011.0,0.0
1583189781118,5351947.0,4063314.0,0.0
1583189781167,5332428.0,4049744.0,0.0
1583189781210,5316488.0,4050045.0,0.0
1583189781265,5337335.0,4067215.0,0.0
1583189781312,5294358.0,4029123.0,0.0
1583189781361,5200455.0,3967509.0,0.0
1583189781410,5199092.0,3970384.0,0.0
1583189781458,5190988.0,3979754.0,0.0
1583189781508,5170426.0,3990076.0,0.0
1583189781550,5265166.0,4055901.0,0.0
1583189781603,5386362.0,4101963.0,0.0
1583189781652,5453084.0,4141698.0,0.0
1583189781701,5515295.0,4178727.0,0.0
1583189781749,5552827.0,4179718.0,0.0
1583189781798,5453829.0,4100297.0,0.0
1583189781848,5410978.0,4067614.0,0.0
1583189781890,5369725.0,4084950.0,0.0
1583189781944,5414553.0,4104064.0,0.0
1583189781993,5486722.0,4128815.0,0.0
1583189782041,5533641.0,4156802.0,0.0
1583189782091,5556360.0,4180660.0,0.0
1583189782138,5582495.0,4199410.0,0.0
1583189782187,5589458.0,4193275.0,0.0
1583189782229,5492881.0,4108856.0,0.0
1583189782284,5330878.0,4024437.0,0.0
1583189782335,5324370.0,4037549.0,0.0
1583189782381,5430195.0,4084022.0,0.0
1583189782430,5474486.0,4080110.0,0.0
1583189782477,5510308.0,4068109.0,0.0
1583189782527,5545008.0,4043671.0,0.0
1583189782571,5584995.0,4042005.0,0.0
1583189782623,5612319.0,4048741.0,0.0
1583189782673,5560618.0,4028941.0,0.0
1583189782720,5507791.0,4000000.0,0.0
1583189782764,5493893.0,4010107.0,0.0
1583189782818,5512098.0,4035896.0,0.0
1583189782867,5566395.0,4085241.0,0.0
1583189782909,5591833.0,4113831.0,0.0
1583189782963,5603896.0,4111429.0,0.0
1583189783013,5589697.0,4092884.0,0.0
1583189783054,5539657.0,4070269.0,0.0
1583189783110,5429671.0,4001052.0,0.0
1583189783158,5365907.0,3966012.0,0.0
1583189783206,5382388.0,3985115.0,0.0
1583189783249,5435559.0,4026936.0,0.0
1583189783298,5489035.0,4058485.0,0.0
1583189783350,5518700.0,4076366.0,0.0
1583189783396,5532233.0,4075884.0,0.0
1583189783445,5486486.0,4076947.0,0.0
1583189783493,5486264.0,4059730.0,0.0
1583189783543,5523558.0,4053245.0,0.0
1583189783593,5424827.0,3976131.0,0.0
1583189783643,5397299.0,3960315.0,0.0
1583189783691,5433915.0,3979149.0,0.0
1583189783741,5457581.0,3996971.0,0.0
1583189783790,5488782.0,4007111.0,0.0
1583189783831,5467443.0,4007944.0,0.0
1583189783886,5442525.0,4018631.0,0.0
1583189783938,5468899.0,4051013.0,0.0
1583189783983,5498342.0,4060177.0,0.0
1583189784032,5503567.0,4056168.0,0.0
1583189784080,5489334.0,4056035.0,0.0
1583189784131,5499497.0,4060513.0,0.0
1583189784178,5511591.0,4056602.0,0.0
1583189784221,5521644.0,4069206.0,0.0
1583189784272,5495984.0,4081208.0,0.0
1583189784323,5497804.0,4073758.0,0.0
1583189784372,5531710.0,4082054.0,0.0
1583189784419,5505766.0,4063629.0,0.0
1583189784468,5436828.0,4001499.0,0.0
1583189784516,5400749.0,3984305.0,0.0
1583189784566,5417927.0,3998902.0,0.0
1583189784612,5426918.0,4008706.0,0.0
1583189784663,5411990.0,4014490.0,0.0
1583189784712,5395558.0,4015117.0,0.0
1583189784755,5479250.0,4061227.0,0.0
1583189784809,5592388.0,4142542.0,0.0
1583189784855,5799936.0,4275835.0,0.0
1583189784906,5929090.0,4320629.0,0.0
1583189784956,5863776.0,4252728.0,0.0
1583189785003,5858949.0,4290722.0,0.0
1583189785052,5908923.0,4350450.0,0.0
1583189785093,5840190.0,4301105.0,0.0
1583189785149,5848359.0,4270995.0,0.0
1583189785192,5859598.0,4252969.0,0.0
1583189785245,5864362.0,4268665.0,0.0
1583189785294,5856622.0,4284240.0,0.0
1583189785336,5827097.0,4255926.0,0.0
1583189785389,5724361.0,4180419.0,0.0
1583189785433,5674387.0,4150777.0,0.0
1583189785485,5621927.0,4134441.0,0.0
1583189785533,5646495.0,4185018.0,0.0
1583189785586,5692068.0,4190281.0,0.0
1583189785634,5735856.0,4218196.0,0.0
1583189785683,5794218.0,4257327.0,0.0
1583189785732,5821209.0,4276753.0,0.0
1583189785780,5832402.0,4277139.0,0.0
1583189785829,5817235.0,4243321.0,0.0
1583189785876,5762417.0,4215118.0,0.0
1583189785927,5743658.0,4212571.0,0.0
1583189785974,5808199.0,4246653.0,0.0
1583189786022,5837704.0,4263328.0,0.0
1583189786073,5856605.0,4278541.0,0.0
1583189786117,5878656.0,4284975.0,0.0
1583189786169,5893395.0,4301565.0,0.0
1583189786214,5869997.0,4236839.0,0.0
1583189786265,5701267.0,4137508.0,0.0
1583189786314,5639546.0,4118987.0,0.0
1583189786362,5684946.0,4167040.0,0.0
1583189786410,5748582.0,4192431.0,0.0
1583189786454,5806233.0,4241763.0,0.0
1583189786508,5848183.0,4278360.0,0.0
1583189786554,5892730.0,4307082.0,0.0
1583189786604,5896704.0,4300526.0,0.0
1583189786655,5807547.0,4247862.0,0.0
1583189786696,5709420.0,4212558.0,0.0
1583189786751,5704763.0,4223327.0,0.0
1583189786793,5714992.0,4218016.0,0.0
1583189786848,5737659.0,4224488.0,0.0
1583189786894,5767261.0,4238939.0,0.0
1583189786945,5776506.0,4238407.0,0.0
1583189786993,5761561.0,4224776.0,0.0
1583189787035,5679641.0,4194917.0,0.0
1583189787092,5669148.0,4185973.0,0.0
1583189787133,5638786.0,4159216.0,0.0
1583189787188,5646082.0,4161570.0,0.0
1583189787235,5661582.0,4168949.0,0.0
1583189787285,5687495.0,4188967.0,0.0
1583189787334,5732673.0,4221722.0,0.0
1583189787383,5760992.0,4230486.0,0.0
1583189787432,5750576.0,4228796.0,0.0
1583189787476,5717381.0,4252715.0,0.0
1583189787528,5703418.0,4212521.0,0.0
1583189787575,5634463.0,4160568.0,0.0
1583189787625,5589174.0,4139608.0,0.0
1583189787675,5595047.0,4156452.0,0.0
1583189787723,5627198.0,4178679.0,0.0
1583189787766,5635035.0,4190524.0,0.0
1583189787814,5583095.0,4146152.0,0.0
1583189787870,5495856.0,4099488.0,0.0
1583189787919,5500811.0,4118757.0,0.0
1583189787967,5548413.0,4138402.0,0.0
1583189788014,5707915.0,4233046.0,0.0
1583189788063,5758097.0,4233723.0,0.0
1583189788112,5743644.0,4219984.0,0.0
1583189788157,5753474.0,4228230.0,0.0
1583189788211,5774813.0,4244976.0,0.0
1583189788257,5783122.0,4269641.0,0.0
1583189788306,5766374.0,4255069.0,0.0
1583189788356,5778992.0,4266007.0,0.0
1583189788404,5776665.0,4266697.0,0.0
1583189788453,5697578.0,4190210.0,0.0
1583189788495,5671364.0,4182421.0,0.0
1583189788552,5773499.0,4260840.0,0.0
1583189788597,5874525.0,4326751.0,0.0
1583189788641,5935249.0,4364155.0,0.0
1583189788689,5779182.0,4243273.0,0.0
1583189788737,5809749.0,4293415.0,0.0
1583189788786,5845666.0,4308460.0,0.0
1583189788839,5862684.0,4328068.0,0.0
1583189788890,5823758.0,4281643.0,0.0
1583189788937,5688649.0,4192347.0,0.0
1583189788987,5651054.0,4185526.0,0.0
1583189789034,5673452.0,4226479.0,0.0
1583189789084,5721085.0,4254756.0,0.0
1583189789132,5723397.0,4231562.0,0.0
1583189789177,5752524.0,4248779.0,0.0
1583189789226,5747694.0,4249816.0,0.0
1583189789277,5740333.0,4251218.0,0.0
1583189789326,5721480.0,4232758.0,0.0
1583189789376,5812235.0,4272045.0,0.0
1583189789422,6000341.0,4374165.0,0.0
1583189789468,5968935.0,4305876.0,0.0
1583189789517,5894724.0,4285858.0,0.0
1583189789563,5995989.0,4364928.0,0.0
1583189789614,6012657.0,4386299.0,0.0
1583189789662,6014020.0,4404712.0,0.0
1583189789712,6014731.0,4400496.0,0.0
1583189789758,5908986.0,4310838.0,0.0
1583189789812,5806552.0,4246836.0,0.0
1583189789858,5829378.0,4269184.0,0.0
1583189789910,5813230.0,4266383.0,0.0
1583189789958,5848009.0,4290071.0,0.0
1583189790007,5863950.0,4308267.0,0.0
1583189790055,5879827.0,4325786.0,0.0
1583189790099,5901880.0,4343003.0,0.0
1583189790153,5924437.0,4348157.0,0.0
1583189790198,5828983.0,4252146.0,0.0
1583189790250,5691039.0,4150584.0,0.0
1583189790298,5591739.0,4091893.0,0.0
1583189790346,5641446.0,4155244.0,0.0
1583189790391,5699128.0,4202368.0,0.0
1583189790439,5782348.0,4262157.0,0.0
1583189790489,5822222.0,4290518.0,0.0
1583189790538,5838165.0,4295829.0,0.0
1583189790589,5837388.0,4299754.0,0.0
1583189790637,5745496.0,4219005.0,0.0
1583189790687,5654189.0,4179150.0,0.0
1583189790735,5619456.0,4160314.0,0.0
1583189790779,5692956.0,4221468.0,0.0
1583189790831,5721053.0,4235402.0,0.0
1583189790878,5753551.0,4256240.0,0.0
1583189790931,5788205.0,4284071.0,0.0
1583189790978,5818550.0,4304715.0,0.0
1583189791027,5793524.0,4292039.0,0.0
1583189791074,5725929.0,4256555.0,0.0
1583189791117,5602488.0,4209238.0,0.0
1583189791173,5662848.0,4253826.0,0.0
1583189791219,5710068.0,4287620.0,0.0
1583189791271,5765566.0,4324855.0,0.0
1583189791317,5777661.0,4332450.0,0.0
1583189791367,5797765.0,4352384.0,0.0
1583189791415,5831168.0,4370277.0,0.0
1583189791458,5800345.0,4352492.0,0.0
1583189791512,5702658.0,4256481.0,0.0
1583189791560,5699905.0,4248864.0,0.0
1583189791610,5665095.0,4210614.0,0.0
1583189791657,5673563.0,4226950.0,0.0
1583189791707,5697911.0,4249419.0,0.0
1583189791755,5720166.0,4267324.0,0.0
1583189791801,5722732.0,4264717.0,0.0
1583189791852,5711317.0,4256047.0,0.0
1583189791900,5582700.0,4147312.0,0.0
1583189791950,5535763.0,4137170.0,0.0
1583189791997,5525506.0,4124383.0,0.0
1583189792047,5583223.0,4148085.0,0.0
1583189792094,5584125.0,4168224.0,0.0
1583189792145,5605668.0,4197972.0,0.0
1583189792193,5599052.0,4194930.0,0.0
1583189792238,5602343.0,4204891.0,0.0
1583189792291,5619535.0,4206824.0,0.0
1583189792337,5561457.0,4155908.0,0.0
1583189792384,5485789.0,4091639.0,0.0
1583189792434,5427456.0,4056916.0,0.0
1583189792480,5433312.0,4061999.0,0.0
1583189792532,5476403.0,4100490.0,0.0
1583189792580,5527611.0,4140188.0,0.0
1583189792631,5559890.0,4145260.0,0.0
1583189792676,5538139.0,4108639.0,0.0
1583189792727,5511466.0,4083115.0,0.0
1583189792774,5568056.0,4084781.0,0.0
1583189792824,5582953.0,4078238.0,0.0
1583189792873,5563972.0,4088042.0,0.0
1583189792923,5557182.0,4102723.0,0.0
1583189792970,5565969.0,4137519.0,0.0
1583189793017,5614153.0,4187927.0,0.0
1583189793066,5628037.0,4206908.0,0.0
1583189793114,5575244.0,4196197.0,0.0
1583189793163,5611511.0,4213983.0,0.0
1583189793213,5610988.0,4183944.0,0.0
1583189793260,5568310.0,4150330.0,0.0
1583189793311,5548524.0,4135419.0,0.0
1583189793357,5566045.0,4144763.0,0.0
1583189793402,5587117.0,4167560.0,0.0
1583189793455,5590758.0,4158539.0,0.0
1583189793502,5575972.0,4161956.0,0.0
1583189793553,5543790.0,4143049.0,0.0
1583189793600,5621705.0,4204251.0,0.0
1583189793651,5658083.0,4223099.0,0.0
1583189793697,5631456.0,4193095.0,0.0
1583189793740,5622212.0,4184777.0,0.0
1583189793795,5617905.0,4191188.0,0.0
1583189793843,5629778.0,4202899.0,0.0
1583189793885,5613078.0,4207548.0,0.0
1583189793942,5604340.0,4190802.0,0.0
1583189793991,5637518.0,4213018.0,0.0
1583189794037,5668167.0,4226575.0,0.0
1583189794081,5655961.0,4183376.0,0.0
1583189794134,5615214.0,4138511.0,0.0
1583189794183,5623699.0,4131108.0,0.0
1583189794228,5634321.0,4131772.0,0.0
1583189794279,5614913.0,4125108.0,0.0
1583189794330,5551894.0,4093643.0,0.0
1583189794379,5592308.0,4138461.0,0.0
1583189794421,5640337.0,4170107.0,0.0
1583189794470,5693986.0,4213306.0,0.0
1583189794523,5691989.0,4203441.0,0.0
1583189794572,5618998.0,4155244.0,0.0
1583189794619,5595411.0,4145332.0,0.0
1583189794671,5588272.0,4153445.0,0.0
1583189794718,5583476.0,4166291.0,0.0
1583189794765,5620644.0,4197200.0,0.0
1583189794814,5652699.0,4222266.0,0.0
1583189794863,5685356.0,4243503.0,0.0
1583189794912,5725169.0,4266420.0,0.0
1583189794954,5713043.0,4234194.0,0.0
1583189795006,5653395.0,4172244.0,0.0
1583189795054,5583192.0,4137918.0,0.0
1583189795102,5542920.0,4143195.0,0.0
1583189795151,5612572.0,4205520.0,0.0
1583189795200,5679738.0,4247621.0,0.0
1583189795253,5735381.0,4288405.0,0.0
1583189795301,5769921.0,4319036.0,0.0
1583189795351,5787556.0,4321668.0,0.0
1583189795398,5719819.0,4244336.0,0.0
1583189795445,5650340.0,4190680.0,0.0
1583189795489,5612586.0,4187264.0,0.0
1583189795544,5644151.0,4224451.0,0.0
1583189795594,5688143.0,4251001.0,0.0
1583189795641,5720467.0,4271924.0,0.0
1583189795691,5748963.0,4285242.0,0.0
1583189795738,5771724.0,4302772.0,0.0
1583189795784,5766294.0,4283830.0,0.0
1583189795836,5621452.0,4170856.0,0.0
1583189795885,5549252.0,4133655.0,0.0
1583189795932,5592405.0,4193082.0,0.0
1583189795982,5668656.0,4241414.0,0.0
1583189796027,5722416.0,4285411.0,0.0
1583189796079,5756418.0,4311128.0,0.0
1583189796124,5762670.0,4314628.0,0.0
1583189796176,5757431.0,4306080.0,0.0
1583189796224,5728890.0,4262386.0,0.0
1583189796275,5616591.0,4229280.0,0.0
1583189796322,5631044.0,4259332.0,0.0
1583189796372,5699336.0,4268713.0,0.0
1583189796418,5732056.0,4294454.0,0.0
1583189796464,5775826.0,4317489.0,0.0
1583189796517,5808893.0,4336301.0,0.0
1583189796566,5827256.0,4336060.0,0.0
1583189796614,5767022.0,4289757.0,0.0
1583189796662,5711524.0,4283129.0,0.0
1583189796711,5706427.0,4269255.0,0.0
1583189796759,5762227.0,4300068.0,0.0
1583189796806,5801676.0,4324373.0,0.0
1583189796856,5803133.0,4341625.0,0.0
1583189796906,5820481.0,4353928.0,0.0
1583189796955,5844053.0,4366244.0,0.0
1583189797004,5890847.0,4382954.0,0.0
1583189797047,5870125.0,4360545.0,0.0
1583189797101,5804017.0,4291328.0,0.0
1583189797148,5823854.0,4295673.0,0.0
1583189797198,5831927.0,4286388.0,0.0
1583189797250,5870205.0,4296990.0,0.0
1583189797296,5894675.0,4313422.0,0.0
1583189797344,5913355.0,4321488.0,0.0
1583189797394,5858727.0,4263254.0,0.0
1583189797441,5822097.0,4263339.0,0.0
1583189797488,5782966.0,4229148.0,0.0
1583189797538,5823536.0,4254852.0,0.0
1583189797588,5862289.0,4287342.0,0.0
1583189797636,5905362.0,4330253.0,0.0
1583189797684,5941580.0,4368961.0,0.0
1583189797733,5966782.0,4392758.0,0.0
1583189797781,5963300.0,4393083.0,0.0
1583189797827,5933144.0,4379103.0,0.0
1583189797878,5927793.0,4372835.0,0.0
1583189797930,5930532.0,4364904.0,0.0
1583189797976,6002511.0,4365279.0,0.0
1583189798023,6042513.0,4366461.0,0.0
1583189798069,6069376.0,4385138.0,0.0
1583189798121,6104345.0,4418800.0,0.0
1583189798167,6126427.0,4430958.0,0.0
1583189798218,6029752.0,4364808.0,0.0
1583189798268,5983104.0,4334164.0,0.0
1583189798316,6002050.0,4393337.0,0.0
1583189798363,6074109.0,4439508.0,0.0
1583189798408,6094134.0,4445459.0,0.0
1583189798460,6116929.0,4452365.0,0.0
1583189798508,6137318.0,4470790.0,0.0
1583189798558,6126950.0,4468846.0,0.0
1583189798608,6193405.0,4560316.0,0.0
1583189798649,6228753.0,4595813.0,0.0
1583189798704,6179393.0,4502109.0,0.0
1583189798751,6298339.0,4591685.0,0.0
1583189798797,6335826.0,4604023.0,0.0
1583189798854,6325156.0,4539719.0,0.0
1583189798892,6303121.0,4506734.0,0.0
1583189798949,6289666.0,4494273.0,0.0
1583189798990,6280721.0,4479483.0,0.0
1583189799043,6262058.0,4479893.0,0.0
1583189799093,6161902.0,4385030.0,0.0
1583189799140,6199688.0,4452462.0,0.0
1583189799191,6245435.0,4509377.0,0.0
1583189799233,6284600.0,4526583.0,0.0
1583189799286,6252734.0,4494129.0,0.0
1583189799330,6251261.0,4490023.0,0.0
1583189799384,6221804.0,4475789.0,0.0
1583189799432,6216530.0,4487354.0,0.0
1583189799481,6178079.0,4498983.0,0.0
1583189799534,6128722.0,4464958.0,0.0
1583189799578,6199813.0,4525194.0,0.0
1583189799627,6215566.0,4519664.0,0.0
1583189799669,6195367.0,4467495.0,0.0
1583189799724,6177208.0,4438675.0,0.0
1583189799769,6170086.0,4436464.0,0.0
1583189799820,6171889.0,4427578.0,0.0
1583189799870,6100545.0,4413850.0,0.0
1583189799916,6059056.0,4390005.0,0.0
1583189799967,6099800.0,4426708.0,0.0
1583189800010,6130289.0,4453078.0,0.0
1583189800063,6149902.0,4473905.0,0.0
1583189800114,6138459.0,4439326.0,0.0
1583189800160,6078336.0,4373306.0,0.0
1583189800210,6010424.0,4324493.0,0.0
1583189800255,6006135.0,4326267.0,0.0
1583189800306,5990354.0,4340466.0,0.0
1583189800350,5996811.0,4344029.0,0.0
1583189800404,6015840.0,4358070.0,0.0
1583189800449,6053720.0,4394146.0,0.0
1583189800495,6064105.0,4386998.0,0.0
1583189800547,6020113.0,4307627.0,0.0
1583189800594,5970042.0,4255251.0,0.0
1583189800644,5864345.0,4203044.0,0.0
1583189800689,5843117.0,4205049.0,0.0
1583189800737,5907911.0,4266478.0,0.0
1583189800788,5995451.0,4324011.0,0.0
1583189800834,6041230.0,4365737.0,0.0
1583189800890,6072541.0,4401234.0,0.0
1583189800939,6102175.0,4406968.0,0.0
1583189800987,6059767.0,4333622.0,0.0
1583189801033,6009270.0,4289141.0,0.0
1583189801084,5952423.0,4294829.0,0.0
1583189801131,5964945.0,4310269.0,0.0
1583189801180,6018466.0,4343013.0,0.0
1583189801230,6045266.0,4365978.0,0.0
1583189801278,6075756.0,4386347.0,0.0
1583189801325,6086931.0,4384475.0,0.0
1583189801370,6065402.0,4319856.0,0.0
1583189801423,6003382.0,4224028.0,0.0
1583189801473,5915033.0,4169600.0,0.0
1583189801520,5915096.0,4186986.0,0.0
1583189801570,5959421.0,4216434.0,0.0
1583189801617,5986349.0,4258451.0,0.0
1583189801667,6020366.0,4300648.0,0.0
1583189801709,6057600.0,4343896.0,0.0
1583189801759,6081376.0,4356308.0,0.0
1583189801814,6050491.0,4280014.0,0.0
1583189801860,5989370.0,4240896.0,0.0
1583189801910,5955953.0,4224958.0,0.0
1583189801953,5981647.0,4263243.0,0.0
1583189802008,6055256.0,4310042.0,0.0
1583189802053,6078176.0,4329819.0,0.0
1583189802103,6072305.0,4336288.0,0.0
1583189802153,6070072.0,4347203.0,0.0
1583189802201,6070246.0,4347168.0,0.0
1583189802244,6026035.0,4284155.0,0.0
1583189802298,5939333.0,4195666.0,0.0
1583189802346,5923470.0,4224136.0,0.0
1583189802391,5966543.0,4251472.0,0.0
1583189802443,6008937.0,4288852.0,0.0
1583189802493,6050616.0,4337557.0,0.0
1583189802540,6098107.0,4382168.0,0.0
1583189802590,6118084.0,4403733.0,0.0
1583189802638,6114144.0,4401959.0,0.0
1583189802688,6107414.0,4405495.0,0.0
1583189802731,6181435.0,4435451.0,0.0
1583189802783,6270970.0,4513627.0,0.0
1583189802832,6413519.0,4576737.0,0.0
1583189802881,6547788.0,4632977.0,0.0
1583189802933,6639490.0,4666697.0,0.0
1583189802976,6682185.0,4678747.0,0.0
1583189803027,6694533.0,4673410.0,0.0
1583189803075,6660514.0,4615337.0,0.0
1583189803123,6576932.0,4483080.0,0.0
1583189803173,6440795.0,4401824.0,0.0
1583189803220,6468070.0,4461735.0,0.0
1583189803271,6461485.0,4484529.0,0.0
1583189803318,6454692.0,4504862.0,0.0
1583189803366,6468497.0,4539140.0,0.0
1583189803413,6465282.0,4544512.0,0.0
1583189803463,6466184.0,4538090.0,0.0
1583189803512,6386767.0,4460105.0,0.0
1583189803560,6306446.0,4378643.0,0.0
1583189803610,6304261.0,4390113.0,0.0
1583189803656,6372488.0,4437189.0,0.0
1583189803707,6383158.0,4457931.0,0.0
1583189803756,6407520.0,4472311.0,0.0
1583189803799,6412222.0,4475680.0,0.0
1583189803853,6396012.0,4463245.0,0.0
1583189803902,6409639.0,4458222.0,0.0
1583189803950,6319553.0,4417134.0,0.0
1583189803995,6272190.0,4369529.0,0.0
1583189804049,6281417.0,4378535.0,0.0
1583189804094,6296994.0,4410832.0,0.0
1583189804144,6312792.0,4429776.0,0.0
1583189804193,6321974.0,4464379.0,0.0
1583189804237,6348743.0,4500720.0,0.0
1583189804292,6357987.0,4512542.0,0.0
1583189804333,6284268.0,4484397.0,0.0
1583189804388,6226756.0,4438530.0,0.0
1583189804435,6241621.0,4449214.0,0.0
1583189804485,6256455.0,4437697.0,0.0
1583189804534,6271018.0,4444615.0,0.0
1583189804583,6282683.0,4466770.0,0.0
1583189804632,6298515.0,4477370.0,0.0
1583189804678,6303436.0,4481102.0,0.0
1583189804729,6260744.0,4455168.0,0.0
1583189804774,6212414.0,4436755.0,0.0
1583189804826,6200433.0,4412040.0,0.0
1583189804875,6180644.0,4392999.0,0.0
1583189804922,6195635.0,4412776.0,0.0
1583189804973,6202823.0,4436959.0,0.0
1583189805018,6209501.0,4445327.0,0.0
1583189805071,6218985.0,4438456.0,0.0
1583189805116,6200860.0,4414683.0,0.0
1583189805165,6171702.0,4443227.0,0.0
1583189805215,6134579.0,4411363.0,0.0
1583189805263,6179521.0,4399205.0,0.0
1583189805313,6156805.0,4358059.0,0.0
1583189805356,6160492.0,4355438.0,0.0
1583189805409,6168502.0,4376688.0,0.0
1583189805456,6181626.0,4398843.0,0.0
1583189805506,6173806.0,4392432.0,0.0
1583189805555,6086266.0,4359892.0,0.0
1583189805603,6084113.0,4394496.0,0.0
1583189805652,6148542.0,4423074.0,0.0
1583189805700,6177240.0,4413741.0,0.0
1583189805749,6177368.0,4408634.0,0.0
1583189805797,6176196.0,4415179.0,0.0
1583189805842,6192423.0,4436356.0,0.0
1583189805895,6204327.0,4446522.0,0.0
1583189805936,6172777.0,4433362.0,0.0
1583189805992,6156251.0,4462303.0,0.0
1583189806039,6174344.0,4482297.0,0.0
1583189806090,6243108.0,4517057.0,0.0
1583189806136,6281022.0,4501543.0,0.0
1583189806186,6256566.0,4481898.0,0.0
1583189806235,6229606.0,4469161.0,0.0
1583189806284,6216388.0,4479446.0,0.0
1583189806332,6198897.0,4470356.0,0.0
1583189806375,6184334.0,4444941.0,0.0
1583189806430,6138569.0,4444988.0,0.0
1583189806475,6170734.0,4469462.0,0.0
1583189806527,6206082.0,4490083.0,0.0
1583189806575,6206193.0,4454575.0,0.0
1583189806623,6174756.0,4448683.0,0.0
1583189806672,6175294.0,4461264.0,0.0
1583189806720,6195968.0,4465308.0,0.0
1583189806766,6189573.0,4544210.0,0.0
1583189806816,6256184.0,4588279.0,0.0
1583189806867,6250185.0,4560414.0,0.0
1583189806914,6282936.0,4544271.0,0.0
1583189806962,6270526.0,4497557.0,0.0
1583189807014,6179868.0,4402779.0,0.0
1583189807059,6125730.0,4376977.0,0.0
1583189807110,6109994.0,4370820.0,0.0
1583189807159,6084508.0,4371640.0,0.0
1583189807203,6030609.0,4341215.0,0.0
1583189807252,6067475.0,4402911.0,0.0
1583189807305,6106450.0,4421577.0,0.0
1583189807354,6149000.0,4460721.0,0.0
1583189807400,6173599.0,4480496.0,0.0
1583189807451,6180881.0,4466577.0,0.0
1583189807496,6153355.0,4439591.0,0.0
1583189807548,6134152.0,4429233.0,0.0
1583189807596,6064770.0,4394522.0,0.0
1583189807645,6070530.0,4416579.0,0.0
1583189807693,6170655.0,4469304.0,0.0
1583189807738,6186123.0,4487343.0,0.0
1583189807791,6211828.0,4508641.0,0.0
1583189807837,6229828.0,4523914.0,0.0
1583189807889,6204293.0,4474413.0,0.0
1583189807937,6144472.0,4436453.0,0.0
1583189807985,6089386.0,4440365.0,0.0
1583189808033,6088166.0,4491943.0,0.0
1583189808079,6169739.0,4519749.0,0.0
1583189808131,6221027.0,4541361.0,0.0
1583189808177,6269482.0,4584766.0,0.0
1583189808227,6297597.0,4616387.0,0.0
1583189808276,6322369.0,4596091.0,0.0
1583189808325,6247193.0,4492463.0,0.0
1583189808373,6125303.0,4431973.0,0.0
1583189808417,6070454.0,4430199.0,0.0
1583189808471,6131128.0,4488309.0,0.0
1583189808517,6151202.0,4490398.0,0.0
1583189808569,6155886.0,4500297.0,0.0
1583189808616,6175277.0,4510477.0,0.0
1583189808666,6183415.0,4518625.0,0.0
1583189808715,6138854.0,4450108.0,0.0
1583189808759,5954340.0,4338848.0,0.0
1583189808813,5946962.0,4407740.0,0.0
1583189808860,6030023.0,4474400.0,0.0
1583189808910,6090160.0,4482091.0,0.0
1583189808958,6147640.0,4500527.0,0.0
1583189809006,6184348.0,4525194.0,0.0
1583189809054,6225698.0,4554183.0,0.0
1583189809100,6242983.0,4560618.0,0.0
1583189809152,6185804.0,4475246.0,0.0
1583189809199,6101907.0,4410205.0,0.0
