time,value,value2,value3
1586170526482,5652033.0,7190644.0,0.0
1586170526485,5765488.0,7310098.0,0.0
1586170526518,5569303.0,7120239.0,0.0
1586170526538,5646672.0,7199711.0,0.0
1586170526577,5666954.0,7278017.0,0.0
1586170526630,5580097.0,7055881.0,0.0
1586170526678,5658877.0,7167771.0,0.0
1586170526730,5609424.0,7158628.0,0.0
1586170526778,5633982.0,7126481.0,0.0
1586170526829,5663477.0,7189920.0,0.0
1586170526877,5733191.0,7324397.0,0.0
1586170526930,5736656.0,7291266.0,0.0
1586170526982,5766382.0,7309412.0,0.0
1586170527029,5769027.0,7317171.0,0.0
1586170527078,5788489.0,7321600.0,0.0
1586170527125,5829176.0,7327311.0,0.0
1586170527177,5844764.0,7346259.0,0.0
1586170527225,5898565.0,7308725.0,0.0
1586170527278,5918136.0,7314813.0,0.0
1586170527324,5969607.0,7541715.0,0.0
1586170527372,5914164.0,7523791.0,0.0
1586170527430,5946992.0,7512638.0,0.0
1586170527474,5958426.0,7561467.0,0.0
1586170527522,6008434.0,7640848.0,0.0
1586170527570,5995467.0,7582112.0,0.0
1586170527621,6009714.0,7596902.0,0.0
1586170527667,6015763.0,7616875.0,0.0
1586170527717,6046733.0,7653683.0,0.0
1586170527769,6126370.0,7717846.0,0.0
1586170527817,6151979.0,8183481.0,0.0
1586170527869,6107923.0,8060538.0,0.0
1586170527921,6083364.0,7958845.0,0.0
1586170527968,6040779.0,7922607.0,0.0
1586170528015,5976077.0,8014995.0,0.0
1586170528069,5980715.0,8016512.0,0.0
1586170528116,6023044.0,8112217.0,0.0
1586170528165,6168218.0,8177396.0,0.0
1586170528219,6126746.0,8060585.0,0.0
1586170528263,6171901.0,8051264.0,0.0
1586170528311,6219205.0,8082173.0,0.0
1586170528361,6240323.0,8074011.0,0.0
1586170528410,6266908.0,8116257.0,0.0
1586170528460,6288459.0,8196365.0,0.0
1586170528525,6220196.0,8223543.0,0.0
1586170528559,6097093.0,8023312.0,0.0
1586170528608,6081553.0,7826114.0,0.0
1586170528657,6195698.0,7986827.0,0.0
1586170528707,5901366.0,7610086.0,0.0
1586170528757,6104675.0,7745650.0,0.0
1586170528807,6103975.0,7780168.0,0.0
1586170528856,6254726.0,7890877.0,0.0
1586170528907,6082555.0,7754476.0,0.0
1586170528960,6140448.0,7760812.0,0.0
1586170529011,6176609.0,7774252.0,0.0
1586170529061,6159501.0,7745310.0,0.0
1586170529111,6160249.0,7728075.0,0.0
1586170529161,6180026.0,7749025.0,0.0
1586170529210,6205936.0,7768509.0,0.0
1586170529254,6128327.0,7642746.0,0.0
1586170529309,6037582.0,7423624.0,0.0
1586170529357,6037002.0,7331558.0,0.0
1586170529407,6093748.0,7397946.0,0.0
1586170529457,6194985.0,7503947.0,0.0
1586170529502,6262623.0,7556908.0,0.0
1586170529552,6212831.0,7455368.0,0.0
1586170529605,6220014.0,7447766.0,0.0
1586170529654,6230241.0,7452257.0,0.0
1586170529703,6245514.0,7457274.0,0.0
1586170529755,6274358.0,7472976.0,0.0
1586170529799,6282025.0,7499316.0,0.0
1586170529853,6258336.0,7444187.0,0.0
1586170529900,6122036.0,7514401.0,0.0
1586170529953,6241759.0,7629228.0,0.0
1586170530005,6332359.0,7672278.0,0.0
1586170530052,6350145.0,7648261.0,0.0
1586170530102,6339314.0,7594710.0,0.0
1586170530151,6364947.0,7579906.0,0.0
1586170530202,6373809.0,7580015.0,0.0
1586170530251,6393513.0,7561928.0,0.0
1586170530294,6344168.0,7437559.0,0.0
1586170530349,6336683.0,7424194.0,0.0
1586170530398,6347645.0,7486697.0,0.0
1586170530450,6370718.0,7533448.0,0.0
1586170530499,6381899.0,7537691.0,0.0
1586170530547,6435722.0,7634849.0,0.0
1586170530596,6406842.0,7612644.0,0.0
1586170530647,6358076.0,7529065.0,0.0
1586170530695,6329317.0,7499364.0,0.0
1586170530743,6341380.0,7498125.0,0.0
1586170530794,6431414.0,7566416.0,0.0
1586170530838,6414075.0,7565317.0,0.0
1586170530894,6439356.0,7549785.0,0.0
1586170530941,6489500.0,7600626.0,0.0
1586170530992,6428624.0,7642902.0,0.0
1586170531044,6268949.0,7690150.0,0.0
1586170531087,6125283.0,7660588.0,0.0
1586170531145,6078160.0,7631813.0,0.0
1586170531191,6020304.0,7558814.0,0.0
1586170531239,5929183.0,7512203.0,0.0
1586170531289,5878232.0,7492783.0,0.0
1586170531333,5876410.0,7529964.0,0.0
1586170531381,5901850.0,7523661.0,0.0
1586170531441,5890126.0,7530476.0,0.0
1586170531480,5873935.0,7526294.0,0.0
1586170531530,5883218.0,7524218.0,0.0
1586170531583,5917845.0,7540928.0,0.0
1586170531635,5886936.0,7532084.0,0.0
1586170531681,5883326.0,7534269.0,0.0
1586170531734,5754984.0,7356104.0,0.0
1586170531781,5770138.0,7333217.0,0.0
1586170531834,5908319.0,7422848.0,0.0
1586170531886,5713221.0,7328122.0,0.0
1586170531944,5726720.0,7356708.0,0.0
1586170531982,5624226.0,7328740.0,0.0
1586170532032,5634609.0,7339069.0,0.0
1586170532080,5583284.0,7338342.0,0.0
1586170532125,5588488.0,7344228.0,0.0
1586170532178,5584781.0,7340805.0,0.0
1586170532228,5566696.0,7337088.0,0.0
1586170532276,5528855.0,7335385.0,0.0
1586170532322,5471616.0,7373200.0,0.0
1586170532376,5467860.0,7411931.0,0.0
1586170532426,5433474.0,7454394.0,0.0
1586170532477,5428330.0,7465697.0,0.0
1586170532521,5401454.0,7521168.0,0.0
1586170532574,5359607.0,7575229.0,0.0
1586170532621,5385819.0,7652549.0,0.0
1586170532675,5372973.0,7709414.0,0.0
1586170532719,5383272.0,7782661.0,0.0
1586170532766,5387606.0,7840161.0,0.0
1586170532817,5407648.0,7887471.0,0.0
1586170532865,5419626.0,7940864.0,0.0
1586170532918,5425685.0,7972702.0,0.0
1586170532967,5446695.0,8035917.0,0.0
1586170533019,5461534.0,8073285.0,0.0
1586170533069,5481528.0,8082654.0,0.0
1586170533117,5484702.0,8104225.0,0.0
1586170533168,5484329.0,8145076.0,0.0
1586170533212,5489388.0,8163133.0,0.0
1586170533267,5494942.0,8192308.0,0.0
1586170533315,5501702.0,8218679.0,0.0
1586170533364,5520186.0,8230945.0,0.0
1586170533409,5544395.0,8235236.0,0.0
1586170533471,5507547.0,8226996.0,0.0
1586170533507,5533166.0,8259378.0,0.0
1586170533566,5532780.0,8283581.0,0.0
1586170533612,5538625.0,8311067.0,0.0
1586170533661,5549537.0,8334235.0,0.0
1586170533711,5557434.0,8351610.0,0.0
1586170533761,5561370.0,8363069.0,0.0
1586170533807,5565342.0,8383248.0,0.0
1586170533859,5574966.0,8412872.0,0.0
1586170533909,5589430.0,8445409.0,0.0
1586170533964,5610884.0,8468916.0,0.0
1586170534006,5622185.0,8470681.0,0.0
1586170534053,5614084.0,8468235.0,0.0
1586170534101,5611585.0,8478516.0,0.0
1586170534152,5667015.0,8493289.0,0.0
1586170534201,5759173.0,8473313.0,0.0
1586170534252,5848228.0,8438656.0,0.0
1586170534301,5886635.0,8416976.0,0.0
1586170534354,6035202.0,8388591.0,0.0
1586170534403,6128073.0,8391627.0,0.0
1586170534450,6089304.0,8354537.0,0.0
1586170534503,6013155.0,8315033.0,0.0
1586170534551,6035987.0,8302970.0,0.0
1586170534601,6091634.0,8322034.0,0.0
1586170534652,6056320.0,8306671.0,0.0
1586170534694,5994539.0,8323364.0,0.0
1586170534749,6040031.0,8298852.0,0.0
1586170534798,5978806.0,8283333.0,0.0
1586170534844,6030880.0,8278021.0,0.0
1586170534897,6426849.0,8345463.0,0.0
1586170534945,6308321.0,8333771.0,0.0
1586170534996,6279345.0,8319168.0,0.0
1586170535045,6215172.0,8404137.0,0.0
1586170535090,6250814.0,8408011.0,0.0
1586170535145,6211067.0,8410192.0,0.0
1586170535194,6228890.0,8352091.0,0.0
1586170535242,6181221.0,8293648.0,0.0
1586170535293,6356048.0,8265293.0,0.0
1586170535335,6215886.0,8289622.0,0.0
1586170535392,6353525.0,8402946.0,0.0
1586170535436,6585643.0,8434273.0,0.0
1586170535488,6408244.0,8390263.0,0.0
1586170535539,6410066.0,8373445.0,0.0
1586170535585,5737200.0,8274073.0,0.0
1586170535638,5991545.0,8321165.0,0.0
1586170535684,5735619.0,8493693.0,0.0
1586170535737,5736923.0,8491803.0,0.0
1586170535788,5758570.0,8684276.0,0.0
1586170535835,5660229.0,8790091.0,0.0
1586170535889,5641951.0,8655273.0,0.0
1586170535938,5671604.0,8651881.0,0.0
1586170535985,5702415.0,8618944.0,0.0
1586170536034,5731115.0,8635155.0,0.0
1586170536084,5792340.0,8672940.0,0.0
1586170536128,5822175.0,8720653.0,0.0
1586170536181,5861402.0,8808829.0,0.0
1586170536232,5889943.0,8962635.0,0.0
1586170536279,5908549.0,9112197.0,0.0
1586170536332,5919704.0,9207699.0,0.0
1586170536375,6012081.0,9622856.0,0.0
1586170536429,6135222.0,1.0310164E7,0.0
1586170536478,6218893.0,1.0474605E7,0.0
1586170536526,6201615.0,1.0431213E7,0.0
1586170536577,6176707.0,1.0368076E7,0.0
1586170536628,6207518.0,1.0220602E7,0.0
1586170536670,6192535.0,1.0236518E7,0.0
1586170536721,6225327.0,1.0189706E7,0.0
1586170536776,6322327.0,1.012533E7,0.0
1586170536819,6293760.0,1.0059081E7,0.0
1586170536875,6278185.0,1.0012657E7,0.0
1586170536923,6263009.0,9962733.0,0.0
1586170536974,6237340.0,9887773.0,0.0
1586170537022,6245213.0,9872427.0,0.0
1586170537072,6258553.0,9845460.0,0.0
1586170537120,6282955.0,9805630.0,0.0
1586170537168,6310868.0,9758778.0,0.0
1586170537218,6338336.0,9663323.0,0.0
1586170537266,6336128.0,9635562.0,0.0
1586170537317,6333808.0,9669997.0,0.0
1586170537366,6345942.0,9734392.0,0.0
1586170537413,6370186.0,9808069.0,0.0
1586170537469,6397776.0,9930514.0,0.0
1586170537512,6453013.0,1.0061666E7,0.0
1586170537565,6506003.0,1.0167237E7,0.0
1586170537610,6861140.0,1.0493348E7,0.0
1586170537668,9373518.0,1.1017047E7,0.0
1586170537709,9403075.0,1.0493125E7,0.0
1586170537763,9042674.0,1.0354421E7,0.0
1586170537808,9095102.0,1.0117474E7,0.0
1586170537861,9290472.0,9848938.0,0.0
1586170537910,9890120.0,9848001.0,0.0
1586170537968,9602041.0,9765613.0,0.0
1586170538004,1.0283298E7,9789856.0,0.0
1586170538058,1.0383872E7,9742189.0,0.0
1586170538109,1.1892258E7,9771966.0,0.0
1586170538157,1.1771084E7,9722773.0,0.0
1586170538209,1.1805045E7,9713228.0,0.0
1586170538257,1.3055099E7,9559219.0,0.0
1586170538305,1.2185198E7,9114020.0,0.0
1586170538354,1.2151326E7,8971348.0,0.0
1586170538404,1.2159947E7,8872718.0,0.0
1586170538450,1.2467659E7,8928932.0,0.0
1586170538504,1.2762668E7,9118496.0,0.0
1586170538548,1.2574534E7,9119637.0,0.0
1586170538602,1.2358126E7,8926997.0,0.0
1586170538648,1.229888E7,8782390.0,0.0
1586170538700,1.3306138E7,8951504.0,0.0
1586170538748,1.3011054E7,9002426.0,0.0
1586170538799,1.3168066E7,9187902.0,0.0
1586170538847,1.3603654E7,9577943.0,0.0
1586170538898,1.5299778E7,8921523.0,0.0
1586170538951,1.5755436E7,8376517.0,0.0
1586170539003,1.4936236E7,8335934.0,0.0
1586170539041,1.4394352E7,7993863.0,0.0
1586170539088,1.4272768E7,7882411.0,0.0
1586170539140,1.4313456E7,7832181.0,0.0
1586170539193,1.4416122E7,7911069.0,0.0
1586170539240,1.4459719E7,7926659.0,0.0
1586170539292,1.4410624E7,7924706.0,0.0
1586170539337,1.4236953E7,7606304.0,0.0
1586170539390,1.2178068E7,6383345.0,0.0
1586170539439,1.1591808E7,5911365.0,0.0
1586170539494,9901434.0,6331366.0,0.0
1586170539539,9694996.0,5746143.0,0.0
1586170539594,1.0735052E7,5954636.0,0.0
1586170539633,1.0749639E7,6341471.0,0.0
1586170539688,1.0136847E7,6398368.0,0.0
1586170539737,1.0545623E7,6708466.0,0.0
1586170539786,1.0552744E7,6790007.0,0.0
1586170539836,1.0681738E7,6853073.0,0.0
1586170539885,1.0792325E7,6807042.0,0.0
1586170539931,1.0840934E7,6764620.0,0.0
1586170539983,1.0982379E7,6735809.0,0.0
1586170540032,1.0950922E7,6696796.0,0.0
1586170540083,1.0921687E7,6716802.0,0.0
1586170540130,1.1176422E7,6791097.0,0.0
1586170540181,1.1196395E7,6914015.0,0.0
1586170540231,1.1118208E7,7035359.0,0.0
1586170540279,1.1905326E7,7478862.0,0.0
1586170540334,1.2647362E7,7090816.0,0.0
1586170540379,1.3362247E7,7006741.0,0.0
1586170540438,1.2872719E7,6965411.0,0.0
1586170540472,1.2369802E7,6910728.0,0.0
1586170540521,1.2056683E7,6921003.0,0.0
1586170540572,1.1891189E7,6905741.0,0.0
1586170540625,1.1748377E7,6862575.0,0.0
1586170540673,1.1740687E7,6825640.0,0.0
1586170540723,1.1783372E7,6817819.0,0.0
1586170540768,1.2066426E7,6959000.0,0.0
1586170540817,1.1963023E7,6968093.0,0.0
1586170540870,1.1880934E7,6974172.0,0.0
1586170540923,1.1936071E7,6975991.0,0.0
1586170540976,1.184942E7,6990935.0,0.0
1586170541020,1.1941084E7,7033371.0,0.0
1586170541072,1.2156098E7,7036691.0,0.0
1586170541119,1.2144414E7,6997299.0,0.0
1586170541168,1.2072468E7,6927112.0,0.0
1586170541217,1.2034831E7,6893796.0,0.0
1586170541268,1.20079E7,6867197.0,0.0
1586170541316,1.2137978E7,6887568.0,0.0
1586170541365,1.2276142E7,6903573.0,0.0
1586170541416,1.2359715E7,6904832.0,0.0
1586170541460,1.2343019E7,6917411.0,0.0
1586170541514,1.225261E7,6924094.0,0.0
1586170541561,1.2193996E7,6895011.0,0.0
1586170541615,1.211008E7,6826624.0,0.0
1586170541662,1.1958435E7,6718074.0,0.0
1586170541715,1.1824061E7,6638276.0,0.0
1586170541760,1.1754874E7,6619574.0,0.0
1586170541810,1.1582571E7,6542382.0,0.0
1586170541854,1.1313817E7,6430393.0,0.0
1586170541909,1.1186908E7,6375982.0,0.0
1586170541964,1.1002009E7,6245986.0,0.0
1586170542008,1.0781296E7,6184344.0,0.0
1586170542051,1.064025E7,6152894.0,0.0
1586170542101,1.040663E7,6071960.0,0.0
1586170542149,1.0187509E7,6035752.0,0.0
1586170542199,1.0148275E7,6054135.0,0.0
1586170542253,1.0158105E7,6077660.0,0.0
1586170542298,1.0213954E7,6103878.0,0.0
1586170542356,1.0337105E7,6125023.0,0.0
1586170542397,1.0490885E7,6156230.0,0.0
1586170542457,1.0548587E7,6164368.0,0.0
1586170542496,1.0569559E7,6144226.0,0.0
1586170542552,1.0602496E7,6141922.0,0.0
1586170542598,1.0584857E7,6155746.0,0.0
1586170542649,1.0539299E7,6090269.0,0.0
1586170542696,1.0455383E7,6056379.0,0.0
1586170542747,1.0416204E7,6055729.0,0.0
1586170542793,1.0433699E7,6063989.0,0.0
1586170542845,1.0414694E7,6059185.0,0.0
1586170542891,1.041452E7,6060987.0,0.0
1586170542939,1.0389734E7,6061047.0,0.0
1586170542996,1.044011E7,6075310.0,0.0
1586170543039,1.0588707E7,6073962.0,0.0
1586170543095,1.0644183E7,6076326.0,0.0
1586170543142,1.0617344E7,6056153.0,0.0
1586170543196,1.067524E7,6041692.0,0.0
1586170543235,1.0820705E7,6060260.0,0.0
1586170543291,1.0874644E7,6087328.0,0.0
1586170543339,1.0940636E7,6090632.0,0.0
1586170543389,1.0927498E7,6089177.0,0.0
1586170543433,1.0920857E7,6081190.0,0.0
1586170543483,1.0938152E7,6087282.0,0.0
1586170543532,1.1055636E7,6122719.0,0.0
1586170543586,1.1057428E7,6163276.0,0.0
1586170543632,1.0893194E7,6097832.0,0.0
1586170543680,1.073069E7,6018230.0,0.0
1586170543734,1.0656808E7,5980369.0,0.0
1586170543784,1.062062E7,5963321.0,0.0
1586170543837,1.0589532E7,5955240.0,0.0
1586170543882,1.0541434E7,5921685.0,0.0
1586170543937,1.0475156E7,5892662.0,0.0
1586170543983,1.0386227E7,5859801.0,0.0
1586170544032,1.0330465E7,5852467.0,0.0
1586170544079,1.025923E7,5842388.0,0.0
1586170544130,1.0212843E7,5810211.0,0.0
1586170544179,1.0093967E7,5731853.0,0.0
1586170544221,9989022.0,5667635.0,0.0
1586170544277,9673881.0,5518237.0,0.0
1586170544322,9584865.0,5536457.0,0.0
1586170544371,9573212.0,5581121.0,0.0
1586170544428,9541099.0,5609828.0,0.0
1586170544474,9501977.0,5626378.0,0.0
1586170544523,9472885.0,5658389.0,0.0
1586170544571,9482659.0,5690414.0,0.0
1586170544622,9525427.0,5707465.0,0.0
1586170544672,9586088.0,5728291.0,0.0
1586170544720,9597859.0,5736080.0,0.0
1586170544769,9623244.0,5744751.0,0.0
1586170544814,9634416.0,5739416.0,0.0
1586170544869,9577799.0,5715605.0,0.0
1586170544919,9661542.0,5725592.0,0.0
1586170544970,9705395.0,5714952.0,0.0
1586170545010,9663221.0,5686579.0,0.0
1586170545061,9712404.0,5705632.0,0.0
1586170545113,9691432.0,5688004.0,0.0
1586170545164,9664819.0,5677774.0,0.0
1586170545214,9673963.0,5687655.0,0.0
1586170545262,9684510.0,5681516.0,0.0
1586170545313,9617776.0,5659694.0,0.0
1586170545361,9592417.0,5637626.0,0.0
1586170545407,9571072.0,5637686.0,0.0
1586170545464,9564149.0,5633124.0,0.0
1586170545511,9560529.0,5628394.0,0.0
1586170545559,9552896.0,5630578.0,0.0
1586170545609,9545144.0,5625273.0,0.0
1586170545657,9564892.0,5630123.0,0.0
1586170545708,9584896.0,5647719.0,0.0
1586170545752,9606236.0,5665285.0,0.0
1586170545802,9631882.0,5677774.0,0.0
1586170545850,9632793.0,5686018.0,0.0
1586170545902,9631795.0,5690596.0,0.0
1586170545958,9589995.0,5663147.0,0.0
1586170546007,9534970.0,5634638.0,0.0
1586170546053,9492172.0,5622710.0,0.0
1586170546097,9494881.0,5625741.0,0.0
1586170546151,9500436.0,5629881.0,0.0
1586170546200,9511920.0,5645674.0,0.0
1586170546251,9529103.0,5679850.0,0.0
1586170546299,9561328.0,5694932.0,0.0
1586170546350,9598228.0,5705722.0,0.0
1586170546394,9605980.0,5730472.0,0.0
1586170546451,9590307.0,5739778.0,0.0
1586170546494,9627919.0,5724759.0,0.0
1586170546567,9608345.0,5697644.0,0.0
1586170546614,9510696.0,5708435.0,0.0
1586170546642,9302891.0,5711210.0,0.0
1586170546694,9084426.0,5827170.0,0.0
1586170546746,9104517.0,5923428.0,0.0
1586170546794,9405409.0,6049666.0,0.0
1586170546843,9593984.0,6141892.0,0.0
1586170546890,9777797.0,6134435.0,0.0
1586170546939,9756856.0,6093361.0,0.0
1586170546990,9544432.0,5991723.0,0.0
1586170547038,9672258.0,6007061.0,0.0
1586170547092,9736908.0,6025550.0,0.0
1586170547134,9735429.0,6055304.0,0.0
1586170547190,9653191.0,6082434.0,0.0
1586170547240,9735485.0,6148196.0,0.0
1586170547288,9850342.0,6178328.0,0.0
1586170547338,1.0092144E7,6194848.0,0.0
1586170547387,1.0314624E7,6218493.0,0.0
1586170547441,1.037506E7,6244847.0,0.0
1586170547486,1.0405319E7,6244515.0,0.0
1586170547529,1.0354944E7,6231813.0,0.0
1586170547578,1.0148387E7,6156639.0,0.0
1586170547628,1.0041907E7,6164036.0,0.0
1586170547676,9910210.0,6143817.0,0.0
1586170547728,9870945.0,6132858.0,0.0
1586170547776,9834813.0,6123476.0,0.0
1586170547825,9831710.0,6143771.0,0.0
1586170547873,9863449.0,6177857.0,0.0
1586170547923,9830369.0,6171735.0,0.0
1586170547974,9739417.0,6162230.0,0.0
1586170548020,9664819.0,6172734.0,0.0
1586170548071,9681689.0,6191787.0,0.0
1586170548119,9720980.0,6219310.0,0.0
1586170548170,9779962.0,6255760.0,0.0
1586170548218,9832934.0,6298169.0,0.0
1586170548267,9882685.0,6354020.0,0.0
1586170548314,9931294.0,6401263.0,0.0
1586170548369,1.001259E7,6403186.0,0.0
1586170548415,1.0039915E7,6350156.0,0.0
1586170548467,1.0009507E7,6358067.0,0.0
1586170548513,1.0094822E7,6390743.0,0.0
1586170548563,1.0361553E7,6445489.0,0.0
1586170548617,1.0667863E7,6497960.0,0.0
1586170548669,1.0841333E7,6531682.0,0.0
1586170548717,1.0968243E7,6539168.0,0.0
1586170548760,1.0999362E7,6560691.0,0.0
1586170548811,1.0999418E7,6579333.0,0.0
1586170548863,1.0967961E7,6597098.0,0.0
1586170548915,1.0920944E7,6623392.0,0.0
1586170548962,1.0886778E7,6626971.0,0.0
1586170549015,1.0812241E7,6601477.0,0.0
1586170549061,1.0805688E7,6601112.0,0.0
1586170549106,1.0777077E7,6589080.0,0.0
1586170549157,1.0770211E7,6634790.0,0.0
1586170549212,1.0734935E7,6681123.0,0.0
1586170549255,1.0750064E7,6739611.0,0.0
1586170549311,1.0784773E7,6807361.0,0.0
1586170549362,1.0837713E7,6849949.0,0.0
1586170549403,1.0872135E7,6866516.0,0.0
1586170549460,1.0919664E7,6849102.0,0.0
1586170549502,1.0950466E7,6830292.0,0.0
1586170549557,1.1010273E7,6812045.0,0.0
1586170549605,1.1079398E7,6802162.0,0.0
1586170549654,1.1101967E7,6836719.0,0.0
1586170549703,1.1095301E7,6863681.0,0.0
1586170549753,1.123586E7,6965563.0,0.0
1586170549801,1.1320371E7,7035449.0,0.0
1586170549854,1.166552E7,7097635.0,0.0
1586170549895,1.1518945E7,7122432.0,0.0
1586170549953,1.1482132E7,7163838.0,0.0
1586170549998,1.1487119E7,7210912.0,0.0
1586170550045,1.164697E7,7222280.0,0.0
1586170550101,1.1676462E7,7168111.0,0.0
1586170550151,1.1600983E7,7112883.0,0.0
1586170550199,1.1561861E7,7107063.0,0.0
1586170550247,1.1598187E7,7098771.0,0.0
1586170550298,1.1546132E7,7013912.0,0.0
1586170550344,1.1524817E7,7041026.0,0.0
1586170550397,1.1375708E7,7066929.0,0.0
1586170550447,1.1358668E7,7200729.0,0.0
1586170550497,1.160856E7,7279147.0,0.0
1586170550537,1.1810124E7,7226692.0,0.0
1586170550593,1.1617105E7,7144998.0,0.0
1586170550637,1.1517834E7,7131827.0,0.0
1586170550693,1.1473269E7,7120702.0,0.0
1586170550739,1.1424773E7,7075308.0,0.0
1586170550785,1.1442723E7,7065049.0,0.0
1586170550841,1.137984E7,6996346.0,0.0
1586170550887,1.1459507E7,7010957.0,0.0
1586170550932,1.1498716E7,6981841.0,0.0
1586170550986,1.153536E7,7009457.0,0.0
1586170551038,1.1534448E7,7051530.0,0.0
1586170551078,1.1618247E7,7073446.0,0.0
1586170551135,1.1651072E7,7101954.0,0.0
1586170551181,1.1651783E7,7108578.0,0.0
1586170551233,1.1607336E7,7124779.0,0.0
1586170551278,1.1597189E7,7119626.0,0.0
1586170551326,1.135747E7,7085630.0,0.0
1586170551381,1.1282334E7,7012033.0,0.0
1586170551432,1.1447854E7,7032039.0,0.0
1586170551481,1.1569894E7,7017382.0,0.0
1586170551524,1.1544591E7,6900240.0,0.0
1586170551579,1.1597644E7,6934628.0,0.0
1586170551626,1.1582371E7,6981719.0,0.0
1586170551677,1.1539061E7,6939008.0,0.0
1586170551722,1.1589555E7,6993026.0,0.0
1586170551777,1.1604085E7,6959817.0,0.0
1586170551819,1.1586421E7,6931461.0,0.0
1586170551877,1.145774E7,6830521.0,0.0
1586170551918,1.1250565E7,6807059.0,0.0
1586170551967,1.1265177E7,6775061.0,0.0
1586170552019,1.1289712E7,6996071.0,0.0
1586170552068,1.1254809E7,7085965.0,0.0
1586170552116,1.179437E7,7141043.0,0.0
1586170552171,1.1826165E7,7148726.0,0.0
1586170552221,1.2139233E7,7135602.0,0.0
1586170552270,1.2415139E7,7151000.0,0.0
1586170552319,1.2319713E7,7054439.0,0.0
1586170552361,1.2108625E7,6973883.0,0.0
1586170552411,1.2001177E7,6855467.0,0.0
1586170552462,1.2044487E7,6887279.0,0.0
1586170552516,1.2065459E7,6851072.0,0.0
1586170552558,1.1966474E7,6833565.0,0.0
1586170552609,1.1934786E7,6778624.0,0.0
1586170552659,1.1828961E7,6820760.0,0.0
1586170552707,1.1828392E7,6994012.0,0.0
1586170552756,1.2029813E7,7012229.0,0.0
1586170552805,1.1745387E7,6771227.0,0.0
1586170552853,1.1701422E7,6777747.0,0.0
1586170552904,1.1492131E7,6544566.0,0.0
1586170552953,1.1502561E7,6668816.0,0.0
1586170553002,1.1536583E7,6764620.0,0.0
1586170553058,1.1653806E7,6893965.0,0.0
1586170553099,1.1688883E7,7007863.0,0.0
1586170553150,1.1895208E7,6995875.0,0.0
1586170553199,1.168535E7,6948240.0,0.0
1586170553249,1.1749094E7,7014032.0,0.0
1586170553302,1.1735188E7,7040814.0,0.0
1586170553346,1.1701191E7,7030446.0,0.0
1586170553403,1.1768637E7,7069309.0,0.0
1586170553448,1.1806479E7,7087343.0,0.0
1586170553495,1.1916267E7,7029204.0,0.0
1586170553544,1.1873638E7,7021489.0,0.0
1586170553595,1.1854264E7,6976324.0,0.0
1586170553643,1.1863895E7,6976446.0,0.0
1586170553699,1.1863608E7,6970988.0,0.0
1586170553739,1.1886177E7,6957652.0,0.0
1586170553791,1.1878082E7,6950724.0,0.0
1586170553839,1.1854064E7,6941706.0,0.0
1586170553889,1.184939E7,6942055.0,0.0
1586170553941,1.1834685E7,6956590.0,0.0
1586170553993,1.1829872E7,6959090.0,0.0
1586170554041,1.1807278E7,6976413.0,0.0
1586170554093,1.1761884E7,6937507.0,0.0
1586170554142,1.1653806E7,6926777.0,0.0
1586170554185,1.1598499E7,6908726.0,0.0
1586170554241,1.1463157E7,6891980.0,0.0
1586170554290,1.1336529E7,6888265.0,0.0
1586170554339,1.1325189E7,6877140.0,0.0
1586170554381,1.1291023E7,6879444.0,0.0
1586170554438,1.1302364E7,6868956.0,0.0
1586170554479,1.1285125E7,6970580.0,0.0
1586170554537,1.1392517E7,7096270.0,0.0
1586170554583,1.1469967E7,7022096.0,0.0
1586170554630,1.1461217E7,6979976.0,0.0
1586170554684,1.1448565E7,6907697.0,0.0
1586170554734,1.1350947E7,6899118.0,0.0
1586170554783,1.1320488E7,6883401.0,0.0
1586170554829,1.1175654E7,6882990.0,0.0
1586170554880,1.1211898E7,6880808.0,0.0
1586170554924,1.1275806E7,6963137.0,0.0
1586170554979,1.1322823E7,7092180.0,0.0
1586170555029,1.1395E7,7146378.0,0.0
1586170555078,1.1460792E7,7166218.0,0.0
1586170555129,1.1488317E7,7180026.0,0.0
1586170555171,1.1536015E7,7189694.0,0.0
1586170555222,1.1524331E7,7238301.0,0.0
1586170555274,1.1579581E7,7276996.0,0.0
1586170555326,1.1626255E7,7285953.0,0.0
1586170555375,1.1672811E7,7331861.0,0.0
1586170555423,1.157998E7,7177161.0,0.0
1586170555465,1.1458339E7,7197045.0,0.0
1586170555522,1.1367613E7,7308625.0,0.0
1586170555569,1.1318405E7,7368162.0,0.0
1586170555621,1.1462159E7,7442957.0,0.0
1586170555668,1.154496E7,7451506.0,0.0
1586170555721,1.1709486E7,7431089.0,0.0
1586170555761,1.1791718E7,7393397.0,0.0
1586170555812,1.1861217E7,7303217.0,0.0
1586170555861,1.1863639E7,7295212.0,0.0
1586170555912,1.1818301E7,7293107.0,0.0
1586170555961,1.1812864E7,7309611.0,0.0
1586170556017,1.1805655E7,7333149.0,0.0
1586170556064,1.1744419E7,7327313.0,0.0
1586170556109,1.1751654E7,7363932.0,0.0
1586170556164,1.1821552E7,7379801.0,0.0
1586170556214,1.1816478E7,7355974.0,0.0
1586170556262,1.17035E7,7300594.0,0.0
1586170556309,1.1642726E7,7270100.0,0.0
1586170556353,1.1645317E7,7284588.0,0.0
1586170556402,1.1701591E7,7262537.0,0.0
1586170556451,1.1773854E7,7270280.0,0.0
1586170556503,1.18191E7,7266432.0,0.0
1586170556550,1.1885921E7,7206427.0,0.0
1586170556604,1.1859788E7,7263945.0,0.0
1586170556650,1.1907036E7,7231814.0,0.0
1586170556704,1.1816678E7,7227253.0,0.0
1586170556747,1.1844915E7,7228236.0,0.0
1586170556804,1.1786449E7,7187603.0,0.0
1586170556853,1.1887001E7,7268569.0,0.0
1586170556902,1.1988157E7,7261930.0,0.0
1586170556946,1.2170659E7,7304004.0,0.0
1586170557000,1.2319626E7,7402112.0,0.0
1586170557043,1.2451409E7,7498308.0,0.0
1586170557099,1.2586444E7,7545627.0,0.0
1586170557143,1.2684605E7,7466084.0,0.0
1586170557192,1.2568176E7,7531773.0,0.0
1586170557245,1.2422031E7,7542413.0,0.0
1586170557298,1.2475345E7,7538881.0,0.0
1586170557347,1.2495549E7,7551430.0,0.0
1586170557389,1.2651463E7,7590685.0,0.0
1586170557444,1.2701132E7,7593079.0,0.0
1586170557490,1.2833571E7,7619287.0,0.0
1586170557542,1.2839951E7,7604174.0,0.0
1586170557592,1.2764958E7,7514539.0,0.0
1586170557641,1.2876625E7,7546218.0,0.0
1586170557683,1.301442E7,7502082.0,0.0
1586170557740,1.3116569E7,7480377.0,0.0
1586170557785,1.3103723E7,7450218.0,0.0
1586170557839,1.3142159E7,7482850.0,0.0
1586170557885,1.3090585E7,7454916.0,0.0
1586170557937,1.3048273E7,7444776.0,0.0
1586170557986,1.296088E7,7386681.0,0.0
1586170558034,1.2874659E7,7360825.0,0.0
1586170558082,1.2731105E7,7359218.0,0.0
1586170558131,1.2801628E7,7392531.0,0.0
1586170558183,1.2714951E7,7393397.0,0.0
1586170558233,1.2678906E7,7480439.0,0.0
1586170558281,1.2675829E7,7568223.0,0.0
1586170558323,1.2753105E7,7562479.0,0.0
1586170558373,1.2864773E7,7479712.0,0.0
1586170558424,1.2752389E7,7377936.0,0.0
1586170558472,1.2742164E7,7319524.0,0.0
1586170558527,1.2680729E7,7261535.0,0.0
1586170558569,1.2633768E7,7223797.0,0.0
1586170558621,1.2601856E7,7213505.0,0.0
1586170558667,1.2521221E7,7224524.0,0.0
1586170558719,1.2525834E7,7250137.0,0.0
1586170558767,1.2572052E7,7314445.0,0.0
1586170558815,1.2579635E7,7395927.0,0.0
1586170558866,1.2695234E7,7435667.0,0.0
1586170558921,1.2802995E7,7391471.0,0.0
1586170558965,1.2713697E7,7322161.0,0.0
1586170559013,1.2652093E7,7338953.0,0.0
1586170559068,1.2540851E7,7445321.0,0.0
1586170559111,1.2536407E7,7469952.0,0.0
1586170559168,1.2566297E7,7519452.0,0.0
1586170559218,1.2593566E7,7584457.0,0.0
1586170559263,1.2740623E7,7657373.0,0.0
1586170559315,1.2887623E7,7666739.0,0.0
1586170559366,1.2984386E7,7645627.0,0.0
1586170559407,1.3024819E7,7648051.0,0.0
1586170559467,1.2996126E7,7610662.0,0.0
1586170559506,1.3043655E7,7604267.0,0.0
1586170559555,1.2953702E7,7550022.0,0.0
1586170559606,1.2898478E7,7544657.0,0.0
1586170559654,1.28495E7,7501687.0,0.0
1586170559708,1.2814935E7,7459494.0,0.0
1586170559753,1.2790973E7,7510993.0,0.0
1586170559808,1.283693E7,7462432.0,0.0
1586170559858,1.2914037E7,7411872.0,0.0
1586170559906,1.284417E7,7324966.0,0.0
1586170559952,1.2813399E7,7292274.0,0.0
1586170559998,1.2810803E7,7247455.0,0.0
1586170560053,1.275051E7,7229420.0,0.0
1586170560094,1.2691415E7,7246894.0,0.0
1586170560145,1.2627558E7,7348594.0,0.0
1586170560200,1.2672752E7,7439850.0,0.0
1586170560247,1.2686515E7,7465812.0,0.0
1586170560292,1.272897E7,7466814.0,0.0
1586170560348,1.2772136E7,7424043.0,0.0
1586170560399,1.2771594E7,7428618.0,0.0
1586170560448,1.2761594E7,7406126.0,0.0
1586170560494,1.2690048E7,7432241.0,0.0
1586170560545,1.2639098E7,7436317.0,0.0
1586170560594,1.265155E7,7451430.0,0.0
1586170560645,1.2606187E7,7431347.0,0.0
1586170560688,1.2697369E7,7454491.0,0.0
1586170560743,1.2689018E7,7532288.0,0.0
1586170560787,1.264132E7,7601900.0,0.0
1586170560841,1.2619806E7,7617225.0,0.0
1586170560889,1.260502E7,7603720.0,0.0
1586170560941,1.2535726E7,7579849.0,0.0
1586170560991,1.2481525E7,7548688.0,0.0
1586170561032,1.2422205E7,7496352.0,0.0
1586170561087,1.2529909E7,7434880.0,0.0
1586170561136,1.2539883E7,7352853.0,0.0
1586170561184,1.2504494E7,7311566.0,0.0
1586170561228,1.2469872E7,7250077.0,0.0
1586170561284,1.2440099E7,7246758.0,0.0
1586170561327,1.2510679E7,7220902.0,0.0
1586170561383,1.2567808E7,7292440.0,0.0
1586170561427,1.2522132E7,7264795.0,0.0
1586170561482,1.2498252E7,7260051.0,0.0
1586170561529,1.2386984E7,7281587.0,0.0
1586170561573,1.2503726E7,7309840.0,0.0
1586170561624,1.2539171E7,7314461.0,0.0
1586170561673,1.2611773E7,7379619.0,0.0
1586170561722,1.2652405E7,7464872.0,0.0
1586170561772,1.267181E7,7514466.0,0.0
1586170561819,1.2696227E7,7518586.0,0.0
1586170561868,1.2696089E7,7564086.0,0.0
1586170561924,1.2589946E7,7590928.0,0.0
1586170561969,1.2671155E7,7600825.0,0.0
1586170562023,1.2886538E7,7623985.0,0.0
1586170562071,1.2850037E7,7714908.0,0.0
1586170562115,1.3329879E7,7759117.0,0.0
1586170562170,1.3635358E7,7680291.0,0.0
1586170562213,1.3174272E7,7821213.0,0.0
1586170562269,1.3425418E7,7908166.0,0.0
1586170562312,1.3442969E7,7888310.0,0.0
1586170562368,1.3442227E7,7910182.0,0.0
1586170562413,1.3464309E7,7868729.0,0.0
1586170562469,1.3455365E7,7916154.0,0.0
1586170562507,1.3359907E7,7809073.0,0.0
1586170562558,1.3196267E7,7808345.0,0.0
1586170562609,1.316225E7,7825002.0,0.0
1586170562663,1.323414E7,7793266.0,0.0
1586170562710,1.3300587E7,7835825.0,0.0
1586170562761,1.3331558E7,7817774.0,0.0
1586170562810,1.3525857E7,7879930.0,0.0
1586170562858,1.3506252E7,7875080.0,0.0
1586170562910,1.3426529E7,7829988.0,0.0
1586170562952,1.3379742E7,7802950.0,0.0
1586170563006,1.3412792E7,7760710.0,0.0
1586170563050,1.3428065E7,7807482.0,0.0
1586170563106,1.3395983E7,7824669.0,0.0
1586170563149,1.3405102E7,7732292.0,0.0
1586170563206,1.3406981E7,7757785.0,0.0
1586170563249,1.3215846E7,7775637.0,0.0
1586170563304,1.3264998E7,7825609.0,0.0
1586170563350,1.3338311E7,7839144.0,0.0
1586170563395,1.3427671E7,7816044.0,0.0
1586170563451,1.343744E7,7789810.0,0.0
1586170563494,1.3433681E7,7741189.0,0.0
1586170563542,1.3394616E7,7717454.0,0.0
1586170563592,1.3352985E7,7710662.0,0.0
1586170563648,1.3233566E7,7704842.0,0.0
1586170563692,1.3048673E7,7750282.0,0.0
1586170563746,1.293273E7,7801782.0,0.0
1586170563794,1.2897367E7,7699600.0,0.0
1586170563845,1.3009177E7,7895069.0,0.0
1586170563894,1.3302778E7,7962000.0,0.0
1586170563936,1.3495884E7,7974231.0,0.0
1586170563994,1.359681E7,7906058.0,0.0
1586170564035,1.3742044E7,7843494.0,0.0
1586170564090,1.3747343E7,7888825.0,0.0
1586170564132,1.3747768E7,7900922.0,0.0
1586170564183,1.3761561E7,7888901.0,0.0
1586170564232,1.3717109E7,7909242.0,0.0
1586170564282,1.3659863E7,7950011.0,0.0
1586170564333,1.3585326E7,7970094.0,0.0
1586170564377,1.3411599E7,8017702.0,0.0
1586170564435,1.331053E7,8053000.0,0.0
1586170564477,1.3272663E7,8085495.0,0.0
1586170564534,1.3282662E7,8100000.0,0.0
1586170564582,1.3370168E7,8192863.0,0.0
1586170564632,1.3365493E7,8213111.0,0.0
1586170564673,1.3518735E7,8172598.0,0.0
1586170564730,1.3661573E7,8197484.0,0.0
1586170564773,1.3691637E7,8049922.0,0.0
1586170564826,1.3679129E7,7945344.0,0.0
1586170564873,1.3664849E7,7891978.0,0.0
1586170564928,1.3619691E7,7831900.0,0.0
1586170564974,1.3492464E7,7836113.0,0.0
1586170565016,1.3462205E7,7893661.0,0.0
1586170565072,1.3506339E7,7993722.0,0.0
1586170565116,1.3618918E7,7963411.0,0.0
1586170565170,1.3629235E7,7990086.0,0.0
1586170565219,1.3463342E7,8061791.0,0.0
1586170565272,1.3318906E7,8094104.0,0.0
1586170565320,1.3206497E7,8098968.0,0.0
1586170565370,1.3164753E7,8118566.0,0.0
1586170565412,1.3182592E7,8145497.0,0.0
1586170565466,1.3296256E7,8192953.0,0.0
1586170565511,1.3533921E7,8315144.0,0.0
1586170565560,1.3854704E7,8340106.0,0.0
1586170565615,1.3927249E7,8314765.0,0.0
1586170565662,1.3990507E7,8219356.0,0.0
1586170565713,1.4014842E7,8206564.0,0.0
1586170565762,1.4081776E7,8211959.0,0.0
1586170565810,1.4052111E7,8214157.0,0.0
1586170565854,1.4067727E7,8189802.0,0.0
1586170565912,1.4073856E7,8184753.0,0.0
1586170565953,1.4077957E7,8120823.0,0.0
1586170566008,1.3960872E7,8073613.0,0.0
1586170566051,1.3897246E7,8042555.0,0.0
1586170566107,1.384536E7,8016972.0,0.0
1586170566151,1.3820032E7,7984356.0,0.0
1586170566205,1.3809858E7,7987782.0,0.0
1586170566254,1.3782359E7,7961531.0,0.0
1586170566300,1.3755663E7,7934839.0,0.0
1586170566350,1.3764807E7,7926549.0,0.0
1586170566396,1.3791078E7,7935281.0,0.0
1586170566453,1.3752729E7,7920669.0,0.0
1586170566493,1.3656473E7,7884475.0,0.0
1586170566550,1.3534151E7,7841704.0,0.0
1586170566591,1.3416212E7,7799584.0,0.0
1586170566642,1.3317596E7,7770547.0,0.0
1586170566690,1.3258014E7,7743842.0,0.0
1586170566747,1.3184926E7,7718514.0,0.0
1586170566796,1.3084175E7,7700068.0,0.0
1586170566845,1.301422E7,7706161.0,0.0
1586170566891,1.2873205E7,7718331.0,0.0
1586170566940,1.286722E7,7735824.0,0.0
1586170566989,1.276504E7,7746614.0,0.0
1586170567040,1.2740623E7,7732262.0,0.0
1586170567091,1.2649728E7,7729988.0,0.0
1586170567140,1.2681871E7,7784840.0,0.0
1586170567181,1.2725207E7,7825002.0,0.0
1586170567231,1.2751708E7,7867547.0,0.0
1586170567280,1.2590059E7,7887264.0,0.0
1586170567336,1.2508369E7,7912091.0,0.0
1586170567379,1.2671242E7,7959878.0,0.0
1586170567430,1.2790461E7,8006969.0,0.0
1586170567476,1.2860979E7,8024704.0,0.0
1586170567530,1.2911616E7,8046572.0,0.0
1586170567574,1.2945126E7,8055772.0,0.0
1586170567632,1.2967178E7,8046907.0,0.0
1586170567674,1.2991001E7,8049348.0,0.0
1586170567731,1.3011374E7,8064806.0,0.0
1586170567771,1.2984417E7,8065214.0,0.0
1586170567826,1.2985958E7,8073371.0,0.0
1586170567878,1.2933841E7,8081963.0,0.0
1586170567925,1.2972021E7,8099393.0,0.0
1586170567980,1.3020805E7,8118097.0,0.0
1586170568024,1.3077934E7,8139315.0,0.0
1586170568073,1.3229122E7,8126978.0,0.0
1586170568116,1.3142302E7,8051347.0,0.0
1586170568170,1.2898708E7,7945722.0,0.0
1586170568219,1.2906173E7,7940281.0,0.0
1586170568272,1.301932E7,7938903.0,0.0
1586170568317,1.3063685E7,7899601.0,0.0
1586170568370,1.3035878E7,7847418.0,0.0
1586170568413,1.2890245E7,7819699.0,0.0
1586170568468,1.295148E7,7808239.0,0.0
1586170568518,1.2926202E7,7712163.0,0.0
1586170568566,1.2707456E7,7543399.0,0.0
1586170568613,1.2472924E7,7382952.0,0.0
1586170568664,1.2265943E7,7253169.0,0.0
1586170568708,1.2114211E7,7176856.0,0.0
1586170568760,1.2009011E7,7106154.0,0.0
1586170568810,1.1884753E7,7039041.0,0.0
1586170568859,1.1777331E7,6984099.0,0.0
1586170568911,1.1704898E7,6950694.0,0.0
1586170568952,1.1643637E7,6925731.0,0.0
1586170569008,1.1579095E7,6893192.0,0.0
1586170569058,1.1501137E7,6852041.0,0.0
1586170569106,1.1337497E7,6765529.0,0.0
1586170569156,1.1191183E7,6691916.0,0.0
1586170569198,1.1095869E7,6646811.0,0.0
1586170569247,1.1000586E7,6615042.0,0.0
1586170569298,1.0966507E7,6603947.0,0.0
1586170569348,1.0894561E7,6576637.0,0.0
1586170569396,1.0811555E7,6529772.0,0.0
1586170569445,1.0745451E7,6510616.0,0.0
1586170569494,1.0716328E7,6504006.0,0.0
1586170569549,1.066604E7,6483894.0,0.0
1586170569594,1.0602608E7,6459402.0,0.0
1586170569647,1.0506301E7,6446322.0,0.0
1586170569696,1.0510433E7,6517784.0,0.0
1586170569746,1.05165E7,6581152.0,0.0
1586170569794,1.0526817E7,6610282.0,0.0
1586170569844,1.0475668E7,6595627.0,0.0
1586170569890,1.0444866E7,6584230.0,0.0
1586170569940,1.0432158E7,6589429.0,0.0
1586170569988,1.0492482E7,6628106.0,0.0
1586170570034,1.0655436E7,6726606.0,0.0
1586170570091,1.0846289E7,6770742.0,0.0
1586170570134,1.1039651E7,6765559.0,0.0
1586170570188,1.0960609E7,6711407.0,0.0
1586170570238,1.0808335E7,6632502.0,0.0
1586170570286,1.0678348E7,6587307.0,0.0
1586170570334,1.0614778E7,6550157.0,0.0
1586170570385,1.0591011E7,6511586.0,0.0
1586170570434,1.0531691E7,6459901.0,0.0
1586170570479,1.0433244E7,6403110.0,0.0
1586170570530,1.0329154E7,6358612.0,0.0
1586170570575,1.0164746E7,6257293.0,0.0
1586170570631,1.0189475E7,6253851.0,0.0
1586170570677,9943004.0,6192106.0,0.0
1586170570729,9837066.0,6169779.0,0.0
1586170570777,9785804.0,6148409.0,0.0
1586170570825,9749360.0,6129146.0,0.0
1586170570874,9737850.0,6137662.0,0.0
1586170570925,9734200.0,6116292.0,0.0
1586170570974,9737507.0,6107500.0,0.0
1586170571024,9781048.0,6069294.0,0.0
1586170571070,9746483.0,6018807.0,0.0
1586170571114,9634048.0,5971793.0,0.0
1586170571172,9634247.0,5962275.0,0.0
1586170571215,9553438.0,5911729.0,0.0
1586170571264,9292917.0,5878413.0,0.0
1586170571319,9219005.0,5873214.0,0.0
1586170571369,9235645.0,5952498.0,0.0
1586170571409,9325629.0,6001527.0,0.0
1586170571466,9388288.0,6033190.0,0.0
1586170571516,9151303.0,5986159.0,0.0
1586170571565,9239659.0,5975309.0,0.0
1586170571616,9337707.0,5974171.0,0.0
1586170571656,9364633.0,5985024.0,0.0
1586170571705,9449205.0,6016473.0,0.0
1586170571753,9507845.0,6054228.0,0.0
1586170571811,9528048.0,6078281.0,0.0
1586170571856,9561528.0,6115276.0,0.0
1586170571907,9645388.0,6142376.0,0.0
1586170571957,9681459.0,6143332.0,0.0
1586170572005,9692968.0,6143438.0,0.0
1586170572055,9737564.0,6127297.0,0.0
1586170572103,9834214.0,6055197.0,0.0
1586170572155,9832934.0,5957318.0,0.0
1586170572197,9849630.0,5953391.0,0.0
1586170572249,9859374.0,5968351.0,0.0
1586170572296,9899182.0,5987510.0,0.0
1586170572353,9869634.0,6021672.0,0.0
1586170572396,9873679.0,6035374.0,0.0
1586170572451,9867581.0,6039481.0,0.0
1586170572495,9856552.0,6052787.0,0.0
1586170572541,9914311.0,6059912.0,0.0
1586170572598,9854960.0,6052864.0,0.0
1586170572644,9742151.0,6069188.0,0.0
1586170572697,9731266.0,6064792.0,0.0
1586170572737,9820707.0,6076445.0,0.0
1586170572791,9828490.0,6069928.0,0.0
1586170572842,9851453.0,6071688.0,0.0
1586170572887,9839257.0,6075174.0,0.0
1586170572938,9895936.0,6087192.0,0.0
1586170572991,9877841.0,6092162.0,0.0
1586170573032,9880207.0,6094589.0,0.0
1586170573087,9882654.0,6122490.0,0.0
1586170573132,9937305.0,6138406.0,0.0
1586170573181,9985914.0,6145922.0,0.0
1586170573236,1.0077352E7,6159305.0,0.0
1586170573283,1.0119695E7,6147333.0,0.0
1586170573332,1.0190018E7,6153273.0,0.0
1586170573379,1.0224983E7,6164869.0,0.0
1586170573431,1.0312514E7,6220840.0,0.0
1586170573479,1.0349639E7,6233420.0,0.0
1586170573533,1.0377963E7,6274660.0,0.0
1586170573580,1.0398423E7,6310141.0,0.0
1586170573623,1.0409564E7,6311475.0,0.0
1586170573679,1.0431621E7,6333755.0,0.0
1586170573727,1.049006E7,6359020.0,0.0
1586170573778,1.0583833E7,6380451.0,0.0
1586170573820,1.0696468E7,6419314.0,0.0
1586170573877,1.083458E7,6435499.0,0.0
1586170573923,1.0884674E7,6447504.0,0.0
1586170573971,1.0948838E7,6456840.0,0.0
1586170574017,1.0941404E7,6481713.0,0.0
1586170574066,1.0883589E7,6482742.0,0.0
1586170574117,1.077571E7,6472360.0,0.0
1586170574165,1.0740295E7,6465342.0,0.0
1586170574217,1.0757191E7,6485395.0,0.0
1586170574262,1.0765455E7,6526575.0,0.0
1586170574311,1.076779E7,6566315.0,0.0
1586170574361,1.0783549E7,6592550.0,0.0
1586170574409,1.0755251E7,6611148.0,0.0
1586170574462,1.0747417E7,6649052.0,0.0
1586170574512,1.0800558E7,6675652.0,0.0
1586170574562,1.0865751E7,6672590.0,0.0
1586170574611,1.0865382E7,6666180.0,0.0
1586170574657,1.0817628E7,6668135.0,0.0
1586170574714,1.0843043E7,6707178.0,0.0
1586170574760,1.0877465E7,6748146.0,0.0
1586170574807,1.0892021E7,6786747.0,0.0
1586170574857,1.0941317E7,6813028.0,0.0
1586170574912,1.0974141E7,6850707.0,0.0
1586170574960,1.1011896E7,6886037.0,0.0
1586170575007,1.1058344E7,6911485.0,0.0
1586170575058,1.1042616E7,6915336.0,0.0
1586170575101,1.1026232E7,6914562.0,0.0
1586170575158,1.1044807E7,6918350.0,0.0
1586170575199,1.1040732E7,6918274.0,0.0
1586170575249,1.1040706E7,6919655.0,0.0
1586170575297,1.1035264E7,6910605.0,0.0
1586170575352,1.1025745E7,6903165.0,0.0
1586170575401,1.0964654E7,6870291.0,0.0
1586170575451,1.0933652E7,6880778.0,0.0
1586170575504,1.0930462E7,6896920.0,0.0
1586170575548,1.094297E7,6924170.0,0.0
1586170575596,1.0966476E7,6936371.0,0.0
1586170575643,1.0981294E7,6951059.0,0.0
1586170575692,1.0996541E7,6958243.0,0.0
1586170575740,1.0980669E7,6947208.0,0.0
1586170575796,1.0912512E7,6958954.0,0.0
1586170575838,1.0930288E7,7003969.0,0.0
1586170575889,1.0973829E7,7034250.0,0.0
1586170575942,1.1005885E7,7055773.0,0.0
1586170575992,1.1039196E7,7051560.0,0.0
1586170576041,1.1082275E7,7055515.0,0.0
1586170576089,1.1117721E7,7052424.0,0.0
1586170576133,1.1157985E7,7048573.0,0.0
1586170576188,1.1213465E7,7051590.0,0.0
1586170576239,1.1241103E7,7046892.0,0.0
1586170576280,1.1265638E7,7037706.0,0.0
1586170576337,1.1304929E7,7037132.0,0.0
1586170576379,1.1340032E7,7037450.0,0.0
1586170576436,1.1384371E7,7038221.0,0.0
1586170576482,1.1395993E7,7028537.0,0.0
1586170576528,1.1554135E7,7037902.0,0.0
1586170576582,1.1774822E7,7065866.0,0.0
1586170576635,1.186136E7,7080159.0,0.0
1586170576681,1.1900994E7,7092861.0,0.0
1586170576725,1.1835801E7,7056152.0,0.0
1586170576772,1.1855718E7,7076068.0,0.0
1586170576827,1.1840783E7,7052544.0,0.0
1586170576878,1.187267E7,7048088.0,0.0
1586170576920,1.1874467E7,7037736.0,0.0
1586170576977,1.1854064E7,7046952.0,0.0
1586170577020,1.1892618E7,7051076.0,0.0
1586170577075,1.1927009E7,7043968.0,0.0
1586170577122,1.195758E7,7048619.0,0.0
1586170577167,1.1916293E7,7008939.0,0.0
1586170577222,1.194647E7,7012820.0,0.0
1586170577273,1.1938119E7,6987040.0,0.0
1586170577320,1.1961113E7,7017033.0,0.0
1586170577362,1.1953648E7,7005499.0,0.0
1586170577414,1.1982259E7,7041541.0,0.0
1586170577460,1.2031692E7,7048300.0,0.0
1586170577519,1.2094438E7,7063911.0,0.0
1586170577562,1.2178211E7,7076082.0,0.0
1586170577615,1.2225853E7,7111200.0,0.0
1586170577659,1.2191518E7,7125811.0,0.0
1586170577711,1.2204794E7,7161747.0,0.0
1586170577763,1.2270187E7,7179631.0,0.0
1586170577806,1.2258821E7,7178662.0,0.0
1586170577861,1.2252779E7,7192559.0,0.0
1586170577903,1.2076513E7,7137846.0,0.0
1586170577959,1.2188666E7,7181995.0,0.0
1586170578000,1.2173081E7,7194847.0,0.0
1586170578051,1.208515E7,7187543.0,0.0
1586170578102,1.2073523E7,7172264.0,0.0
1586170578150,1.2057425E7,7210988.0,0.0
1586170578203,1.2033576E7,7220341.0,0.0
1586170578248,1.2063979E7,7225098.0,0.0
1586170578303,1.2105436E7,7205958.0,0.0
1586170578348,1.2162252E7,7192968.0,0.0
1586170578402,1.2063324E7,7135542.0,0.0
1586170578443,1.2017648E7,7122644.0,0.0
1586170578499,1.1990548E7,7095846.0,0.0
1586170578541,1.1998955E7,7083857.0,0.0
1586170578592,1.2000778E7,7092951.0,0.0
1586170578642,1.1995765E7,7113368.0,0.0
1586170578696,1.1928919E7,7107426.0,0.0
1586170578744,1.1985392E7,7134905.0,0.0
1586170578788,1.1964707E7,7115065.0,0.0
1586170578843,1.2029757E7,7083857.0,0.0
1586170578891,1.200833E7,7031219.0,0.0
1586170578938,1.2004541E7,7009075.0,0.0
1586170578985,1.201964E7,6999377.0,0.0
1586170579040,1.1997813E7,6950634.0,0.0
1586170579082,1.188632E7,6908258.0,0.0
1586170579130,1.1767101E7,6856377.0,0.0
1586170579183,1.1658368E7,6814316.0,0.0
1586170579232,1.1699968E7,6898647.0,0.0
1586170579283,1.1836881E7,6963987.0,0.0
1586170579330,1.191769E7,7023959.0,0.0
1586170579375,1.2031324E7,7051348.0,0.0
1586170579426,1.2201973E7,7092801.0,0.0
1586170579483,1.2311705E7,7101682.0,0.0
1586170579526,1.2503951E7,7122233.0,0.0
1586170579581,1.2432435E7,7115609.0,0.0
1586170579622,1.2548945E7,7207502.0,0.0
1586170579672,1.2562278E7,7222555.0,0.0
1586170579724,1.2561541E7,7235406.0,0.0
1586170579778,1.2702187E7,7337529.0,0.0
1586170579829,1.2621916E7,7257079.0,0.0
1586170579876,1.2712673E7,7316613.0,0.0
1586170579925,1.2729313E7,7282892.0,0.0
1586170579972,1.2762506E7,7303353.0,0.0
1586170580023,1.2801771E7,7319146.0,0.0
1586170580071,1.2822942E7,7294439.0,0.0
1586170580121,1.288962E7,7320949.0,0.0
1586170580166,1.2866252E7,7302184.0,0.0
1586170580212,1.2832005E7,7279131.0,0.0
1586170580262,1.2759659E7,7274555.0,0.0
1586170580313,1.2747407E7,7322177.0,0.0
1586170580362,1.2866708E7,7339713.0,0.0
1586170580411,1.2996869E7,7324843.0,0.0
1586170580465,1.3028812E7,7316812.0,0.0
1586170580515,1.3022458E7,7306732.0,0.0
1586170580563,1.3018608E7,7323372.0,0.0
1586170580610,1.2968033E7,7332027.0,0.0
1586170580661,1.2918881E7,7342744.0,0.0
1586170580704,1.2890931E7,7369706.0,0.0
1586170580759,1.287617E7,7384984.0,0.0
1586170580805,1.2883461E7,7379377.0,0.0
1586170580852,1.2862151E7,7393244.0,0.0
1586170580907,1.2772966E7,7372238.0,0.0
1586170580957,1.272578E7,7336559.0,0.0
1586170581006,1.2646819E7,7396199.0,0.0
1586170581054,1.2770283E7,7445139.0,0.0
1586170581098,1.275712E7,7394124.0,0.0
1586170581151,1.2773504E7,7454946.0,0.0
1586170581201,1.2835793E7,7503234.0,0.0
1586170581244,1.283374E7,7599901.0,0.0
1586170581300,1.2832916E7,7657782.0,0.0
1586170581345,1.2897822E7,7736883.0,0.0
1586170581400,1.2907228E7,7633669.0,0.0
1586170581451,1.291224E7,7633214.0,0.0
1586170581498,1.280046E7,7570421.0,0.0
1586170581546,1.2816844E7,7576074.0,0.0
1586170581590,1.2883461E7,7575772.0,0.0
1586170581649,1.2883778E7,7589231.0,0.0
1586170581686,1.2888366E7,7635033.0,0.0
1586170581739,1.2975866E7,7661374.0,0.0
1586170581793,1.3134781E7,7664648.0,0.0
1586170581840,1.3019095E7,7564056.0,0.0
1586170581885,1.2962022E7,7626122.0,0.0
1586170581939,1.283907E7,7654707.0,0.0
1586170581987,1.2883379E7,7666892.0,0.0
1586170582038,1.2877025E7,7728138.0,0.0
1586170582087,1.290606E7,7749569.0,0.0
1586170582130,1.2988062E7,7795720.0,0.0
1586170582185,1.296427E7,7830672.0,0.0
1586170582233,1.3124377E7,7861454.0,0.0
1586170582282,1.3143326E7,7894631.0,0.0
1586170582329,1.3116544E7,7909621.0,0.0
1586170582381,1.3031004E7,7932887.0,0.0
1586170582426,1.2970711E7,7984479.0,0.0
1586170582481,1.3000401E7,7988025.0,0.0
1586170582530,1.3016499E7,8029415.0,0.0
1586170582579,1.3077191E7,8041934.0,0.0
1586170582628,1.3103723E7,8069809.0,0.0
1586170582677,1.3155722E7,8118081.0,0.0
1586170582726,1.3181081E7,8135707.0,0.0
1586170582772,1.3173304E7,8145135.0,0.0
1586170582817,1.3231974E7,8174537.0,0.0
1586170582866,1.3319505E7,8203351.0,0.0
1586170582922,1.344619E7,8272811.0,0.0
1586170582964,1.3634647E7,8220810.0,0.0
1586170583020,1.3651287E7,8220083.0,0.0
1586170583068,1.3653652E7,8088085.0,0.0
1586170583118,1.3583104E7,8011500.0,0.0
1586170583168,1.3574328E7,7972444.0,0.0
1586170583211,1.3613532E7,7951452.0,0.0
1586170583259,1.3589514E7,7892101.0,0.0
1586170583310,1.3598233E7,7869745.0,0.0
1586170583364,1.3604019E7,7831854.0,0.0
1586170583415,1.3595212E7,7785218.0,0.0
1586170583463,1.358105E7,7738112.0,0.0
1586170583507,1.3530987E7,7685746.0,0.0
1586170583560,1.3457643E7,7618453.0,0.0
1586170583610,1.339393E7,7564829.0,0.0
1586170583657,1.3309987E7,7519814.0,0.0
1586170583709,1.327064E7,7510220.0,0.0
1586170583756,1.3239464E7,7488032.0,0.0
1586170583806,1.3173391E7,7430059.0,0.0
1586170583850,1.3132584E7,7408370.0,0.0
1586170583904,1.3083264E7,7446958.0,0.0
1586170583948,1.3130593E7,7677227.0,0.0
1586170584003,1.3101496E7,7803086.0,0.0
1586170584049,1.3209062E7,7854041.0,0.0
1586170584101,1.2961879E7,7836582.0,0.0
1586170584152,1.2900418E7,7874276.0,0.0
1586170584194,1.2944926E7,7947601.0,0.0
1586170584249,1.3003253E7,7963321.0,0.0
1586170584290,1.3021629E7,8029083.0,0.0
1586170584346,1.307588E7,8051377.0,0.0
1586170584388,1.2998635E7,8149212.0,0.0
1586170584437,1.3139906E7,8177525.0,0.0
1586170584487,1.3124008E7,8178009.0,0.0
1586170584538,1.3128883E7,8218719.0,0.0
1586170584587,1.3025361E7,8221796.0,0.0
1586170584635,1.3108311E7,8262748.0,0.0
1586170584687,1.3069127E7,8269856.0,0.0
1586170584738,1.3158973E7,8289211.0,0.0
1586170584790,1.3411998E7,8351169.0,0.0
1586170584837,1.3367859E7,8307445.0,0.0
1586170584886,1.3461207E7,8343350.0,0.0
1586170584928,1.3611827E7,8371829.0,0.0
1586170584987,1.3674311E7,8325100.0,0.0
1586170585034,1.3585182E7,8294348.0,0.0
1586170585084,1.3496965E7,8339349.0,0.0
1586170585129,1.360664E7,8369585.0,0.0
1586170585175,1.3645388E7,8319705.0,0.0
1586170585226,1.3495654E7,8176555.0,0.0
1586170585274,1.3490211E7,8101999.0,0.0
1586170585324,1.347095E7,8002241.0,0.0
1586170585372,1.3421342E7,7931702.0,0.0
1586170585424,1.3370767E7,7968623.0,0.0
1586170585468,1.3365468E7,8139269.0,0.0
1586170585527,1.3399347E7,8159517.0,0.0
1586170585569,1.3468216E7,8142861.0,0.0
1586170585615,1.3374556E7,7938660.0,0.0
1586170585677,1.3333381E7,7866441.0,0.0
1586170585714,1.3399772E7,7903074.0,0.0
1586170585772,1.3299558E7,7780338.0,0.0
1586170585813,1.3124433E7,7655266.0,0.0
1586170585869,1.3081011E7,7609875.0,0.0
1586170585912,1.3006668E7,7563313.0,0.0
1586170585967,1.3087708E7,7613420.0,0.0
1586170586012,1.2950507E7,7485107.0,0.0
1586170586058,1.2950394E7,7501399.0,0.0
1586170586114,1.2918425E7,7487517.0,0.0
1586170586164,1.2828641E7,7456068.0,0.0
1586170586214,1.2795504E7,7491518.0,0.0
1586170586254,1.2770227E7,7619513.0,0.0
1586170586313,1.281622E7,7726684.0,0.0
1586170586357,1.2822056E7,7764665.0,0.0
1586170586402,1.2754442E7,7697857.0,0.0
1586170586450,1.2696171E7,7630336.0,0.0
1586170586507,1.2647137E7,7581015.0,0.0
1586170586550,1.2707E7,7593126.0,0.0
1586170586599,1.2748257E7,7612405.0,0.0
1586170586652,1.2770283E7,7612481.0,0.0
1586170586702,1.2795074E7,7603902.0,0.0
1586170586754,1.2791429E7,7563236.0,0.0
1586170586796,1.2811458E7,7565693.0,0.0
1586170586852,1.2830438E7,7562496.0,0.0
1586170586892,1.2820321E7,7534336.0,0.0
1586170586950,1.2815646E7,7500445.0,0.0
1586170586991,1.2734238E7,7444504.0,0.0
1586170587047,1.2706969E7,7424239.0,0.0
1586170587091,1.2746721E7,7400913.0,0.0
1586170587139,1.278593E7,7468873.0,0.0
1586170587193,1.2831488E7,7570331.0,0.0
1586170587241,1.2862919E7,7559963.0,0.0
1586170587298,1.2909393E7,7627076.0,0.0
1586170587334,1.2920478E7,7637670.0,0.0
1586170587393,1.299245E7,7588322.0,0.0
1586170587440,1.2988149E7,7532636.0,0.0
1586170587490,1.2941107E7,7484394.0,0.0
1586170587534,1.2780856E7,7373845.0,0.0
1586170587586,1.2671385E7,7363235.0,0.0
1586170587631,1.2606131E7,7307095.0,0.0
1586170587685,1.2525552E7,7272341.0,0.0
1586170587736,1.2458219E7,7308459.0,0.0
1586170587785,1.2467737E7,7347063.0,0.0
1586170587830,1.2429496E7,7304611.0,0.0
1586170587881,1.2406702E7,7262338.0,0.0
1586170587932,1.2399293E7,7218886.0,0.0
1586170587974,1.2412344E7,7203243.0,0.0
1586170588029,1.2416675E7,7183496.0,0.0
1586170588072,1.2439188E7,7168689.0,0.0
1586170588127,1.2391372E7,7129251.0,0.0
1586170588171,1.2333045E7,7089146.0,0.0
1586170588221,1.2298511E7,7055153.0,0.0
1586170588273,1.2283525E7,7033888.0,0.0
1586170588323,1.2263065E7,7022869.0,0.0
1586170588370,1.2236595E7,7002664.0,0.0
1586170588421,1.2211292E7,6983734.0,0.0
1586170588466,1.2189378E7,6973309.0,0.0
1586170588514,1.2161884E7,6963047.0,0.0
1586170588570,1.2140513E7,6954302.0,0.0
1586170588615,1.2129315E7,6948831.0,0.0
1586170588668,1.2117632E7,6940873.0,0.0
1586170588709,1.2076344E7,6918669.0,0.0
1586170588765,1.1992371E7,6878641.0,0.0
1586170588812,1.1938662E7,6856148.0,0.0
1586170588861,1.1892019E7,6843631.0,0.0
1586170588910,1.1886689E7,6852436.0,0.0
1586170588958,1.1908884E7,6874564.0,0.0
1586170589012,1.1873157E7,6898663.0,0.0
1586170589055,1.1897175E7,6924443.0,0.0
1586170589108,1.1952424E7,6973883.0,0.0
1586170589152,1.1980892E7,7022385.0,0.0
1586170589202,1.2026393E7,7074083.0,0.0
1586170589256,1.2050728E7,7136027.0,0.0
1586170589305,1.2094238E7,7163609.0,0.0
1586170589355,1.2101478E7,7144499.0,0.0
1586170589397,1.2118174E7,7147182.0,0.0
1586170589449,1.213504E7,7156245.0,0.0
1586170589495,1.2161372E7,7168141.0,0.0
1586170589554,1.2159175E7,7144469.0,0.0
1586170589598,1.2177838E7,7130144.0,0.0
1586170589650,1.2178268E7,7094862.0,0.0
1586170589691,1.2189752E7,7083933.0,0.0
1586170589746,1.2202572E7,7068230.0,0.0
1586170589797,1.2211604E7,7049771.0,0.0
1586170589838,1.2217589E7,7048118.0,0.0
1586170589891,1.2195819E7,7029051.0,0.0
1586170589941,1.2152396E7,6995603.0,0.0
1586170589989,1.2125409E7,6978930.0,0.0
1586170590039,1.2123217E7,6976340.0,0.0
1586170590091,1.2116295E7,6964063.0,0.0
1586170590134,1.2112076E7,6960773.0,0.0
1586170590189,1.2087997E7,6951982.0,0.0
1586170590236,1.2087198E7,6946314.0,0.0
1586170590286,1.2084751E7,6945647.0,0.0
1586170590339,1.2084751E7,6940222.0,0.0
1586170590377,1.2086999E7,6947058.0,0.0
1586170590428,1.2080051E7,6938493.0,0.0
1586170590474,1.2041154E7,6922792.0,0.0
1586170590528,1.1990179E7,6891598.0,0.0
1586170590574,1.1960657E7,6884765.0,0.0
1586170590627,1.1957468E7,6877276.0,0.0
1586170590674,1.1946639E7,6873836.0,0.0
1586170590729,1.1932364E7,6868714.0,0.0
1586170590777,1.1928176E7,6864667.0,0.0
1586170590824,1.1911592E7,6856785.0,0.0
1586170590878,1.1910993E7,6859756.0,0.0
1586170590927,1.1902561E7,6858651.0,0.0
1586170590974,1.1903841E7,6860712.0,0.0
1586170591021,1.1904839E7,6855846.0,0.0
1586170591070,1.1868738E7,6840537.0,0.0
1586170591118,1.1829217E7,6818197.0,0.0
1586170591172,1.1795481E7,6803450.0,0.0
1586170591213,1.1768893E7,6798842.0,0.0
1586170591266,1.1772313E7,6794901.0,0.0
1586170591318,1.1734732E7,6783324.0,0.0
1586170591366,1.1724303E7,6822350.0,0.0
1586170591409,1.1651384E7,6838538.0,0.0
1586170591465,1.1604085E7,6876565.0,0.0
1586170591513,1.1580692E7,6930810.0,0.0
1586170591561,1.1570094E7,6946875.0,0.0
1586170591610,1.1577359E7,6979202.0,0.0
1586170591658,1.1576704E7,6994056.0,0.0
1586170591712,1.1567042E7,7043725.0,0.0
1586170591753,1.1557754E7,7060744.0,0.0
1586170591809,1.1502223E7,7071793.0,0.0
1586170591860,1.1507005E7,7151545.0,0.0
1586170591907,1.1520573E7,7211095.0,0.0
1586170591954,1.1473269E7,7169203.0,0.0
1586170592006,1.1527296E7,7225766.0,0.0
1586170592054,1.147116E7,7154396.0,0.0
1586170592103,1.1511623E7,7227479.0,0.0
1586170592146,1.1518776E7,7202031.0,0.0
1586170592200,1.1629388E7,7222963.0,0.0
1586170592253,1.1623203E7,7103289.0,0.0
1586170592293,1.1621555E7,7147879.0,0.0
1586170592349,1.1557841E7,7104198.0,0.0
1586170592396,1.1560632E7,7131070.0,0.0
1586170592448,1.152601E7,7111260.0,0.0
1586170592495,1.1499258E7,7150363.0,0.0
1586170592545,1.1461872E7,7135406.0,0.0
1586170592593,1.1425684E7,7117489.0,0.0
1586170592642,1.1420072E7,7123992.0,0.0
1586170592691,1.1479255E7,7102651.0,0.0
1586170592740,1.1506293E7,7078250.0,0.0
1586170592789,1.1509171E7,7085540.0,0.0
1586170592833,1.1474437E7,7068170.0,0.0
1586170592890,1.1418506E7,7056288.0,0.0
1586170592938,1.1373455E7,7064578.0,0.0
1586170592989,1.1337666E7,7060501.0,0.0
1586170593031,1.1345617E7,7082904.0,0.0
1586170593088,1.1360578E7,7105108.0,0.0
1586170593135,1.1268797E7,7132966.0,0.0
1586170593184,1.12476E7,7160641.0,0.0
1586170593227,1.1336529E7,7181039.0,0.0
1586170593280,1.1419074E7,7208428.0,0.0
1586170593330,1.1542881E7,7247654.0,0.0
1586170593379,1.1566617E7,7231496.0,0.0
1586170593430,1.1507005E7,7154957.0,0.0
1586170593479,1.1445632E7,7116655.0,0.0
1586170593530,1.1399613E7,7051165.0,0.0
1586170593571,1.1394513E7,7062168.0,0.0
1586170593619,1.1324559E7,7111154.0,0.0
1586170593675,1.1458426E7,7214262.0,0.0
1586170593722,1.1635399E7,7319720.0,0.0
1586170593773,1.1697059E7,7390107.0,0.0
1586170593815,1.1792005E7,7414130.0,0.0
1586170593870,1.2104867E7,7582758.0,0.0
1586170593919,1.2160399E7,7526149.0,0.0
1586170593970,1.2149488E7,7480134.0,0.0
1586170594019,1.2196705E7,7396049.0,0.0
1586170594069,1.2239042E7,7413934.0,0.0
1586170594118,1.2223575E7,7387059.0,0.0
1586170594158,1.2197043E7,7371465.0,0.0
1586170594214,1.217345E7,7359477.0,0.0
1586170594261,1.2149002E7,7317645.0,0.0
1586170594309,1.2038819E7,7295136.0,0.0
1586170594357,1.211182E7,7436865.0,0.0
1586170594410,1.2076743E7,7332877.0,0.0
1586170594457,1.2087971E7,7269977.0,0.0
1586170594511,1.2097402E7,7268749.0,0.0
1586170594559,1.2101934E7,7259111.0,0.0
1586170594602,1.2079278E7,7247060.0,0.0
1586170594658,1.2021181E7,7225327.0,0.0
1586170594699,1.1893898E7,7164353.0,0.0
1586170594756,1.1634032E7,7094816.0,0.0
1586170594798,1.1345704E7,7021717.0,0.0
1586170594855,1.1168926E7,6994374.0,0.0
1586170594896,1.1144053E7,6973883.0,0.0
1586170594949,1.1093847E7,6942055.0,0.0
1586170594998,1.1044382E7,6919154.0,0.0
1586170595051,1.1024092E7,6940342.0,0.0
1586170595097,1.1097692E7,6971125.0,0.0
1586170595143,1.1185254E7,7029370.0,0.0
1586170595198,1.116354E7,6987495.0,0.0
1586170595241,1.1186022E7,7018580.0,0.0
1586170595296,1.1174369E7,7007226.0,0.0
1586170595341,1.1097748E7,6947238.0,0.0
1586170595396,1.1000386E7,6914758.0,0.0
1586170595436,1.092992E7,6867123.0,0.0
1586170595487,1.0891484E7,6860045.0,0.0
1586170595536,1.0833725E7,6867714.0,0.0
1586170595582,1.0839311E7,6880443.0,0.0
1586170595634,1.0782494E7,6811909.0,0.0
1586170595682,1.0757504E7,6803921.0,0.0
1586170595733,1.0756761E7,6853814.0,0.0
1586170595780,1.0768614E7,6897329.0,0.0
1586170595836,1.0808565E7,6968200.0,0.0
1586170595882,1.0917836E7,7016428.0,0.0
1586170595936,1.0992808E7,7002604.0,0.0
1586170595978,1.1000611E7,6972821.0,0.0
1586170596031,1.0999587E7,6901602.0,0.0
1586170596080,1.0981094E7,6825017.0,0.0
1586170596124,1.0990924E7,6805253.0,0.0
1586170596177,1.0944368E7,6762787.0,0.0
1586170596227,1.093975E7,6768683.0,0.0
1586170596278,1.0951347E7,6799632.0,0.0
1586170596319,1.0900459E7,6769802.0,0.0
1586170596376,1.0770068E7,6772531.0,0.0
1586170596426,1.0646179E7,6753239.0,0.0
1586170596472,1.0541291E7,6751357.0,0.0
1586170596520,1.0490516E7,6732533.0,0.0
1586170596571,1.0483307E7,6753358.0,0.0
1586170596620,1.0465955E7,6771608.0,0.0
1586170596670,1.0473902E7,6791445.0,0.0
1586170596720,1.051072E7,6811285.0,0.0
1586170596763,1.052203E7,6807680.0,0.0
1586170596818,1.0488806E7,6796661.0,0.0
1586170596861,1.0422471E7,6774699.0,0.0
1586170596916,1.0336051E7,6774653.0,0.0
1586170596957,1.0358302E7,6823244.0,0.0
1586170597016,1.0400757E7,6891751.0,0.0
1586170597061,1.0516244E7,6952407.0,0.0
1586170597112,1.0603781E7,6964395.0,0.0
1586170597158,1.065772E7,6963289.0,0.0
1586170597208,1.06912E7,6950269.0,0.0
1586170597252,1.0665784E7,6893494.0,0.0
1586170597307,1.0661509E7,6871532.0,0.0
1586170597359,1.0657064E7,6853724.0,0.0
1586170597401,1.0661678E7,6814864.0,0.0
1586170597456,1.0681538E7,6810967.0,0.0
1586170597498,1.0712514E7,6793085.0,0.0
1586170597557,1.0714081E7,6787946.0,0.0
1586170597600,1.073388E7,6765998.0,0.0
1586170597650,1.0773575E7,6772684.0,0.0
1586170597701,1.0755394E7,6728562.0,0.0
1586170597750,1.070935E7,6685595.0,0.0
1586170597799,1.0654643E7,6643946.0,0.0
1586170597847,1.0666321E7,6657555.0,0.0
1586170597897,1.0678947E7,6676335.0,0.0
1586170597939,1.0757048E7,6765015.0,0.0
1586170597996,1.083971E7,6825398.0,0.0
1586170598043,1.0977674E7,6886538.0,0.0
1586170598096,1.1113021E7,6940053.0,0.0
1586170598139,1.1234693E7,6983903.0,0.0
1586170598192,1.137451E7,7035661.0,0.0
1586170598242,1.1457029E7,7123750.0,0.0
1586170598288,1.1371064E7,7114899.0,0.0
1586170598340,1.1318604E7,7105440.0,0.0
1586170598383,1.1368012E7,7141346.0,0.0
1586170598438,1.1358156E7,7123840.0,0.0
1586170598479,1.1395138E7,7152925.0,0.0
1586170598536,1.149014E7,7201486.0,0.0
1586170598581,1.1566817E7,7244772.0,0.0
1586170598628,1.1549235E7,7273433.0,0.0
1586170598682,1.1542312E7,7322084.0,0.0
1586170598733,1.153604E7,7360250.0,0.0
1586170598774,1.1457541E7,7358687.0,0.0
1586170598830,1.1459025E7,7394881.0,0.0
1586170598879,1.1371151E7,7384832.0,0.0
1586170598922,1.1391749E7,7434850.0,0.0
1586170598978,1.1419586E7,7440016.0,0.0
1586170599020,1.1448453E7,7434787.0,0.0
1586170599076,1.1478768E7,7433379.0,0.0
1586170599123,1.1521198E7,7435198.0,0.0
1586170599173,1.1575306E7,7434196.0,0.0
1586170599223,1.1558297E7,7388138.0,0.0
1586170599270,1.1543567E7,7347276.0,0.0
1586170599322,1.1528094E7,7313887.0,0.0
1586170599365,1.1566361E7,7325981.0,0.0
1586170599418,1.1609784E7,7336968.0,0.0
1586170599466,1.1631267E7,7328601.0,0.0
1586170599519,1.159705E7,7284967.0,0.0
1586170599565,1.1545303E7,7228783.0,0.0
1586170599617,1.1556874E7,7215869.0,0.0
1586170599661,1.1528407E7,7166172.0,0.0
1586170599715,1.1543249E7,7158609.0,0.0
1586170599763,1.1569638E7,7172885.0,0.0
1586170599809,1.1545758E7,7157002.0,0.0
1586170599862,1.157485E7,7167248.0,0.0
1586170599911,1.1629701E7,7176129.0,0.0
1586170599960,1.159383E7,7138786.0,0.0
1586170600004,1.1556357E7,7113488.0,0.0
1586170600059,1.1571061E7,7095165.0,0.0
1586170600100,1.1584599E7,7064246.0,0.0
1586170600150,1.159534E7,7046255.0,0.0
1586170600203,1.1637795E7,7035236.0,0.0
1586170600256,1.1624145E7,6997847.0,0.0
1586170600304,1.1701847E7,7055714.0,0.0
1586170600351,1.1654635E7,6975232.0,0.0
1586170600402,1.1755386E7,7049605.0,0.0
1586170600452,1.1756871E7,7011001.0,0.0
1586170600500,1.1805025E7,7037693.0,0.0
1586170600543,1.1761745E7,7066487.0,0.0
1586170600599,1.180075E7,7083389.0,0.0
1586170600641,1.1784396E7,7090647.0,0.0
1586170600698,1.1875435E7,7058167.0,0.0
1586170600743,1.2020638E7,7038752.0,0.0
1586170600793,1.2167296E7,7126236.0,0.0
1586170600845,1.227033E7,7212944.0,0.0
1586170600892,1.228697E7,7323402.0,0.0
1586170600935,1.2184791E7,7357870.0,0.0
1586170600992,1.2086461E7,7398579.0,0.0
1586170601041,1.2104125E7,7503583.0,0.0
1586170601082,1.2163962E7,7573787.0,0.0
1586170601139,1.2186557E7,7589670.0,0.0
1586170601185,1.2247393E7,7629652.0,0.0
1586170601237,1.2312074E7,7653691.0,0.0
1586170601284,1.2386472E7,7685231.0,0.0
1586170601336,1.2452633E7,7684534.0,0.0
1586170601385,1.25227E7,7707040.0,0.0
1586170601433,1.2570572E7,7677864.0,0.0
1586170601483,1.2588037E7,7688398.0,0.0
1586170601529,1.2597068E7,7700085.0,0.0
1586170601581,1.2596613E7,7685776.0,0.0
1586170601623,1.2525153E7,7654024.0,0.0
1586170601679,1.2517688E7,7641142.0,0.0
1586170601729,1.2518144E7,7652068.0,0.0
1586170601779,1.2562421E7,7491624.0,0.0
1586170601830,1.2583336E7,7526301.0,0.0
1586170601877,1.2614138E7,7568027.0,0.0
1586170601925,1.2678932E7,7582621.0,0.0
1586170601969,1.2703554E7,7583561.0,0.0
1586170602016,1.2694691E7,7539820.0,0.0
1586170602071,1.2709621E7,7551719.0,0.0
1586170602121,1.2707031E7,7527089.0,0.0
1586170602172,1.2713098E7,7483334.0,0.0
1586170602220,1.2745041E7,7486926.0,0.0
1586170602266,1.2565299E7,7292168.0,0.0
1586170602316,1.2625111E7,7290212.0,0.0
1586170602366,1.2721474E7,7414160.0,0.0
1586170602410,1.2833771E7,7292802.0,0.0
1586170602465,1.3351843E7,7338545.0,0.0
1586170602514,1.3099018E7,7410491.0,0.0
1586170602564,1.2787778E7,7327891.0,0.0
1586170602610,1.2871383E7,7397367.0,0.0
1586170602661,1.2855055E7,7444229.0,0.0
1586170602713,1.2877562E7,7462525.0,0.0
1586170602759,1.2973644E7,7476831.0,0.0
1586170602805,1.2904832E7,7391820.0,0.0
1586170602857,1.2964925E7,7460765.0,0.0
1586170602902,1.279043E7,7304156.0,0.0
1586170602950,1.2766924E7,7314584.0,0.0
1586170603005,1.2809436E7,7391850.0,0.0
1586170603054,1.2718684E7,7382604.0,0.0
1586170603103,1.280066E7,7400807.0,0.0
1586170603147,1.2792765E7,7343212.0,0.0
1586170603202,1.2772567E7,7449428.0,0.0
1586170603246,1.2753105E7,7554279.0,0.0
1586170603300,1.2929336E7,7668817.0,0.0
1586170603344,1.3114577E7,7836369.0,0.0
1586170603399,1.3233653E7,7782323.0,0.0
1586170603447,1.3345121E7,7841386.0,0.0
1586170603498,1.3381478E7,7816516.0,0.0
1586170603543,1.3403079E7,7815121.0,0.0
1586170603594,1.3403535E7,7684654.0,0.0
1586170603637,1.3359882E7,7614951.0,0.0
1586170603690,1.3383106E7,7620226.0,0.0
1586170603735,1.3501952E7,7645113.0,0.0
1586170603785,1.3462318E7,7633865.0,0.0
1586170603840,1.3426754E7,7553097.0,0.0
1586170603886,1.3393218E7,7460932.0,0.0
1586170603932,1.345089E7,7453747.0,0.0
1586170603987,1.3045621E7,7195879.0,0.0
1586170604035,1.3301811E7,7508022.0,0.0
1586170604086,1.2979599E7,7241831.0,0.0
1586170604127,1.3202165E7,7429179.0,0.0
1586170604177,1.3375554E7,7460812.0,0.0
1586170604226,1.3374213E7,7433000.0,0.0
1586170604281,1.3381534E7,7416902.0,0.0
1586170604326,1.3339223E7,7384968.0,0.0
1586170604380,1.3259499E7,7335059.0,0.0
1586170604424,1.3195212E7,7302201.0,0.0
1586170604472,1.2956436E7,7210580.0,0.0
1586170604522,1.2875371E7,7198788.0,0.0
1586170604571,1.2745697E7,7191467.0,0.0
1586170604620,1.2712898E7,7211095.0,0.0
1586170604671,1.2767692E7,7238982.0,0.0
1586170604723,1.280918E7,7292819.0,0.0
1586170604768,1.2915404E7,7362976.0,0.0
1586170604815,1.2984704E7,7371933.0,0.0
1586170604869,1.3010206E7,7383211.0,0.0
1586170604920,1.3032857E7,7348501.0,0.0
1586170604969,1.293293E7,7277753.0,0.0
1586170605012,1.2954383E7,7247820.0,0.0
1586170605068,1.2917657E7,7236330.0,0.0
1586170605118,1.2788864E7,7175963.0,0.0
1586170605158,1.2747089E7,7205593.0,0.0
1586170605212,1.2769059E7,7328770.0,0.0
1586170605257,1.2771824E7,7344168.0,0.0
1586170605307,1.2803993E7,7415903.0,0.0
1586170605362,1.2939852E7,7388347.0,0.0
1586170605406,1.2748375E7,7205397.0,0.0
1586170605460,1.2578749E7,7112200.0,0.0
1586170605508,1.2482754E7,7065594.0,0.0
1586170605551,1.2559032E7,7098348.0,0.0
1586170605608,1.2645708E7,7081175.0,0.0
1586170605657,1.2669158E7,7040980.0,0.0
1586170605703,1.2689448E7,7024035.0,0.0
1586170605750,1.2683351E7,7015336.0,0.0
1586170605798,1.2687825E7,7023596.0,0.0
1586170605847,1.26746E7,7029051.0,0.0
1586170605902,1.2702044E7,7009258.0,0.0
1586170605948,1.2677678E7,6988857.0,0.0
1586170605999,1.2666767E7,7077051.0,0.0
1586170606048,1.2425763E7,7056896.0,0.0
1586170606097,1.2480445E7,7046922.0,0.0
1586170606147,1.2400404E7,6990208.0,0.0
1586170606189,1.2332334E7,6935249.0,0.0
1586170606246,1.2240271E7,6848512.0,0.0
1586170606288,1.220226E7,6893766.0,0.0
1586170606346,1.2205849E7,6900981.0,0.0
1586170606387,1.2162252E7,6884962.0,0.0
1586170606442,1.2018385E7,6815893.0,0.0
1586170606489,1.1738777E7,6704645.0,0.0
1586170606539,1.1564364E7,6659633.0,0.0
1586170606591,1.1547525E7,6657495.0,0.0
1586170606633,1.1596651E7,6678168.0,0.0
1586170606687,1.1590778E7,6720697.0,0.0
1586170606730,1.1600865E7,6776608.0,0.0
1586170606786,1.1596195E7,6789218.0,0.0
1586170606829,1.157337E7,6787159.0,0.0
1586170606884,1.1542394E7,6795827.0,0.0
1586170606930,1.151319E7,6808088.0,0.0
1586170606982,1.1501506E7,6834628.0,0.0
1586170607029,1.1490739E7,6823306.0,0.0
1586170607080,1.1499028E7,6820199.0,0.0
1586170607128,1.1487718E7,6822517.0,0.0
1586170607179,1.1507005E7,6819820.0,0.0
1586170607229,1.15471E7,6828048.0,0.0
1586170607275,1.156163E7,6852450.0,0.0
1586170607326,1.1512934E7,6878793.0,0.0
1586170607369,1.1538949E7,6925853.0,0.0
1586170607424,1.1551032E7,6935903.0,0.0
1586170607471,1.1621068E7,6954937.0,0.0
1586170607520,1.161665E7,6910545.0,0.0
1586170607574,1.1757352E7,6864620.0,0.0
1586170607615,1.1877969E7,6831852.0,0.0
1586170607671,1.1959434E7,6829565.0,0.0
1586170607711,1.2051097E7,6973170.0,0.0
1586170607767,1.1939486E7,6988053.0,0.0
1586170607811,1.1790039E7,6922899.0,0.0
1586170607864,1.1766359E7,6889782.0,0.0
1586170607915,1.169347E7,6862818.0,0.0
1586170607964,1.1687946E7,6840524.0,0.0
1586170608013,1.1728235E7,6831975.0,0.0
1586170608061,1.1700766E7,6800797.0,0.0
1586170608106,1.1612748E7,6761406.0,0.0
1586170608151,1.1522708E7,6720713.0,0.0
1586170608203,1.1512166E7,6705010.0,0.0
1586170608258,1.1490365E7,6679473.0,0.0
1586170608307,1.1457003E7,6659510.0,0.0
1586170608351,1.1440619E7,6657933.0,0.0
1586170608400,1.1401666E7,6649796.0,0.0
1586170608452,1.1362887E7,6627485.0,0.0
1586170608502,1.1330974E7,6614890.0,0.0
1586170608557,1.1298232E7,6597370.0,0.0
1586170608596,1.1234549E7,6563131.0,0.0
1586170608645,1.11791E7,6520556.0,0.0
1586170608693,1.1125273E7,6497247.0,0.0
1586170608750,1.1091937E7,6482728.0,0.0
1586170608799,1.1052359E7,6453065.0,0.0
1586170608848,1.1017169E7,6428663.0,0.0
1586170608890,1.0975882E7,6407990.0,0.0
1586170608939,1.0956989E7,6391091.0,0.0
1586170608993,1.0931317E7,6378618.0,0.0
1586170609041,1.090818E7,6361082.0,0.0
1586170609085,1.0894417E7,6347669.0,0.0
1586170609132,1.0881254E7,6335226.0,0.0
1586170609191,1.083629E7,6298351.0,0.0
1586170609232,1.0773657E7,6263219.0,0.0
1586170609289,1.0720378E7,6226617.0,0.0
1586170609333,1.0688721E7,6207215.0,0.0
1586170609385,1.0671964E7,6188481.0,0.0
1586170609432,1.0643927E7,6165384.0,0.0
1586170609486,1.0612357E7,6149272.0,0.0
1586170609533,1.0594119E7,6133403.0,0.0
1586170609579,1.0566481E7,6117928.0,0.0
1586170609630,1.055702E7,6111730.0,0.0
1586170609675,1.0536734E7,6098832.0,0.0
1586170609732,1.0522229E7,6091846.0,0.0
1586170609776,1.0517898E7,6088889.0,0.0
1586170609828,1.0475412E7,6064108.0,0.0
1586170609870,1.041472E7,6026022.0,0.0
1586170609926,1.0369899E7,5994436.0,0.0
1586170609976,1.0321489E7,5969413.0,0.0
1586170610025,1.0302141E7,5964260.0,0.0
1586170610077,1.026903E7,5945117.0,0.0
1586170610121,1.0247976E7,5928369.0,0.0
1586170610170,1.0214123E7,5914667.0,0.0
1586170610215,1.0199424E7,5911274.0,0.0
1586170610264,1.0186117E7,5900132.0,0.0
1586170610310,1.0168591E7,5892008.0,0.0
1586170610364,1.0159784E7,5888705.0,0.0
1586170610411,1.0154373E7,5880840.0,0.0
1586170610461,1.0140267E7,5877596.0,0.0
1586170610509,1.0133432E7,5885657.0,0.0
1586170610560,1.0132659E7,5875731.0,0.0
1586170610614,1.0076129E7,5849602.0,0.0
1586170610660,1.0011591E7,5809800.0,0.0
1586170610708,9970728.0,5791158.0,0.0
1586170610757,9935083.0,5777397.0,0.0
1586170610811,9916165.0,5765574.0,0.0
1586170610852,9891660.0,5755936.0,0.0
1586170610909,9869091.0,5746979.0,0.0
1586170610953,9856583.0,5736142.0,0.0
1586170611008,9846466.0,5738308.0,0.0
1586170611054,9837921.0,5727836.0,0.0
1586170611106,9836211.0,5731594.0,0.0
1586170611153,9831480.0,5733550.0,0.0
1586170611196,9832760.0,5732972.0,0.0
1586170611249,9828290.0,5735200.0,0.0
1586170611302,9830538.0,5740097.0,0.0
1586170611353,9832591.0,5746053.0,0.0
1586170611394,9825981.0,5743779.0,0.0
1586170611451,9787084.0,5731110.0,0.0
1586170611493,9731635.0,5699145.0,0.0
1586170611546,9678213.0,5677333.0,0.0
1586170611594,9641825.0,5659525.0,0.0
1586170611645,9642280.0,5661573.0,0.0
1586170611696,9624386.0,5652918.0,0.0
1586170611746,9595750.0,5638566.0,0.0
1586170611790,9580989.0,5637185.0,0.0
1586170611841,9590451.0,5635701.0,0.0
1586170611889,9560903.0,5629622.0,0.0
1586170611939,9534858.0,5623015.0,0.0
1586170611991,9522549.0,5624894.0,0.0
1586170612033,9507020.0,5624576.0,0.0
1586170612088,9499325.0,5625319.0,0.0
1586170612136,9497615.0,5629758.0,0.0
1586170612185,9498071.0,5632896.0,0.0
1586170612230,9486817.0,5635366.0,0.0
1586170612284,9461601.0,5623878.0,0.0
1586170612327,9398118.0,5588959.0,0.0
1586170612379,9334318.0,5562904.0,0.0
1586170612430,9311267.0,5549066.0,0.0
1586170612478,9299471.0,5542065.0,0.0
1586170612531,9285335.0,5540262.0,0.0
1586170612576,9274910.0,5533745.0,0.0
1586170612628,9259320.0,5529180.0,0.0
1586170612679,9259919.0,5525346.0,0.0
1586170612726,9259863.0,5523665.0,0.0
1586170612773,9260605.0,5527590.0,0.0
1586170612817,9267783.0,5533061.0,0.0
1586170612871,9262397.0,5531122.0,0.0
1586170612919,9268812.0,5540033.0,0.0
1586170612969,9262914.0,5544428.0,0.0
1586170613016,9274024.0,5545186.0,0.0
1586170613069,9273825.0,5547413.0,0.0
1586170613119,9264593.0,5544581.0,0.0
1586170613160,9219686.0,5518450.0,0.0
1586170613218,9192017.0,5498354.0,0.0
1586170613264,9163438.0,5486926.0,0.0
1586170613314,8705424.0,5483909.0,0.0
1586170613362,8700972.0,5480091.0,0.0
1586170613407,8684164.0,5474195.0,0.0
1586170613463,8676504.0,5471360.0,0.0
1586170613506,8679112.0,5464281.0,0.0
1586170613558,8680044.0,5470815.0,0.0
1586170613611,8688172.0,5478195.0,0.0
1586170613654,8682628.0,5477392.0,0.0
1586170613706,8690532.0,5483547.0,0.0
1586170613755,8688328.0,5488577.0,0.0
1586170613806,8687036.0,5488471.0,0.0
1586170613853,8692444.0,5488955.0,0.0
1586170613900,8689396.0,5498019.0,0.0
1586170613949,8695160.0,5500960.0,0.0
1586170614000,8655360.0,5469995.0,0.0
1586170614052,8615512.0,5444352.0,0.0
1586170614095,8599840.0,5429634.0,0.0
1586170614142,8591156.0,5427164.0,0.0
1586170614197,8600952.0,5422981.0,0.0
1586170614248,8599372.0,5417237.0,0.0
1586170614294,8597524.0,5411978.0,0.0
1586170614346,8593808.0,5413356.0,0.0
1586170614394,8612060.0,5415189.0,0.0
1586170614441,8624592.0,5416932.0,0.0
1586170614488,8626220.0,5417918.0,0.0
1586170614534,8644028.0,5422845.0,0.0
1586170614592,8659320.0,5422224.0,0.0
1586170614638,8674524.0,5425391.0,0.0
1586170614688,8702352.0,5431832.0,0.0
1586170614738,8719404.0,5432938.0,0.0
1586170614781,8686636.0,5407765.0,0.0
1586170614836,8670116.0,5387620.0,0.0
1586170614884,8662080.0,5371754.0,0.0
1586170614933,8667692.0,5370283.0,0.0
1586170614977,8670808.0,5366220.0,0.0
1586170615029,8661992.0,5359839.0,0.0
1586170615079,8654380.0,5357764.0,0.0
1586170615132,8644404.0,5344683.0,0.0
1586170615182,8649280.0,5345154.0,0.0
1586170615226,8652288.0,5342864.0,0.0
1586170615278,8662748.0,5347654.0,0.0
1586170615326,8661100.0,5347033.0,0.0
1586170615368,8675616.0,5351914.0,0.0
1586170615416,8688860.0,5352747.0,0.0
1586170615470,8685032.0,5351489.0,0.0
1586170615516,8655624.0,5329574.0,0.0
1586170615567,8623012.0,5306929.0,0.0
1586170615615,8618496.0,5293303.0,0.0
1586170615670,8602824.0,5289894.0,0.0
1586170615718,8609544.0,5285408.0,0.0
1586170615768,8597656.0,5279313.0,0.0
1586170615812,8584948.0,5267703.0,0.0
1586170615867,8578604.0,5257717.0,0.0
1586170615916,8575596.0,5258975.0,0.0
1586170615961,8581364.0,5251396.0,0.0
1586170616015,8586660.0,5256595.0,0.0
1586170616056,8588176.0,5255502.0,0.0
1586170616110,8594520.0,5256246.0,0.0
1586170616160,8613064.0,5261627.0,0.0
1586170616213,8590000.0,5247515.0,0.0
1586170616256,8555784.0,5221128.0,0.0
1586170616310,8528628.0,5199409.0,0.0
1586170616358,8520056.0,5190103.0,0.0
1586170616400,8521992.0,5189120.0,0.0
1586170616450,8515692.0,5182224.0,0.0
1586170616506,8510216.0,5175040.0,0.0
1586170616555,8511084.0,5171720.0,0.0
1586170616596,8505096.0,5162035.0,0.0
1586170616653,8504164.0,5161777.0,0.0
1586170616696,8503048.0,5158108.0,0.0
1586170616753,8508724.0,5153457.0,0.0
1586170616798,8507544.0,5156229.0,0.0
1586170616849,8480788.0,5129553.0,0.0
1586170616898,8441988.0,5101894.0,0.0
1586170616941,8424848.0,5088890.0,0.0
1586170616996,8428696.0,5085570.0,0.0
1586170617037,8438516.0,5087874.0,0.0
1586170617093,8424824.0,5079554.0,0.0
1586170617137,8412604.0,5069096.0,0.0
1586170617190,8413184.0,5064064.0,0.0
1586170617239,8414764.0,5055744.0,0.0
1586170617292,8414984.0,5053984.0,0.0
1586170617337,8420884.0,5057500.0,0.0
1586170617383,8419216.0,5059336.0,0.0
1586170617438,8390676.0,5035827.0,0.0
1586170617480,8347000.0,5004636.0,0.0
1586170617529,8319284.0,4984992.0,0.0
1586170617580,8310936.0,4972021.0,0.0
1586170617636,8304728.0,4964076.0,0.0
1586170617681,8299116.0,4960334.0,0.0
1586170617731,8280064.0,4945086.0,0.0
1586170617780,8267664.0,4937477.0,0.0
1586170617831,8266972.0,4934538.0,0.0
1586170617880,8264968.0,4932583.0,0.0
1586170617926,8266372.0,4929263.0,0.0
1586170617977,8265948.0,4930097.0,0.0
1586170618020,8248764.0,4922261.0,0.0
1586170618076,8211032.0,4894450.0,0.0
1586170618117,8186612.0,4871775.0,0.0
1586170618169,8183496.0,4608086.0,0.0
1586170618219,8177840.0,4530518.0,0.0
1586170618270,8162992.0,4525786.0,0.0
1586170618325,8137816.0,4515216.0,0.0
1586170618370,8115308.0,4502139.0,0.0
1586170618416,8121608.0,4504002.0,0.0
1586170618463,8116556.0,4507724.0,0.0
1586170618516,8122656.0,4512045.0,0.0
1586170618558,8233024.0,4526532.0,0.0
1586170618610,8405056.0,4563208.0,0.0
1586170618657,8543852.0,4599364.0,0.0
1586170618714,8696876.0,4666601.0,0.0
1586170618760,8744380.0,4726381.0,0.0
1586170618806,8802080.0,4792284.0,0.0
1586170618861,8761544.0,4850615.0,0.0
1586170618909,8875764.0,4984445.0,0.0
1586170618959,8990584.0,5106636.0,0.0
1586170619005,9179936.0,5191198.0,0.0
1586170619057,9395376.0,5284160.0,0.0
1586170619098,9578760.0,5325235.0,0.0
1586170619156,9835096.0,5402491.0,0.0
1586170619198,1.0076068E7,5439797.0,0.0
1586170619248,1.0161508E7,5383659.0,0.0
1586170619298,1.0212148E7,5373146.0,0.0
1586170619346,1.0099376E7,5335345.0,0.0
1586170619401,1.0054988E7,5341941.0,0.0
1586170619450,1.0114648E7,5358348.0,0.0
1586170619499,1.0228956E7,5372766.0,0.0
1586170619550,1.03438E7,5370355.0,0.0
1586170619598,1.0502608E7,5411648.0,0.0
1586170619639,1.0634884E7,5489500.0,0.0
1586170619697,1.0862568E7,5641011.0,0.0
1586170619738,1.0992816E7,5715509.0,0.0
1586170619795,1.113032E7,5801692.0,0.0
1586170619839,1.113542E7,5827912.0,0.0
1586170619892,1.1094792E7,5849166.0,0.0
1586170619942,1.1045732E7,5877786.0,0.0
1586170619991,1.1093612E7,5937453.0,0.0
1586170620031,1.111278E7,5986052.0,0.0
1586170620082,1.115434E7,6054680.0,0.0
1586170620131,1.1159372E7,6088286.0,0.0
1586170620178,1.116616E7,6117780.0,0.0
1586170620228,1.113088E7,6123340.0,0.0
1586170620280,1.1124532E7,6110794.0,0.0
1586170620327,1.1113672E7,6075912.0,0.0
1586170620380,1.1092812E7,6046878.0,0.0
1586170620424,1.1074892E7,6038525.0,0.0
1586170620472,1.1084908E7,6036228.0,0.0
1586170620522,1.1097332E7,6032355.0,0.0
1586170620570,1.1082996E7,6002460.0,0.0
1586170620620,1.10608E7,5972197.0,0.0
1586170620669,1.103028E7,5951620.0,0.0
1586170620719,1.1026276E7,5948562.0,0.0
1586170620767,1.098972E7,5945081.0,0.0
1586170620820,1.0970156E7,5952619.0,0.0
1586170620866,1.0962008E7,5961765.0,0.0
1586170620914,1.0953772E7,5969083.0,0.0
1586170620963,1.0965456E7,5981056.0,0.0
1586170621012,1.1023648E7,6003356.0,0.0
1586170621062,1.1097956E7,6005297.0,0.0
1586170621110,1.1178984E7,5994704.0,0.0
1586170621159,1.1221568E7,5993267.0,0.0
1586170621208,1.134654E7,6134049.0,0.0
1586170621260,1.1576784E7,6288456.0,0.0
1586170621309,1.1778356E7,6395883.0,0.0
1586170621360,1.192646E7,6427123.0,0.0
1586170621406,1.199144E7,6417620.0,0.0
1586170621453,1.1990168E7,6380934.0,0.0
1586170621503,1.1948208E7,6332541.0,0.0
1586170621551,1.1956224E7,6270245.0,0.0
1586170621602,1.1918288E7,6192485.0,0.0
1586170621650,1.1898632E7,6096386.0,0.0
1586170621700,1.187132E7,6022360.0,0.0
1586170621748,1.1827308E7,5980389.0,0.0
1586170621799,1.17825E7,5942059.0,0.0
1586170621847,1.1723352E7,5907063.0,0.0
1586170621899,1.168918E7,5883451.0,0.0
1586170621945,1.1674512E7,5889300.0,0.0
1586170621993,1.1630056E7,5986834.0,0.0
1586170622044,1.1635288E7,6111954.0,0.0
1586170622091,1.1638204E7,6200148.0,0.0
1586170622142,1.1697352E7,6324958.0,0.0
1586170622190,1.1750264E7,6458248.0,0.0
1586170622240,1.1780228E7,6572810.0,0.0
1586170622288,1.1804224E7,6677202.0,0.0
1586170622340,1.1898276E7,6765303.0,0.0
1586170622387,1.1893492E7,6824716.0,0.0
1586170622435,1.1931024E7,6909634.0,0.0
1586170622485,1.2051252E7,7374447.0,0.0
1586170622533,1.2171108E7,7528077.0,0.0
1586170622583,1.23012E7,7591141.0,0.0
1586170622631,1.2461832E7,7651631.0,0.0
1586170622681,1.2632576E7,7699416.0,0.0
1586170622729,1.2690164E7,7712893.0,0.0
1586170622781,1.2741808E7,7720860.0,0.0
1586170622827,1.2775556E7,7726994.0,0.0
1586170622881,1.2782188E7,7721746.0,0.0
1586170622927,1.2794924E7,7728493.0,0.0
1586170622975,1.2809436E7,7721472.0,0.0
1586170623024,1.277916E7,7711310.0,0.0
1586170623072,1.2807032E7,7735222.0,0.0
1586170623121,1.2846456E7,7716062.0,0.0
1586170623171,1.2823148E7,7718912.0,0.0
1586170623222,1.2826468E7,7728114.0,0.0
1586170623270,1.2794368E7,7733522.0,0.0
1586170623322,1.280002E7,7766494.0,0.0
1586170623367,1.2780944E7,7776773.0,0.0
1586170623416,1.279726E7,7812257.0,0.0
1586170623466,1.2841624E7,7812608.0,0.0
1586170623515,1.2929644E7,7792342.0,0.0
1586170623564,1.2893916E7,7688818.0,0.0
1586170623612,1.2733104E7,7550056.0,0.0
1586170623662,1.2714472E7,7484854.0,0.0
1586170623710,1.2798372E7,7472164.0,0.0
1586170623763,1.2727092E7,7343229.0,0.0
1586170623809,1.2827244E7,7362839.0,0.0
1586170623863,1.275572E7,7278435.0,0.0
1586170623907,1.2771416E7,7239690.0,0.0
1586170623956,1.2772772E7,7198709.0,0.0
1586170624006,1.2730476E7,7141386.0,0.0
1586170624054,1.2719236E7,7115611.0,0.0
1586170624105,1.2632796E7,7058609.0,0.0
1586170624152,1.2529396E7,6998467.0,0.0
1586170624202,1.2370384E7,6889391.0,0.0
1586170624250,1.2314244E7,6897037.0,0.0
1586170624302,1.2251692E7,6844964.0,0.0
1586170624349,1.2235084E7,6878573.0,0.0
1586170624398,1.22248E7,6920821.0,0.0
1586170624447,1.221534E7,6941886.0,0.0
1586170624496,1.2162624E7,6941014.0,0.0
1586170624546,1.2135844E7,6944924.0,0.0
1586170624593,1.210548E7,6972196.0,0.0
1586170624645,1.2058176E7,6973361.0,0.0
1586170624692,1.2023204E7,7039216.0,0.0
1586170624742,1.2085912E7,7116760.0,0.0
1586170624790,1.220708E7,7182615.0,0.0
1586170624843,1.218994E7,7203696.0,0.0
1586170624888,1.2266916E7,7256408.0,0.0
1586170624937,1.2331852E7,7253255.0,0.0
1586170624987,1.2402708E7,7198187.0,0.0
1586170625035,1.241482E7,7189376.0,0.0
1586170625085,1.2370008E7,7201034.0,0.0
1586170625133,1.2317516E7,7234923.0,0.0
1586170625185,1.2461056E7,7274117.0,0.0
1586170625231,1.2517708E7,7299121.0,0.0
1586170625283,1.2522784E7,7299471.0,0.0
1586170625329,1.2620732E7,7317177.0,0.0
1586170625384,1.2653924E7,7364657.0,0.0
1586170625428,1.2648336E7,7380169.0,0.0
1586170625477,1.2671196E7,7411599.0,0.0
1586170625526,1.2701472E7,7415220.0,0.0
1586170625575,1.2723064E7,7424929.0,0.0
1586170625626,1.27504E7,7462875.0,0.0
1586170625673,1.2731344E7,7465171.0,0.0
1586170625725,1.273602E7,7472702.0,0.0
1586170625771,1.274606E7,7475944.0,0.0
1586170625824,1.2758992E7,7435791.0,0.0
1586170625869,1.277502E7,7432751.0,0.0
1586170625921,1.278034E7,7381726.0,0.0
1586170625968,1.2781476E7,7352970.0,0.0
1586170626017,1.2756168E7,7324852.0,0.0
1586170626068,1.270904E7,7305417.0,0.0
1586170626118,1.2637492E7,7288552.0,0.0
1586170626169,1.2606172E7,7325622.0,0.0
1586170626216,1.258812E7,7312410.0,0.0
1586170626266,1.2575364E7,7260828.0,0.0
1586170626313,1.2591724E7,7233426.0,0.0
1586170626368,1.2634244E7,7223134.0,0.0
1586170626415,1.26785E7,7152248.0,0.0
1586170626467,1.2631816E7,7111729.0,0.0
1586170626514,1.2616524E7,7085142.0,0.0
1586170626566,1.2579328E7,7047387.0,0.0
1586170626607,1.2548984E7,7002391.0,0.0
1586170626664,1.2494824E7,6939590.0,0.0
1586170626707,1.2395608E7,6876321.0,0.0
1586170626761,1.2304692E7,6825991.0,0.0
1586170626807,1.2214272E7,6770458.0,0.0
1586170626853,1.212142E7,6727426.0,0.0
1586170626908,1.206708E7,6675249.0,0.0
1586170626957,1.1951392E7,6606385.0,0.0
1586170627007,1.1795944E7,6509753.0,0.0
1586170627050,1.1634688E7,6419518.0,0.0
1586170627105,1.152828E7,6358052.0,0.0
1586170627146,1.1462476E7,6318406.0,0.0
1586170627203,1.137724E7,6276843.0,0.0
1586170627249,1.1253448E7,6226703.0,0.0
1586170627299,1.1231096E7,6216920.0,0.0
1586170627348,1.1203336E7,6237084.0,0.0
1586170627400,1.1262684E7,6329704.0,0.0
1586170627449,1.1241672E7,6341114.0,0.0
1586170627496,1.1182792E7,6307910.0,0.0
1586170627546,1.1042012E7,6234772.0,0.0
1586170627590,1.0959048E7,6155658.0,0.0
1586170627644,1.0845984E7,6063952.0,0.0
1586170627692,1.077584E7,6008928.0,0.0
1586170627742,1.0727644E7,5984535.0,0.0
1586170627788,1.06453E7,5951751.0,0.0
1586170627840,1.0521264E7,5897367.0,0.0
1586170627891,1.0424408E7,5856835.0,0.0
1586170627937,1.0039004E7,5644105.0,0.0
1586170627988,1.014548E7,5778084.0,0.0
1586170628033,1.0138668E7,5781835.0,0.0
1586170628085,1.0129584E7,5774158.0,0.0
1586170628130,1.0088088E7,5756771.0,0.0
1586170628178,9985044.0,5698186.0,0.0
1586170628229,9795404.0,5602831.0,0.0
1586170628281,9665024.0,5533473.0,0.0
1586170628329,9589512.0,5488799.0,0.0
1586170628379,9496084.0,5449357.0,0.0
1586170628429,9414208.0,5401427.0,0.0
1586170628475,9316416.0,5355459.0,0.0
1586170628527,9236568.0,5324711.0,0.0
1586170628568,9146812.0,5284864.0,0.0
1586170628625,9073260.0,5254755.0,0.0
1586170628672,9012356.0,5238721.0,0.0
1586170628723,8941100.0,5207638.0,0.0
1586170628773,8868504.0,5170554.0,0.0
1586170628816,8771248.0,5124788.0,0.0
1586170628865,8654224.0,5076043.0,0.0
1586170628912,8583056.0,5041123.0,0.0
1586170628970,8540468.0,5029566.0,0.0
1586170629011,8513268.0,5020058.0,0.0
1586170629066,8471372.0,5007151.0,0.0
1586170629111,8422020.0,4993308.0,0.0
1586170629163,8369484.0,4991681.0,0.0
1586170629214,8346200.0,4978089.0,0.0
1586170629254,8268908.0,4954159.0,0.0
1586170629313,8166308.0,4910923.0,0.0
1586170629355,8137148.0,4911986.0,0.0
1586170629404,8205556.0,4940160.0,0.0
1586170629453,8330016.0,4988948.0,0.0
1586170629511,8358040.0,4972316.0,0.0
1586170629550,8411492.0,4974497.0,0.0
1586170629605,8575552.0,5035773.0,0.0
1586170629651,8755532.0,5110919.0,0.0
1586170629706,8888696.0,5167427.0,0.0
1586170629751,9005144.0,5192839.0,0.0
1586170629803,9054872.0,5192257.0,0.0
1586170629853,9125484.0,5190136.0,0.0
1586170629896,9196720.0,5207915.0,0.0
1586170629949,9200080.0,5191008.0,0.0
1586170629997,9258092.0,5207711.0,0.0
1586170630050,9263036.0,5225725.0,0.0
1586170630092,9238548.0,5221493.0,0.0
1586170630141,9128448.0,5153209.0,0.0
1586170630191,9028916.0,5097589.0,0.0
1586170630245,8974380.0,5060764.0,0.0
1586170630293,8949448.0,5040950.0,0.0
1586170630341,8934644.0,5028783.0,0.0
1586170630393,8901808.0,5001276.0,0.0
1586170630438,8854216.0,4972711.0,0.0
1586170630491,8855596.0,4967883.0,0.0
1586170630531,8858712.0,4978322.0,0.0
1586170630592,8849740.0,4973001.0,0.0
1586170630631,8839588.0,4971313.0,0.0
1586170630679,8842016.0,4985764.0,0.0
1586170630731,8822272.0,4983322.0,0.0
1586170630785,8720116.0,4932150.0,0.0
1586170630832,8625684.0,4886747.0,0.0
1586170630880,8554160.0,4860261.0,0.0
1586170630928,8522904.0,4851813.0,0.0
1586170630971,8501492.0,4848877.0,0.0
1586170631024,8475356.0,4846014.0,0.0
1586170631073,8435088.0,4829745.0,0.0
1586170631123,8406304.0,4810657.0,0.0
1586170631171,8429412.0,4839340.0,0.0
1586170631218,8472684.0,4868401.0,0.0
1586170631273,8560860.0,4919747.0,0.0
1586170631323,8602644.0,4940538.0,0.0
1586170631371,8629604.0,4965237.0,0.0
1586170631417,8610168.0,4972899.0,0.0
1586170631466,8545324.0,4933689.0,0.0
1586170631515,8560460.0,4938561.0,0.0
1586170631566,8659364.0,4978729.0,0.0
1586170631612,8794600.0,5020698.0,0.0
1586170631670,8873672.0,5043842.0,0.0
1586170631712,8947600.0,5065824.0,0.0
1586170631766,8932972.0,5054427.0,0.0
1586170631810,9021904.0,5084402.0,0.0
1586170631865,9150416.0,5125383.0,0.0
1586170631914,9263280.0,5165377.0,0.0
1586170631959,9377992.0,5219821.0,0.0
1586170632009,9479056.0,5298006.0,0.0
1586170632053,9499580.0,5366595.0,0.0
1586170632112,9497908.0,5421139.0,0.0
1586170632151,9518856.0,5479233.0,0.0
1586170632208,9525156.0,5552749.0,0.0
1586170632249,9536488.0,5622588.0,0.0
1586170632305,9526204.0,5677716.0,0.0
1586170632356,9453120.0,5720152.0,0.0
1586170632398,9421264.0,5788739.0,0.0
1586170632450,9421356.0,5846776.0,0.0
1586170632499,9469504.0,5930976.0,0.0
1586170632548,9639288.0,6009046.0,0.0
1586170632592,9744092.0,5995932.0,0.0
1586170632643,9789304.0,5772065.0,0.0
1586170632696,9784964.0,5718684.0,0.0
1586170632741,9810944.0,5754736.0,0.0
1586170632797,9737660.0,5647362.0,0.0
1586170632845,9801036.0,5703855.0,0.0
1586170632893,9826012.0,5693272.0,0.0
1586170632942,9886072.0,5726127.0,0.0
1586170632988,9998624.0,5746494.0,0.0
1586170633033,1.0059664E7,5762136.0,0.0
1586170633091,1.001906E7,5763474.0,0.0
1586170633134,1.0170256E7,5894023.0,0.0
1586170633182,1.020712E7,5870427.0,0.0
1586170633231,1.0386252E7,5976727.0,0.0
1586170633287,1.0396936E7,6002996.0,0.0
1586170633337,1.0432956E7,6080483.0,0.0
1586170633385,1.0309808E7,6102770.0,0.0
1586170633433,1.0301304E7,6208517.0,0.0
1586170633481,1.0378416E7,6352018.0,0.0
1586170633528,1.0483776E7,6425187.0,0.0
1586170633579,1.0607748E7,6449408.0,0.0
1586170633631,1.0713288E7,6450220.0,0.0
1586170633677,1.0796008E7,6444013.0,0.0
1586170633728,1.0812616E7,6431597.0,0.0
1586170633777,1.0880912E7,6423630.0,0.0
1586170633820,1.0830156E7,6381980.0,0.0
1586170633875,1.0639136E7,6222341.0,0.0
1586170633917,1.072466E7,6298535.0,0.0
1586170633969,1.0716468E7,6217908.0,0.0
1586170634020,1.0761728E7,6204345.0,0.0
1586170634066,1.0802596E7,6232330.0,0.0
1586170634119,1.0817736E7,6232228.0,0.0
1586170634171,1.0828308E7,6215625.0,0.0
1586170634213,1.0835364E7,6196435.0,0.0
1586170634269,1.0842156E7,6177392.0,0.0
1586170634318,1.0845048E7,6156661.0,0.0
1586170634366,1.081936E7,6108353.0,0.0
1586170634408,1.0737708E7,6036419.0,0.0
1586170634464,1.0657144E7,5978587.0,0.0
1586170634510,1.0625424E7,5935440.0,0.0
1586170634560,1.0589028E7,5908560.0,0.0
1586170634609,1.055744E7,5885852.0,0.0
1586170634654,1.0522624E7,5855033.0,0.0
1586170634710,1.0510892E7,5847996.0,0.0
1586170634757,1.0500384E7,5843098.0,0.0
1586170634808,1.04972E7,5831787.0,0.0
1586170634854,1.046944E7,5818192.0,0.0
1586170634899,1.0461848E7,5811129.0,0.0
1586170634954,1.0447512E7,5798321.0,0.0
1586170635004,1.039816E7,5768155.0,0.0
1586170635053,1.0337412E7,5729818.0,0.0
1586170635096,1.029556E7,5701122.0,0.0
1586170635149,1.02542E7,5685872.0,0.0
1586170635193,1.023686E7,5677818.0,0.0
1586170635250,1.0218472E7,5658352.0,0.0
1586170635298,1.0197592E7,5645413.0,0.0
1586170635348,1.0183076E7,5634816.0,0.0
1586170635399,1.0177444E7,5635077.0,0.0
1586170635447,1.0176776E7,5632023.0,0.0
1586170635492,1.0157056E7,5648044.0,0.0
1586170635545,1.016992E7,5675927.0,0.0
1586170635599,1.0196524E7,5706660.0,0.0
1586170635643,1.0221476E7,5732626.0,0.0
1586170635686,1.0228224E7,5729426.0,0.0
1586170635735,1.0258608E7,5744545.0,0.0
1586170635788,1.0299612E7,5765044.0,0.0
1586170635832,1.0323364E7,5768069.0,0.0
1586170635883,1.0318644E7,5773359.0,0.0
1586170635935,1.031624E7,5777721.0,0.0
1586170635986,1.0303196E7,5780119.0,0.0
1586170636034,1.030066E7,5782447.0,0.0
1586170636084,1.0293848E7,5777269.0,0.0
1586170636132,1.0294736E7,5789204.0,0.0
1586170636176,1.0280648E7,5824504.0,0.0
1586170636229,1.0260256E7,5862185.0,0.0
1586170636278,1.0256872E7,5897278.0,0.0
1586170636332,1.0262148E7,5937577.0,0.0
1586170636378,1.0196212E7,5966623.0,0.0
1586170636423,1.020832E7,6015905.0,0.0
1586170636469,1.0251864E7,6066659.0,0.0
1586170636521,1.0357268E7,6126014.0,0.0
1586170636570,1.0273412E7,6152547.0,0.0
1586170636620,1.0188552E7,6174905.0,0.0
1586170636667,9981036.0,6157897.0,0.0
1586170636716,1.0059128E7,6182277.0,0.0
1586170636768,1.006418E7,6170166.0,0.0
1586170636817,1.0252844E7,6204476.0,0.0
1586170636870,1.0348544E7,6211105.0,0.0
1586170636917,1.0509376E7,6309712.0,0.0
1586170636970,1.0483932E7,6365217.0,0.0
1586170637017,1.0712264E7,6524335.0,0.0
1586170637066,1.0996532E7,6521252.0,0.0
1586170637116,1.0950344E7,6554660.0,0.0
1586170637158,1.109702E7,6741584.0,0.0
1586170637214,1.122954E7,6863542.0,0.0
1586170637255,1.1305848E7,6912911.0,0.0
1586170637309,1.1381268E7,7001461.0,0.0
1586170637357,1.158598E7,7165056.0,0.0
1586170637403,1.171988E7,7176278.0,0.0
1586170637457,1.175358E7,7156028.0,0.0
1586170637508,1.17587E7,7089530.0,0.0
1586170637557,1.178822E7,7155401.0,0.0
1586170637607,1.1790536E7,7212214.0,0.0
1586170637652,1.1693612E7,7281893.0,0.0
1586170637701,1.1722172E7,7356416.0,0.0
1586170637754,1.1693456E7,7394489.0,0.0
1586170637795,1.1843892E7,7416468.0,0.0
1586170637852,1.1920384E7,7467439.0,0.0
1586170637898,1.2004104E7,7468282.0,0.0
1586170637950,1.2279808E7,7430833.0,0.0
1586170637998,1.2198196E7,7274785.0,0.0
1586170638046,1.2233572E7,7236884.0,0.0
1586170638097,1.2199112E7,7174590.0,0.0
1586170638140,1.214978E7,7057549.0,0.0
1586170638189,1.2155948E7,7033691.0,0.0
1586170638237,1.2149092E7,7012756.0,0.0
1586170638291,1.2148088E7,6985701.0,0.0
1586170638335,1.2124936E7,6968709.0,0.0
1586170638390,1.2086092E7,6937728.0,0.0
1586170638437,1.20972E7,6924878.0,0.0
1586170638487,1.207594E7,6896877.0,0.0
1586170638538,1.2071488E7,6886366.0,0.0
1586170638586,1.20649E7,6868325.0,0.0
1586170638637,1.2059288E7,6853788.0,0.0
1586170638677,1.2049784E7,6832402.0,0.0
1586170638734,1.20385E7,6824437.0,0.0
1586170638776,1.2022716E7,6802570.0,0.0
1586170638833,1.198396E7,6764207.0,0.0
1586170638880,1.19507E7,6731728.0,0.0
1586170638931,1.193098E7,6701534.0,0.0
1586170638980,1.188374E7,6657674.0,0.0
1586170639027,1.18294E7,6634819.0,0.0
1586170639079,1.176026E7,6624935.0,0.0
1586170639122,1.1744144E7,6661409.0,0.0
1586170639177,1.1755428E7,6677561.0,0.0
1586170639217,1.1650892E7,6643965.0,0.0
1586170639274,1.1621576E7,6541881.0,0.0
1586170639320,1.1662712E7,6679538.0,0.0
1586170639371,1.16612E7,6690690.0,0.0
1586170639425,1.170316E7,6704428.0,0.0
1586170639472,1.1684148E7,6661715.0,0.0
1586170639519,1.1634464E7,6637058.0,0.0
1586170639566,1.15222E7,6502572.0,0.0
1586170639621,1.1617612E7,6634399.0,0.0
1586170639659,1.1585024E7,6640417.0,0.0
1586170639716,1.165806E7,6678083.0,0.0
1586170639758,1.1705632E7,6694846.0,0.0
1586170639808,1.164704E7,6637278.0,0.0
1586170639861,1.1432336E7,6380847.0,0.0
1586170639910,1.1656836E7,6650420.0,0.0
1586170639961,1.1691764E7,6775371.0,0.0
1586170640012,1.1728692E7,6739855.0,0.0
1586170640059,1.17837E7,6766531.0,0.0
1586170640102,1.1663804E7,6645579.0,0.0
1586170640150,1.1642988E7,6572614.0,0.0
1586170640206,1.1541636E7,6517574.0,0.0
1586170640253,1.1398744E7,6413732.0,0.0
1586170640298,1.154504E7,6689904.0,0.0
1586170640347,1.1610132E7,6754131.0,0.0
1586170640400,1.168602E7,6767840.0,0.0
1586170640450,1.171636E7,6742211.0,0.0
1586170640500,1.1666208E7,6670453.0,0.0
1586170640548,1.1659728E7,6702798.0,0.0
1586170640598,1.1652896E7,6702871.0,0.0
1586170640639,1.1484004E7,6539321.0,0.0
1586170640688,1.1411456E7,6546155.0,0.0
1586170640738,1.152572E7,6759713.0,0.0
1586170640790,1.162478E7,6814171.0,0.0
1586170640840,1.1705164E7,6804840.0,0.0
1586170640888,1.1723372E7,6764149.0,0.0
1586170640935,1.1771856E7,6779864.0,0.0
1586170640993,1.1750552E7,6803719.0,0.0
1586170641037,1.1567412E7,6636886.0,0.0
1586170641083,1.1540968E7,6594319.0,0.0
1586170641138,1.1694792E7,6816556.0,0.0
1586170641180,1.1693744E7,6851286.0,0.0
1586170641237,1.1622888E7,6799388.0,0.0
1586170641283,1.1626872E7,6818852.0,0.0
1586170641334,1.1636468E7,6779062.0,0.0
1586170641383,1.1659752E7,6783527.0,0.0
1586170641428,1.1680632E7,6773438.0,0.0
1586170641480,1.171456E7,6777377.0,0.0
1586170641528,1.1723396E7,6777072.0,0.0
1586170641579,1.1735704E7,6763449.0,0.0
1586170641621,1.1730228E7,6751049.0,0.0
1586170641672,1.1756076E7,6756093.0,0.0
1586170641721,1.176302E7,6740276.0,0.0
1586170641776,1.1765248E7,6743504.0,0.0
1586170641824,1.1791156E7,6740581.0,0.0
1586170641875,1.1759724E7,6750641.0,0.0
1586170641922,1.1790044E7,6777145.0,0.0
1586170641969,1.1824592E7,6803939.0,0.0
1586170642021,1.1852176E7,6798239.0,0.0
1586170642068,1.1856204E7,6809811.0,0.0
1586170642119,1.1856092E7,6803907.0,0.0
1586170642164,1.18467E7,6799605.0,0.0
1586170642217,1.184256E7,6784632.0,0.0
1586170642263,1.1848324E7,6772725.0,0.0
1586170642316,1.1840332E7,6758799.0,0.0
1586170642367,1.1847724E7,6751689.0,0.0
1586170642406,1.1841268E7,6741963.0,0.0
1586170642455,1.1796744E7,6718383.0,0.0
1586170642511,1.1771812E7,6716523.0,0.0
1586170642561,1.175178E7,6695021.0,0.0
1586170642603,1.1742872E7,6678013.0,0.0
1586170642659,1.1725376E7,6681022.0,0.0
1586170642701,1.171694E7,6674959.0,0.0
1586170642756,1.1717764E7,6678580.0,0.0
1586170642804,1.1706724E7,6670889.0,0.0
1586170642856,1.1691296E7,6662979.0,0.0
1586170642904,1.168012E7,6667109.0,0.0
1586170642947,1.1678208E7,6660291.0,0.0
1586170643001,1.167362E7,6668766.0,0.0
1586170643044,1.1630948E7,6655856.0,0.0
1586170643100,1.1580348E7,6622390.0,0.0
1586170643140,1.1527788E7,6597736.0,0.0
1586170643191,1.1485648E7,6597953.0,0.0
1586170643240,1.1512228E7,6618626.0,0.0
1586170643295,1.1512452E7,6624412.0,0.0
1586170643343,1.1502724E7,6657353.0,0.0
1586170643388,1.1548804E7,6668781.0,0.0
1586170643442,1.1532264E7,6667995.0,0.0
1586170643487,1.1531684E7,6677517.0,0.0
1586170643540,1.1564808E7,6677214.0,0.0
1586170643582,1.1558308E7,6671673.0,0.0
1586170643640,1.155744E7,6691531.0,0.0
1586170643681,1.1576272E7,6681472.0,0.0
1586170643738,1.1572956E7,6664027.0,0.0
1586170643785,1.1581572E7,6647643.0,0.0
1586170643835,1.1545932E7,6630068.0,0.0
1586170643884,1.1568684E7,6647309.0,0.0
1586170643933,1.1587984E7,6659826.0,0.0
1586170643982,1.1589228E7,6664186.0,0.0
1586170644030,1.1513388E7,6600685.0,0.0
1586170644079,1.151646E7,6681981.0,0.0
1586170644121,1.1545976E7,6667632.0,0.0
1586170644178,1.1345764E7,6673259.0,0.0
1586170644224,1.1424632E7,6479542.0,0.0
1586170644275,1.1500608E7,6732557.0,0.0
1586170644325,1.1657104E7,6756895.0,0.0
1586170644373,1.149952E7,6637437.0,0.0
1586170644424,1.160608E7,6779776.0,0.0
1586170644471,1.1566012E7,6725449.0,0.0
1586170644522,1.1598736E7,6718965.0,0.0
1586170644570,1.15856E7,6670991.0,0.0
1586170644621,1.1597644E7,6658996.0,0.0
1586170644662,1.1586824E7,6646786.0,0.0
1586170644716,1.1576428E7,6642975.0,0.0
1586170644765,1.1607148E7,6704122.0,0.0
1586170644810,1.1644212E7,6746746.0,0.0
1586170644865,1.167598E7,6835166.0,0.0
1586170644913,1.1648912E7,6992216.0,0.0
1586170644962,1.1582196E7,7113882.0,0.0
1586170645006,1.1478972E7,7140312.0,0.0
1586170645060,1.1499452E7,7153569.0,0.0
1586170645102,1.1607396E7,7250014.0,0.0
1586170645159,1.158932E7,7126384.0,0.0
1586170645207,1.1465772E7,7012001.0,0.0
1586170645250,1.13804E7,6924732.0,0.0
1586170645300,1.1308832E7,6831733.0,0.0
1586170645356,1.1332184E7,6877338.0,0.0
1586170645405,1.127466E7,6813024.0,0.0
1586170645451,1.1268428E7,6764047.0,0.0
1586170645499,1.13424E7,6773015.0,0.0
1586170645544,1.146194E7,6824915.0,0.0
1586170645600,1.1541456E7,6802745.0,0.0
1586170645641,1.1534756E7,6647410.0,0.0
1586170645690,1.148596E7,6735059.0,0.0
1586170645742,1.1487496E7,6824829.0,0.0
1586170645791,1.168248E7,7068089.0,0.0
1586170645838,1.1917888E7,7181844.0,0.0
1586170645890,1.1895872E7,7249998.0,0.0
1586170645938,1.2161844E7,7026510.0,0.0
1586170645984,1.2245192E7,7037805.0,0.0
1586170646040,1.2188312E7,6931826.0,0.0
1586170646084,1.2034624E7,6748956.0,0.0
1586170646132,1.212616E7,6730681.0,0.0
1586170646187,1.2065768E7,6612025.0,0.0
1586170646238,1.2066212E7,6559093.0,0.0
1586170646287,1.2061316E7,6626896.0,0.0
1586170646334,1.20397E7,6665014.0,0.0
1586170646384,1.1824348E7,6680367.0,0.0
1586170646426,1.1675648E7,6670889.0,0.0
1586170646482,1.1476612E7,6601602.0,0.0
1586170646528,1.1455732E7,6552189.0,0.0
1586170646580,1.1401192E7,6468001.0,0.0
1586170646630,1.13481E7,6431422.0,0.0
1586170646678,1.1383696E7,6503894.0,0.0
1586170646720,1.1486852E7,6574824.0,0.0
1586170646771,1.1558376E7,6675816.0,0.0
1586170646818,1.1371072E7,6869517.0,0.0
1586170646869,1.1463076E7,6990296.0,0.0
1586170646918,1.1340176E7,6792889.0,0.0
1586170646969,1.141822E7,6728764.0,0.0
1586170647021,1.14066E7,6748476.0,0.0
1586170647065,1.1425744E7,6745584.0,0.0
1586170647118,1.141486E7,6633730.0,0.0
1586170647166,1.14887E7,6664651.0,0.0
1586170647219,1.1510628E7,6692098.0,0.0
1586170647264,1.1574936E7,6731133.0,0.0
1586170647313,1.1664848E7,6764729.0,0.0
1586170647365,1.16742E7,6717424.0,0.0
1586170647408,1.1641208E7,6717481.0,0.0
1586170647462,1.14753E7,6916809.0,0.0
1586170647505,1.15665E7,7063246.0,0.0
1586170647555,1.1550652E7,7207504.0,0.0
1586170647607,1.1508444E7,7198346.0,0.0
1586170647654,1.156746E7,7198113.0,0.0
1586170647706,1.1764868E7,7017991.0,0.0
1586170647755,1.183686E7,6961687.0,0.0
1586170647806,1.1828376E7,6915471.0,0.0
1586170647848,1.1838552E7,6911707.0,0.0
1586170647904,1.1865932E7,6896237.0,0.0
1586170647947,1.189298E7,6899173.0,0.0
1586170648002,1.18593E7,6921432.0,0.0
1586170648048,1.1777468E7,6963474.0,0.0
1586170648094,1.1755876E7,7018237.0,0.0
1586170648150,1.1752068E7,7001200.0,0.0
1586170648192,1.1695236E7,7030057.0,0.0
1586170648248,1.16167E7,7183605.0,0.0
1586170648294,1.163658E7,7312451.0,0.0
1586170648345,1.1474564E7,7228395.0,0.0
1586170648387,1.1569908E7,7102672.0,0.0
1586170648444,1.1709504E7,7058027.0,0.0
1586170648488,1.1718744E7,6988538.0,0.0
1586170648539,1.1788752E7,7031452.0,0.0
1586170648587,1.1761572E7,7041308.0,0.0
1586170648633,1.169114E7,7014791.0,0.0
1586170648689,1.1622756E7,6992914.0,0.0
1586170648736,1.1697816E7,7051371.0,0.0
1586170648787,1.1740536E7,7108401.0,0.0
1586170648835,1.1668232E7,7164880.0,0.0
1586170648884,1.1800952E7,7214845.0,0.0
1586170648928,1.190126E7,7183736.0,0.0
1586170648983,1.1882604E7,7167075.0,0.0
1586170649029,1.1869428E7,7162031.0,0.0
1586170649081,1.1758344E7,7276267.0,0.0
1586170649131,1.1838908E7,7356677.0,0.0
1586170649173,1.203478E7,7378076.0,0.0
1586170649228,1.2152784E7,7394489.0,0.0
1586170649275,1.2241116E7,7348709.0,0.0
1586170649323,1.2256388E7,7338793.0,0.0
1586170649375,1.234002E7,7237888.0,0.0
1586170649425,1.2347948E7,7179300.0,0.0
1586170649469,1.2263444E7,7130600.0,0.0
1586170649523,1.2194748E7,7210208.0,0.0
1586170649573,1.215136E7,7229790.0,0.0
1586170649614,1.2197128E7,7170374.0,0.0
1586170649671,1.2202384E7,7091231.0,0.0
1586170649712,1.2171328E7,7070153.0,0.0
1586170649768,1.209208E7,7095288.0,0.0
1586170649810,1.2070152E7,7179271.0,0.0
1586170649865,1.2033356E7,7249285.0,0.0
1586170649912,1.2169792E7,7305547.0,0.0
1586170649965,1.2234572E7,7374542.0,0.0
1586170650011,1.2296124E7,7422633.0,0.0
1586170650060,1.2315044E7,7479680.0,0.0
1586170650113,1.2472272E7,7506079.0,0.0
1586170650152,1.2669216E7,7496442.0,0.0
1586170650207,1.2738312E7,7403211.0,0.0
1586170650258,1.2711824E7,7404418.0,0.0
1586170650308,1.2539992E7,7438740.0,0.0
1586170650351,1.2460652E7,7501996.0,0.0
1586170650399,1.2479552E7,7568854.0,0.0
1586170650451,1.2442868E7,7599877.0,0.0
1586170650497,1.2615856E7,7671431.0,0.0
1586170650551,1.2491152E7,7646341.0,0.0
1586170650599,1.2514636E7,7760548.0,0.0
1586170650651,1.2529596E7,7782572.0,0.0
1586170650692,1.2543464E7,7777585.0,0.0
1586170650750,1.2788712E7,7885573.0,0.0
1586170650790,1.2737556E7,7880761.0,0.0
1586170650840,1.2436276E7,7804554.0,0.0
1586170650888,1.2599228E7,7911188.0,0.0
1586170650940,1.296916E7,7932413.0,0.0
1586170650990,1.2787732E7,7722981.0,0.0
1586170651037,1.2655192E7,7565962.0,0.0
1586170651090,1.2509316E7,7592186.0,0.0
1586170651137,1.2680524E7,7721704.0,0.0
1586170651191,1.2552856E7,7680446.0,0.0
1586170651231,1.263086E7,7748686.0,0.0
1586170651288,1.2507824E7,7771742.0,0.0
1586170651331,1.2518664E7,7781642.0,0.0
1586170651386,1.2533556E7,7875119.0,0.0
1586170651433,1.2415552E7,7931467.0,0.0
1586170651475,1.2423476E7,7939247.0,0.0
1586170651533,1.2514524E7,7984851.0,0.0
1586170651579,1.2549652E7,8080974.0,0.0
1586170651631,1.2550632E7,8065274.0,0.0
1586170651677,1.2573696E7,8053671.0,0.0
1586170651723,1.2747264E7,8135941.0,0.0
1586170651773,1.2767096E7,8169479.0,0.0
1586170651822,1.2725336E7,8166820.0,0.0
1586170651870,1.2436188E7,8116634.0,0.0
1586170651919,1.2478396E7,8092256.0,0.0
1586170651972,1.261964E7,8111124.0,0.0
1586170652021,1.2631192E7,8149025.0,0.0
1586170652069,1.2717588E7,8112274.0,0.0
1586170652118,1.2739492E7,8117710.0,0.0
1586170652171,1.2542884E7,8001394.0,0.0
1586170652219,1.2489416E7,7879902.0,0.0
1586170652268,1.2494132E7,7827406.0,0.0
1586170652309,1.240734E7,7726427.0,0.0
1586170652358,1.237526E7,7658958.0,0.0
1586170652410,1.234198E7,7526739.0,0.0
1586170652459,1.2338732E7,7486411.0,0.0
1586170652516,1.234276E7,7476626.0,0.0
1586170652561,1.2281188E7,7415089.0,0.0
1586170652608,1.226578E7,7388747.0,0.0
1586170652658,1.2373924E7,7524835.0,0.0
1586170652708,1.2521248E7,7779999.0,0.0
1586170652752,1.2587208E7,7871529.0,0.0
1586170652801,1.26031E7,7781496.0,0.0
1586170652850,1.2547404E7,7777964.0,0.0
1586170652905,1.2568576E7,7822552.0,0.0
1586170652956,1.2729164E7,7888015.0,0.0
1586170653003,1.269662E7,7774563.0,0.0
1586170653050,1.2673312E7,7679950.0,0.0
1586170653100,1.25714E7,7662069.0,0.0
1586170653150,1.2563876E7,7581181.0,0.0
1586170653193,1.255368E7,7536057.0,0.0
1586170653250,1.2478616E7,7596227.0,0.0
1586170653292,1.2479084E7,7673511.0,0.0
1586170653349,1.2529664E7,7695260.0,0.0
1586170653389,1.2564188E7,7731038.0,0.0
1586170653446,1.2637136E7,7787036.0,0.0
1586170653496,1.266238E7,7709259.0,0.0
1586170653544,1.2613184E7,7677857.0,0.0
1586170653593,1.2343496E7,7656241.0,0.0
1586170653638,1.2378888E7,7791383.0,0.0
1586170653689,1.2499988E7,7880309.0,0.0
1586170653740,1.2405448E7,7936339.0,0.0
1586170653785,1.245184E7,7984342.0,0.0
1586170653831,1.2537076E7,7987395.0,0.0
1586170653889,1.2551612E7,8003283.0,0.0
1586170653934,1.2603056E7,8042942.0,0.0
1586170653985,1.26092E7,8051330.0,0.0
1586170654033,1.247196E7,7926133.0,0.0
1586170654083,1.2292204E7,7798258.0,0.0
1586170654128,1.2173E7,7735951.0,0.0
1586170654178,1.2150828E7,7721615.0,0.0
1586170654229,1.21557E7,7668075.0,0.0
1586170654276,1.2047112E7,7470827.0,0.0
1586170654329,1.1805136E7,7228904.0,0.0
1586170654373,1.149638E7,7027819.0,0.0
1586170654428,1.1256896E7,6903418.0,0.0
1586170654473,1.1065008E7,6792787.0,0.0
1586170654525,1.0887412E7,6709122.0,0.0
1586170654570,1.077468E7,6649707.0,0.0
1586170654621,1.0747856E7,6617709.0,0.0
1586170654668,1.0550472E7,6499168.0,0.0
1586170654713,1.0406932E7,6402348.0,0.0
1586170654771,1.0247944E7,6292908.0,0.0
1586170654813,1.0122304E7,6205087.0,0.0
1586170654860,1.0050224E7,6157053.0,0.0
1586170654918,9974672.0,6093975.0,0.0
1586170654965,9875208.0,6010266.0,0.0
1586170655012,9784140.0,5941605.0,0.0
1586170655064,9692468.0,5879019.0,0.0
1586170655108,9601000.0,5815985.0,0.0
1586170655158,9532592.0,5756990.0,0.0
1586170655203,9493724.0,5724541.0,0.0
1586170655252,9426920.0,5674386.0,0.0
1586170655302,9309916.0,5567592.0,0.0
1586170655356,9188216.0,5501040.0,0.0
1586170655400,9131052.0,5420515.0,0.0
1586170655453,9122124.0,5415528.0,0.0
1586170655505,9085860.0,5397428.0,0.0
1586170655553,9123480.0,5451713.0,0.0
1586170655604,9146144.0,5491881.0,0.0
1586170655652,9179692.0,5583699.0,0.0
1586170655698,9337564.0,5679111.0,0.0
1586170655746,9232072.0,5643102.0,0.0
1586170655797,9589356.0,5913168.0,0.0
1586170655849,9767444.0,5977411.0,0.0
1586170655899,9849720.0,6041464.0,0.0
1586170655947,1.0114916E7,6139099.0,0.0
1586170655995,1.0083304E7,6141729.0,0.0
1586170656045,1.006516E7,6198632.0,0.0
1586170656093,1.017286E7,6341086.0,0.0
1586170656137,1.0294736E7,6422528.0,0.0
1586170656190,1.0395956E7,6527357.0,0.0
1586170656237,1.0540032E7,6565258.0,0.0
1586170656292,1.06114E7,6610745.0,0.0
1586170656332,1.0673508E7,6615659.0,0.0
1586170656381,1.071186E7,6614321.0,0.0
1586170656434,1.0704584E7,6568369.0,0.0
1586170656480,1.0683144E7,6547419.0,0.0
1586170656531,1.0631632E7,6441048.0,0.0
1586170656579,1.050744E7,6273355.0,0.0
1586170656633,1.0390504E7,6158158.0,0.0
1586170656675,1.0338368E7,6148984.0,0.0
1586170656725,1.032192E7,6167666.0,0.0
1586170656773,1.0369044E7,6292965.0,0.0
1586170656831,1.0447136E7,6408207.0,0.0
1586170656877,1.057596E7,6471329.0,0.0
1586170656924,1.0609708E7,6440045.0,0.0
1586170656974,1.062934E7,6401329.0,0.0
1586170657019,1.0687396E7,6314119.0,0.0
1586170657076,1.0649752E7,6197846.0,0.0
1586170657115,1.050076E7,6018552.0,0.0
1586170657169,1.0288148E7,5817874.0,0.0
1586170657216,1.015848E7,5699842.0,0.0
1586170657271,1.0105052E7,5651563.0,0.0
1586170657318,1.0041076E7,5592787.0,0.0
1586170657369,1.0012804E7,5574614.0,0.0
1586170657409,9973248.0,5560863.0,0.0
1586170657466,9938944.0,5548170.0,0.0
1586170657513,9924716.0,5574018.0,0.0
1586170657558,9925832.0,5594399.0,0.0
1586170657615,9919152.0,5607659.0,0.0
1586170657654,9913808.0,5616963.0,0.0
1586170657707,9897492.0,5611088.0,0.0
1586170657759,9818756.0,5536990.0,0.0
1586170657809,9786676.0,5569060.0,0.0
1586170657857,9791176.0,5573321.0,0.0
1586170657908,9823028.0,5617180.0,0.0
1586170657956,9790440.0,5724047.0,0.0
1586170658005,9817464.0,5803088.0,0.0
1586170658050,9709520.0,5787752.0,0.0
1586170658100,9776928.0,5791067.0,0.0
1586170658153,9743068.0,5778622.0,0.0
1586170658194,9769336.0,5848591.0,0.0
1586170658247,9908020.0,6018612.0,0.0
1586170658298,1.014016E7,6216818.0,0.0
1586170658347,1.0424896E7,6365074.0,0.0
1586170658398,1.051572E7,6506817.0,0.0
1586170658447,1.0684928E7,6636943.0,0.0
1586170658498,1.0930888E7,6693872.0,0.0
1586170658537,1.1140004E7,6686095.0,0.0
1586170658594,1.1190804E7,6571640.0,0.0
1586170658637,1.1119748E7,6487698.0,0.0
1586170658691,1.1058664E7,6730945.0,0.0
1586170658739,1.1180032E7,6774817.0,0.0
1586170658790,1.1225908E7,6872265.0,0.0
1586170658837,1.1284656E7,6886308.0,0.0
1586170658888,1.1249664E7,6912723.0,0.0
1586170658937,1.124196E7,6889680.0,0.0
1586170658978,1.123764E7,6856040.0,0.0
1586170659035,1.1192072E7,6707523.0,0.0
1586170659076,1.1121304E7,6635344.0,0.0
1586170659134,1.1046064E7,6571028.0,0.0
1586170659175,1.09066E7,6700734.0,0.0
1586170659230,1.0974964E7,6813126.0,0.0
1586170659278,1.1034264E7,6912433.0,0.0
1586170659328,1.1143212E7,6874010.0,0.0
1586170659378,1.1115052E7,6703744.0,0.0
1586170659427,1.1023136E7,6596542.0,0.0
1586170659471,1.0975964E7,6523768.0,0.0
1586170659518,1.0906088E7,6423107.0,0.0
1586170659574,1.09458E7,6404937.0,0.0
1586170659618,1.0918152E7,6355552.0,0.0
1586170659669,1.0864372E7,6295567.0,0.0
1586170659719,1.0831092E7,6271333.0,0.0
1586170659769,1.0834608E7,6258599.0,0.0
1586170659812,1.0869712E7,6258439.0,0.0
1586170659866,1.0928348E7,6346464.0,0.0
1586170659917,1.0961296E7,6374872.0,0.0
1586170659958,1.0955596E7,6611299.0,0.0
1586170660016,1.094894E7,6721232.0,0.0
1586170660057,1.0949476E7,6860941.0,0.0
1586170660106,1.1093568E7,6937613.0,0.0
1586170660158,1.1093836E7,6988653.0,0.0
1586170660204,1.1160264E7,7015040.0,0.0
1586170660251,1.118034E7,6954200.0,0.0
1586170660309,1.115846E7,6821979.0,0.0
1586170660351,1.1158416E7,6738779.0,0.0
1586170660401,1.1153896E7,6709632.0,0.0
1586170660456,1.110982E7,6864444.0,0.0
1586170660498,1.1160576E7,7049756.0,0.0
1586170660555,1.1186908E7,7129046.0,0.0
1586170660597,1.1373344E7,7241989.0,0.0
1586170660651,1.1431936E7,7145007.0,0.0
1586170660698,1.1421784E7,7004690.0,0.0
1586170660748,1.1444376E7,7061402.0,0.0
1586170660799,1.1481776E7,7177383.0,0.0
1586170660843,1.1562248E7,7229296.0,0.0
1586170660898,1.1636444E7,7268041.0,0.0
1586170660939,1.1743164E7,7242352.0,0.0
1586170660995,1.1777624E7,7110146.0,0.0
1586170661037,1.1818072E7,6990819.0,0.0
1586170661091,1.1777468E7,6895323.0,0.0
1586170661139,1.1698552E7,6838494.0,0.0
1586170661189,1.168328E7,6782610.0,0.0
1586170661241,1.1631592E7,6743285.0,0.0
1586170661287,1.1676292E7,6738664.0,0.0
1586170661339,1.1497048E7,6764875.0,0.0
1586170661384,1.1497336E7,6812065.0,0.0
1586170661436,1.1677516E7,6851651.0,0.0
1586170661478,1.1733324E7,6812849.0,0.0
1586170661535,1.17518E7,6790198.0,0.0
1586170661580,1.1686088E7,6782902.0,0.0
1586170661635,1.1681924E7,6822008.0,0.0
1586170661680,1.166772E7,6991315.0,0.0
1586170661727,1.165492E7,7045120.0,0.0
1586170661779,1.1681636E7,7108547.0,0.0
1586170661820,1.1669924E7,7101771.0,0.0
1586170661871,1.1689492E7,7102832.0,0.0
1586170661919,1.1652272E7,7102774.0,0.0
1586170661971,1.1549448E7,7204785.0,0.0
1586170662019,1.1585156E7,7283377.0,0.0
1586170662069,1.1707056E7,7380213.0,0.0
1586170662124,1.1917312E7,7500251.0,0.0
1586170662169,1.2108752E7,7469359.0,0.0
1586170662213,1.209856E7,7393747.0,0.0
1586170662269,1.204856E7,7343926.0,0.0
1586170662319,1.2028972E7,7284409.0,0.0
1586170662359,1.1996268E7,7255959.0,0.0
1586170662409,1.1962768E7,7198142.0,0.0
1586170662460,1.1920272E7,7150576.0,0.0
1586170662515,1.2003148E7,7101016.0,0.0
1586170662567,1.188116E7,7026424.0,0.0
1586170662613,1.1796012E7,6912564.0,0.0
1586170662663,1.1730364E7,6837185.0,0.0
1586170662709,1.1650492E7,6762650.0,0.0
1586170662760,1.1607928E7,6717583.0,0.0
1586170662804,1.1626292E7,6680599.0,0.0
1586170662851,1.1609288E7,6646073.0,0.0
1586170662898,1.162716E7,6588664.0,0.0
1586170662957,1.1587224E7,6551651.0,0.0
1586170663000,1.1593572E7,6546766.0,0.0
1586170663055,1.1567192E7,6515902.0,0.0
1586170663103,1.14828E7,6441628.0,0.0
1586170663149,1.138002E7,6368214.0,0.0
1586170663201,1.1258432E7,6300264.0,0.0
1586170663245,1.1134104E7,6228432.0,0.0
1586170663299,1.101492E7,6151413.0,0.0
1586170663343,1.0825748E7,6039298.0,0.0
1586170663398,1.0704448E7,5960111.0,0.0
1586170663441,1.0609372E7,5907134.0,0.0
1586170663497,1.0524336E7,5865790.0,0.0
1586170663542,1.048874E7,5834608.0,0.0
1586170663594,1.0422336E7,5818921.0,0.0
1586170663646,1.0396492E7,5855919.0,0.0
1586170663690,1.0414524E7,5936224.0,0.0
1586170663734,1.0491544E7,6078330.0,0.0
1586170663790,1.054762E7,6107567.0,0.0
1586170663839,1.0602228E7,6102841.0,0.0
1586170663880,1.0572308E7,6046479.0,0.0
1586170663928,1.051314E7,5934176.0,0.0
1586170663981,1.0462516E7,5836076.0,0.0
1586170664029,1.0404196E7,5757570.0,0.0
1586170664078,1.0356644E7,5708449.0,0.0
1586170664132,1.031996E7,5671567.0,0.0
1586170664177,1.025262E7,5626600.0,0.0
1586170664225,1.0157076E7,5583323.0,0.0
1586170664280,1.0084528E7,5556790.0,0.0
1586170664322,1.0078984E7,5582160.0,0.0
1586170664376,1.0070104E7,5613824.0,0.0
1586170664425,1.0106812E7,5658425.0,0.0
1586170664476,1.0080144E7,5674226.0,0.0
1586170664524,1.0039004E7,5695976.0,0.0
1586170664574,9989808.0,5682034.0,0.0
1586170664623,9951496.0,5676306.0,0.0
1586170664670,9966680.0,5736390.0,0.0
1586170664715,9825032.0,5596217.0,0.0
1586170664765,9778996.0,5742249.0,0.0
1586170664812,9851656.0,5844942.0,0.0
1586170664861,9856644.0,5839375.0,0.0
1586170664919,9808828.0,5827134.0,0.0
1586170664965,9815528.0,5800006.0,0.0
1586170665015,9774768.0,5725238.0,0.0
1586170665065,9864392.0,5798146.0,0.0
1586170665112,1.0079696E7,5879993.0,0.0
1586170665163,1.0307736E7,5777387.0,0.0
1586170665204,1.0331512E7,5745026.0,0.0
1586170665254,1.0301304E7,5705845.0,0.0
1586170665304,1.0277352E7,5735139.0,0.0
1586170665359,1.0454528E7,5875006.0,0.0
1586170665401,1.057794E7,6045215.0,0.0
1586170665457,1.0717184E7,6126074.0,0.0
1586170665504,1.0822832E7,6245342.0,0.0
1586170665555,1.0906376E7,6322609.0,0.0
1586170665603,1.0968172E7,6389409.0,0.0
1586170665647,1.1074848E7,6389626.0,0.0
1586170665695,1.1139848E7,6334051.0,0.0
1586170665750,1.1116032E7,6241562.0,0.0
1586170665800,1.1069504E7,6103350.0,0.0
1586170665842,1.0985892E7,6005571.0,0.0
1586170665891,1.0839104E7,5911366.0,0.0
1586170665944,1.0756808E7,5877710.0,0.0
1586170665990,1.0684548E7,5882610.0,0.0
1586170666046,1.0681452E7,5932141.0,0.0
1586170666092,1.069512E7,6029586.0,0.0
1586170666135,1.0770432E7,6132383.0,0.0
1586170666186,1.0817176E7,6176491.0,0.0
1586170666240,1.0758632E7,6176838.0,0.0
1586170666282,1.068862E7,6101882.0,0.0
1586170666339,1.0583816E7,6043820.0,0.0
1586170666388,1.0566144E7,6102172.0,0.0
1586170666437,1.06827E7,6141264.0,0.0
1586170666486,1.0568144E7,6102494.0,0.0
1586170666533,1.0610376E7,6179150.0,0.0
1586170666584,1.0619592E7,6221136.0,0.0
1586170666626,1.0559596E7,6205609.0,0.0
1586170666683,1.0703136E7,6373780.0,0.0
1586170666724,1.0659772E7,6408991.0,0.0
1586170666780,1.0656968E7,6392798.0,0.0
1586170666827,1.0672548E7,6272613.0,0.0
1586170666877,1.0676824E7,6278922.0,0.0
1586170666928,1.0663132E7,6208517.0,0.0
1586170666968,1.0607368E7,6137688.0,0.0
1586170667026,1.0500872E7,6104643.0,0.0
1586170667073,1.0358204E7,6117206.0,0.0
1586170667123,1.0411764E7,6169396.0,0.0
1586170667171,1.0534352E7,6194225.0,0.0
1586170667215,1.0490544E7,6099440.0,0.0
1586170667268,1.04779E7,6056293.0,0.0
1586170667320,1.0429952E7,6000540.0,0.0
1586170667367,1.0344624E7,5948946.0,0.0
1586170667412,1.023786E7,5979794.0,0.0
1586170667467,1.0178068E7,6140742.0,0.0
1586170667516,1.023234E7,6251533.0,0.0
1586170667567,1.0253088E7,6298242.0,0.0
1586170667613,1.035188E7,6339939.0,0.0
1586170667666,1.0370136E7,6360670.0,0.0
1586170667706,1.041114E7,6387753.0,0.0
1586170667760,1.0451364E7,6373809.0,0.0
1586170667805,1.0459936E7,6291803.0,0.0
1586170667860,1.0494596E7,6346887.0,0.0
1586170667907,1.0543148E7,6386168.0,0.0
1586170667959,1.0571196E7,6427266.0,0.0
1586170668007,1.0597708E7,6444899.0,0.0
1586170668056,1.0533172E7,6375815.0,0.0
1586170668101,1.0411496E7,6267859.0,0.0
1586170668149,1.0313972E7,6182305.0,0.0
1586170668196,1.0165448E7,6137035.0,0.0
1586170668245,1.0065384E7,6320995.0,0.0
1586170668301,1.0136776E7,6447007.0,0.0
1586170668345,1.0326416E7,6498165.0,0.0
1586170668400,1.0399852E7,6397884.0,0.0
1586170668448,1.0461448E7,6369029.0,0.0
1586170668497,1.0442348E7,6399542.0,0.0
1586170668540,1.042728E7,6474412.0,0.0
1586170668589,1.040838E7,6424416.0,0.0
1586170668647,1.0332024E7,6478380.0,0.0
1586170668688,1.0225084E7,6343251.0,0.0
1586170668743,1.030206E7,6481274.0,0.0
1586170668787,1.0257784E7,6395603.0,0.0
1586170668841,1.0229912E7,6398524.0,0.0
1586170668889,1.0343268E7,6498050.0,0.0
1586170668937,1.0404504E7,6400138.0,0.0
1586170668985,1.0364568E7,6356641.0,0.0
1586170669030,1.0343424E7,6369914.0,0.0
1586170669085,1.0404084E7,6480561.0,0.0
1586170669128,1.0381956E7,6562962.0,0.0
1586170669184,1.0398652E7,6605411.0,0.0
1586170669229,1.036388E7,6597793.0,0.0
1586170669281,1.0431196E7,6556405.0,0.0
1586170669327,1.0424008E7,6507384.0,0.0
1586170669373,1.0398652E7,6504751.0,0.0
1586170669431,1.03627E7,6531617.0,0.0
1586170669476,1.0346004E7,6600599.0,0.0
1586170669526,1.0519284E7,6776359.0,0.0
1586170669568,1.0638936E7,6800783.0,0.0
1586170669624,1.0765688E7,6829074.0,0.0
1586170669667,1.0860052E7,6869545.0,0.0
1586170669723,1.0886344E7,6875812.0,0.0
1586170669769,1.0914968E7,6902504.0,0.0
1586170669814,1.0907624E7,6877353.0,0.0
1586170669869,1.0828752E7,6837854.0,0.0
1586170669913,1.0836836E7,6866058.0,0.0
1586170669969,1.0841488E7,6836532.0,0.0
1586170670013,1.0863972E7,6810872.0,0.0
1586170670066,1.0848768E7,6745816.0,0.0
1586170670108,1.0863616E7,6706142.0,0.0
1586170670164,1.0846696E7,6645927.0,0.0
1586170670208,1.0762484E7,6538435.0,0.0
1586170670255,1.0756628E7,6522953.0,0.0
1586170670309,1.0719832E7,6497569.0,0.0
1586170670359,1.0600336E7,6414704.0,0.0
1586170670403,1.0441148E7,6317709.0,0.0
1586170670455,1.0343576E7,6267015.0,0.0
1586170670507,1.0266576E7,6234728.0,0.0
1586170670549,1.0201956E7,6203415.0,0.0
1586170670605,1.0174396E7,6193018.0,0.0
1586170670652,1.0127312E7,6169090.0,0.0
1586170670701,1.010828E7,6147544.0,0.0
1586170670749,1.0049668E7,6121756.0,0.0
1586170670798,1.001512E7,6108875.0,0.0
1586170670850,9970932.0,6092011.0,0.0
1586170670897,9919084.0,6054475.0,0.0
1586170670949,9858336.0,6027640.0,0.0
1586170670989,9789348.0,5990757.0,0.0
1586170671047,9716868.0,5953729.0,0.0
1586170671089,9680872.0,5936995.0,0.0
1586170671138,9658788.0,5920553.0,0.0
1586170671192,9638020.0,5913853.0,0.0
1586170671243,9561220.0,5860615.0,0.0
1586170671293,9498532.0,5822396.0,0.0
1586170671335,9476160.0,5820969.0,0.0
1586170671391,9446264.0,5813295.0,0.0
1586170671432,9437584.0,5811709.0,0.0
1586170671487,9434688.0,5812524.0,0.0
1586170671530,9353524.0,5763881.0,0.0
1586170671583,9291976.0,5738106.0,0.0
1586170671630,9241444.0,5706485.0,0.0
1586170671675,9226572.0,5694056.0,0.0
1586170671732,9208984.0,5676611.0,0.0
1586170671780,9210388.0,5681598.0,0.0
1586170671830,9190888.0,5668048.0,0.0
1586170671874,9193804.0,5670870.0,0.0
1586170671930,9212636.0,5679156.0,0.0
1586170671971,9219672.0,5688066.0,0.0
1586170672026,9179580.0,5631370.0,0.0
1586170672071,9045812.0,5548810.0,0.0
1586170672125,9000312.0,5530624.0,0.0
1586170672171,8967788.0,5527149.0,0.0
1586170672217,8969592.0,5525869.0,0.0
1586170672275,8956704.0,5518469.0,0.0
1586170672319,8958240.0,5530391.0,0.0
1586170672365,8947956.0,5518978.0,0.0
1586170672416,8907084.0,5477851.0,0.0
1586170672470,8889544.0,5468301.0,0.0
1586170672511,8909420.0,5477517.0,0.0
1586170672568,8908420.0,5465479.0,0.0
1586170672608,8888696.0,5447904.0,0.0
1586170672660,8817772.0,5412302.0,0.0
1586170672713,8794932.0,5400628.0,0.0
1586170672758,8761476.0,5360765.0,0.0
1586170672808,8721920.0,5330802.0,0.0
1586170672860,8687080.0,5316832.0,0.0
1586170672911,8688080.0,5313619.0,0.0
1586170672953,8682072.0,5327474.0,0.0
1586170673007,8689864.0,5332328.0,0.0
1586170673049,8707048.0,5341283.0,0.0
1586170673106,8743288.0,5344091.0,0.0
1586170673153,8735964.0,5328854.0,0.0
1586170673204,8656648.0,5270645.0,0.0
1586170673251,8600508.0,5265324.0,0.0
1586170673301,8588820.0,5253490.0,0.0
1586170673348,8575240.0,5245756.0,0.0
1586170673399,8604916.0,5260760.0,0.0
1586170673450,8658140.0,5269760.0,0.0
1586170673492,8674880.0,5263668.0,0.0
1586170673547,8640800.0,5237979.0,0.0
1586170673590,8609432.0,5217366.0,0.0
1586170673645,8586752.0,5219108.0,0.0
1586170673692,8589200.0,5227862.0,0.0
1586170673744,8572416.0,5221872.0,0.0
1586170673789,8546548.0,5200647.0,0.0
1586170673839,8517340.0,5178563.0,0.0
1586170673892,8551556.0,5185235.0,0.0
1586170673933,8543652.0,5174290.0,0.0
1586170673987,8522840.0,5149473.0,0.0
1586170674029,8528740.0,5146028.0,0.0
1586170674086,8578580.0,5163517.0,0.0
1586170674137,8613172.0,5172414.0,0.0
1586170674184,8620988.0,5171484.0,0.0
1586170674230,8595720.0,5141710.0,0.0
1586170674280,8545256.0,5137828.0,0.0
1586170674329,8510372.0,5095596.0,0.0
1586170674378,8515892.0,5083122.0,0.0
1586170674422,8509348.0,5090494.0,0.0
1586170674474,8477648.0,5093548.0,0.0
1586170674527,8476872.0,5095000.0,0.0
1586170674575,8465028.0,5092819.0,0.0
1586170674624,8486756.0,5122186.0,0.0
1586170674677,8563200.0,5139092.0,0.0
1586170674723,8594988.0,5158893.0,0.0
1586170674773,8665152.0,5181296.0,0.0
1586170674814,8719980.0,5187779.0,0.0
1586170674868,8792908.0,5211258.0,0.0
1586170674918,8885400.0,5242819.0,0.0
1586170674965,8956392.0,5260410.0,0.0
1586170675012,9015448.0,5291013.0,0.0
1586170675067,9058680.0,5316759.0,0.0
1586170675116,9130228.0,5328112.0,0.0
1586170675165,9188128.0,5324536.0,0.0
1586170675214,9251728.0,5340557.0,0.0
1586170675253,9282156.0,5365519.0,0.0
1586170675304,9290440.0,5368949.0,0.0
1586170675351,9295424.0,5376073.0,0.0
1586170675404,9277640.0,5375420.0,0.0
1586170675451,9271560.0,5364806.0,0.0
1586170675507,9269000.0,5358628.0,0.0
1586170675554,9293644.0,5376974.0,0.0
1586170675606,9312564.0,5388240.0,0.0
1586170675657,9333448.0,5408783.0,0.0
1586170675704,9316952.0,5406952.0,0.0
1586170675754,9308604.0,5420267.0,0.0
1586170675802,9306468.0,5421706.0,0.0
1586170675849,9316484.0,5437131.0,0.0
1586170675898,9323876.0,5454228.0,0.0
1586170675950,9313256.0,5441392.0,0.0
1586170675991,9291664.0,5441230.0,0.0
1586170676049,9289168.0,5444574.0,0.0
1586170676097,9295404.0,5441421.0,0.0
1586170676142,9324744.0,5447293.0,0.0
