"1573136234583","2496991.0"
"1573136234585","2497117.0"
"1573136234586","2499197.0"
"1573136234625","2498444.0"
"1573136234669","2498137.0"
"1573136234719","2497796.0"
"1573136234768","2497690.0"
"1573136234818","2498805.0"
"1573136234868","2499842.0"
"1573136234916","2502737.0"
"1573136234968","2504941.0"
"1573136235014","2500770.0"
"1573136235065","2493104.0"
"1573136235114","2488072.0"
"1573136235164","2485390.0"
"1573136235212","2487027.0"
"1573136235263","2486103.0"
"1573136235311","2485849.0"
"1573136235362","2484961.0"
"1573136235410","2484217.0"
"1573136235459","2486517.0"
"1573136235509","2487261.0"
"1573136235558","2489504.0"
"1573136235608","2493635.0"
"1573136235655","2488693.0"
"1573136235708","2479321.0"
"1573136235755","2472423.0"
"1573136235806","2470036.0"
"1573136235854","2470590.0"
"1573136235903","2468465.0"
"1573136235952","2467553.0"
"1573136236003","2465712.0"
"1573136236051","2464902.0"
"1573136236101","2465095.0"
"1573136236149","2467925.0"
"1573136236200","2469526.0"
"1573136236249","2469938.0"
"1573136236298","2465952.0"
"1573136236345","2457853.0"
"1573136236395","2453310.0"
"1573136236446","2451076.0"
"1573136236499","2450515.0"
"1573136236546","2448924.0"
"1573136236598","2447930.0"
"1573136236648","2445917.0"
"1573136236691","2445324.0"
"1573136236746","2449058.0"
"1573136236791","2449980.0"
"1573136236837","2452866.0"
"1573136236893","2454284.0"
"1573136236936","2454534.0"
"1573136237100","2443928.0"
"1573136237100","2436977.0"
"1573136237100","2434692.0"
"1573136237218","2434994.0"
"1573136237218","2434769.0"
"1573136237242","2433286.0"
"1573136237297","2434962.0"
"1573136237332","2438603.0"
"1573136237390","2433857.0"
"1573136237436","2436167.0"
"1573136237487","2438332.0"
"1573136237530","2437721.0"
"1573136237589","2435141.0"
"1573136237632","2424612.0"
"1573136237681","2419547.0"
"1573136237728","2417814.0"
"1573136237777","2418864.0"
"1573136237827","2421205.0"
"1573136237876","2418100.0"
"1573136237926","2415841.0"
"1573136237980","2417452.0"
"1573136238030","2421036.0"
"1573136238071","2425886.0"
"1573136238126","2427359.0"
"1573136238176","2418665.0"
"1573136238223","2412241.0"
"1573136238274","2406855.0"
"1573136238323","2406428.0"
"1573136238369","2406712.0"
"1573136238420","2406749.0"
"1573136238469","2408161.0"
"1573136238520","2408212.0"
"1573136238569","2409644.0"
"1573136238618","2412036.0"
"1573136238669","2416453.0"
"1573136238718","2418446.0"
"1573136238768","2417145.0"
"1573136238810","2410884.0"
"1573136238864","2405814.0"
"1573136238912","2404163.0"
"1573136238958","2403210.0"
"1573136239008","2403622.0"
"1573136239056","2400069.0"
"1573136239110","2400093.0"
"1573136239158","2400609.0"
"1573136239211","2404169.0"
"1573136239255","2407482.0"
"1573136239307","2410609.0"
"1573136239353","2411899.0"
"1573136239407","2412546.0"
"1573136239456","2407489.0"
"1573136239501","2401548.0"
"1573136239550","2399248.0"
"1573136239603","2406269.0"
"1573136239648","2403740.0"
"1573136239698","2399211.0"
"1573136239749","2398029.0"
"1573136239797","2400262.0"
"1573136239848","2402673.0"
"1573136239902","2404148.0"
"1573136239953","2408722.0"
"1573136239995","2409725.0"
"1573136240047","2410548.0"
"1573136240097","2405820.0"
"1573136240146","2400568.0"
"1573136240194","2398961.0"
"1573136240245","2398305.0"
"1573136240291","2399522.0"
"1573136240343","2400369.0"
"1573136240396","2400792.0"
"1573136240442","2402369.0"
"1573136240488","2405575.0"
"1573136240535","2409563.0"
"1573136240596","2412184.0"
"1573136240634","2417655.0"
"1573136240688","2421491.0"
"1573136240731","2416331.0"
"1573136240788","2410975.0"
"1573136240830","2405638.0"
"1573136240889","2405719.0"
"1573136240934","2406310.0"
"1573136240988","2407283.0"
"1573136241036","2407421.0"
"1573136241081","2408590.0"
"1573136241138","2409144.0"
"1573136241292","2412495.0"
"1573136241292","2415010.0"
"1573136241292","2419063.0"
"1573136241356","2422158.0"
"1573136241442","2426565.0"
"1573136241442","2420161.0"
"1573136241471","2413450.0"
"1573136241526","2409736.0"
"1573136241571","2408695.0"
"1573136241625","2410012.0"
"1573136241669","2409860.0"
"1573136241723","2411140.0"
"1573136241771","2413649.0"
"1573136241821","2415209.0"
"1573136241881","2417661.0"
"1573136241919","2421296.0"
"1573136241972","2425819.0"
"1573136242019","2428288.0"
"1573136242065","2431678.0"
"1573136242113","2428533.0"
"1573136242163","2421955.0"
"1573136242213","2420002.0"
"1573136242266","2420705.0"
"1573136242309","2421097.0"
"1573136242364","2423312.0"
"1573136242410","2422424.0"
"1573136242463","2420884.0"
"1573136242512","2422954.0"
"1573136242556","2429803.0"
"1573136242608","2433724.0"
"1573136242654","2437369.0"
"1573136242711","2441081.0"
"1573136242754","2443259.0"
"1573136242809","2435972.0"
"1573136242852","2429220.0"
"1573136242907","2423877.0"
"1573136242951","2425116.0"
"1573136243004","2423974.0"
"1573136243051","2427568.0"
"1573136243191","2428176.0"
"1573136243191","2430378.0"
"1573136243217","2431965.0"
"1573136243332","2434724.0"
"1573136243332","2438808.0"
"1573136243382","2442607.0"
"1573136243401","2445387.0"
"1573136243450","2449548.0"
"1573136243494","2450322.0"
"1573136243548","2444229.0"
"1573136243597","2439450.0"
"1573136243646","2438129.0"
"1573136243697","2440399.0"
"1573136243739","2441016.0"
"1573136243791","2441163.0"
"1573136243844","2440760.0"
"1573136243897","2440730.0"
"1573136243941","2443524.0"
"1573136243989","2444397.0"
"1573136244040","2447711.0"
"1573136244095","2449623.0"
"1573136244139","2451628.0"
"1573136244189","2444814.0"
"1573136244233","2440393.0"
"1573136244286","2441311.0"
"1573136244331","2443473.0"
"1573136244389","2446717.0"
"1573136244434","2447731.0"
"1573136244489","2448144.0"
"1573136244533","2448258.0"
"1573136244580","2449909.0"
"1573136244632","2453071.0"
"1573136244679","2455100.0"
"1573136244724","2457287.0"
"1573136244773","2454595.0"
"1573136244824","2446427.0"
"1573136244872","2438302.0"
"1573136244923","2434667.0"
"1573136244972","2432101.0"
"1573136245024","2429348.0"
"1573136245072","2426132.0"
"1573136245123","2425447.0"
"1573136245173","2425173.0"
"1573136245221","2425299.0"
"1573136245271","2425636.0"
"1573136245320","2426055.0"
"1573136245365","2426233.0"
"1573136245415","2418385.0"
"1573136245469","2410695.0"
"1573136245512","2403872.0"
"1573136245563","2402184.0"
"1573136245615","2402200.0"
"1573136245665","2401099.0"
"1573136245715","2400741.0"
"1573136245763","2400792.0"
"1573136245813","2398386.0"
"1573136245862","2399528.0"
"1573136245906","2398218.0"
"1573136245961","2401639.0"
"1573136246012","2397299.0"
"1573136246055","2389130.0"
"1573136246110","2383047.0"
"1573136246154","2379136.0"
"1573136246206","2377707.0"
"1573136246253","2377927.0"
"1573136246304","2379105.0"
"1573136246353","2377488.0"
"1573136246405","2376230.0"
"1573136246452","2373995.0"
"1573136246500","2375812.0"
"1573136246554","2377784.0"
"1573136246731","2377754.0"
"1573136246732","2372293.0"
"1573136246732","2365297.0"
"1573136246768","2361201.0"
"1573136246843","2360161.0"
"1573136246856","2361947.0"
"1573136247082","2361012.0"
"1573136247082","2359523.0"
"1573136247082","2361293.0"
"1573136247089","2362430.0"
"1573136247120","2365832.0"
"1573136247191","2368733.0"
"1573136247193","2369198.0"
"1573136247243","2365047.0"
"1573136247289","2357172.0"
"1573136247341","2355476.0"
"1573136247386","2356918.0"
"1573136247435","2357438.0"
"1573136247494","2358438.0"
"1573136247535","2357810.0"
"1573136247588","2356500.0"
"1573136247637","2358381.0"
"1573136247694","2358381.0"
"1573136247736","2362481.0"
"1573136247916","2363404.0"
"1573136247916","2358723.0"
"1573136247916","2352619.0"
"1573136247969","2350421.0"
"1573136247984","2352231.0"
"1573136248260","2354017.0"
"1573136248260","2354966.0"
"1573136248260","2356776.0"
"1573136248260","2357536.0"
"1573136248260","2358137.0"
"1573136248314","2360748.0"
"1573136248381","2364257.0"
"1573136248386","2360911.0"
"1573136248422","2352896.0"
"1573136248477","2348485.0"
"1573136248524","2348474.0"
"1573136248570","2350039.0"
"1573136248618","2351524.0"
"1573136248669","2352885.0"
"1573136248717","2353257.0"
"1573136248765","2355466.0"
"1573136248814","2358233.0"
"1573136248871","2362028.0"
"1573136248915","2361532.0"
"1573136248969","2356547.0"
"1573136249020","2350529.0"
"1573136249062","2347698.0"
"1573136249116","2349090.0"
"1573136249160","2350518.0"
"1573136249210","2350774.0"
"1573136249263","2352440.0"
"1573136249309","2352936.0"
"1573136249355","2356642.0"
"1573136249408","2361083.0"
"1573136249456","2364017.0"
"1573136249508","2361053.0"
"1573136249556","2352690.0"
"1573136249606","2349836.0"
"1573136249656","2350417.0"
"1573136249703","2352278.0"
"1573136249750","2354935.0"
"1573136249802","2354685.0"
"1573136249851","2355021.0"
"1573136249901","2358141.0"
"1573136249946","2361539.0"
"1573136250002","2366128.0"
"1573136250053","2371624.0"
"1573136250097","2371445.0"
"1573136250152","2366841.0"
"1573136250199","2363613.0"
"1573136250248","2362691.0"
"1573136250295","2367459.0"
"1573136250343","2371206.0"
"1573136250399","2373231.0"
"1573136250446","2376964.0"
"1573136250496","2379841.0"
"1573136250544","2382169.0"
"1573136250590","2386872.0"
"1573136250642","2389650.0"
"1573136250693","2392185.0"
"1573136250744","2390129.0"
"1573136250788","2386789.0"
"1573136250839","2386005.0"
"1573136250894","2387825.0"
"1573136250938","2392429.0"
"1573136250992","2395459.0"
"1573136251037","2396739.0"
"1573136251084","2401166.0"
"1573136251133","2405575.0"
"1573136251183","2408208.0"
"1573136251232","2415030.0"
"1573136251282","2421006.0"
"1573136251332","2419181.0"
"1573136251377","2417202.0"
"1573136251434","2416162.0"
"1573136251485","2416902.0"
"1573136251531","2421965.0"
"1573136251581","2424657.0"
"1573136251628","2427936.0"
"1573136251677","2430323.0"
"1573136251723","2435096.0"
"1573136251779","2439675.0"
"1573136251821","2444824.0"
"1573136251876","2449379.0"
"1573136251923","2448424.0"
"1573136251975","2446529.0"
"1573136252024","2448404.0"
"1573136252068","2450379.0"
"1573136252124","2455054.0"
"1573136252171","2459261.0"
"1573136252222","2461413.0"
"1573136252271","2465048.0"
"1573136252319","2468577.0"
"1573136252363","2474264.0"
"1573136252412","2478122.0"
"1573136252466","2478031.0"
"1573136252516","2476094.0"
"1573136252563","2474211.0"
"1573136252610","2472647.0"
"1573136252658","2470924.0"
"1573136252713","2480306.0"
"1573136252760","2497592.0"
"1573136252811","2499825.0"
"1573136252860","2492661.0"
"1573136252908","2478122.0"
"1573136252958","2478027.0"
"1573136253008","2473744.0"
"1573136253056","2464926.0"
"1573136253108","2457971.0"
"1573136253156","2456783.0"
"1573136253204","2459680.0"
"1573136253254","2462902.0"
"1573136253300","2467374.0"
"1573136253354","2467256.0"
"1573136253403","2471393.0"
"1573136253447","2478642.0"
"1573136253502","2483096.0"
"1573136253553","2485508.0"
"1573136253600","2485873.0"
"1573136253649","2480050.0"
"1573136253698","2481458.0"
"1573136253747","2477848.0"
"1573136253797","2476405.0"
"1573136253840","2476385.0"
"1573136253900","2472529.0"
"1573136253941","2472860.0"
"1573136253989","2472850.0"
"1573136254040","2472066.0"
"1573136254093","2473606.0"
"1573136254140","2475440.0"
"1573136254192","2472458.0"
"1573136254239","2466395.0"
"1573136254285","2462616.0"
"1573136254338","2464258.0"
"1573136254385","2464514.0"
"1573136254436","2465044.0"
"1573136254483","2469414.0"
"1573136254531","2471525.0"
"1573136254582","2474595.0"
"1573136254627","2474875.0"
"1573136254682","2478352.0"
"1573136254727","2480162.0"
"1573136254779","2476099.0"
"1573136254826","2468087.0"
"1573136254879","2463815.0"
"1573136254924","2461234.0"
"1573136254974","2462136.0"
"1573136255024","2461056.0"
"1573136255071","2462673.0"
"1573136255121","2466098.0"
"1573136255169","2465288.0"
"1573136255223","2464079.0"
"1573136255267","2466236.0"
"1573136255318","2471413.0"
"1573136255368","2471954.0"
"1573136255416","2464416.0"
"1573136255465","2458721.0"
"1573136255515","2459306.0"
"1573136255565","2460822.0"
"1573136255613","2460627.0"
"1573136255664","2459897.0"
"1573136255712","2461271.0"
"1573136255762","2462943.0"
"1573136255811","2462443.0"
"1573136255861","2463565.0"
"1573136255910","2465747.0"
"1573136255958","2467878.0"
"1573136256008","2462978.0"
"1573136256056","2455976.0"
"1573136256108","2449389.0"
"1573136256154","2450639.0"
"1573136256206","2456003.0"
"1573136256254","2459532.0"
"1573136256304","2525659.0"
"1573136256352","2552746.0"
"1573136256401","2563781.0"
"1573136256451","2594840.0"
"1573136256504","2641152.0"
"1573136256548","2707315.0"
"1573136256599","2812509.0"
"1573136256653","2902879.0"
"1573136256696","2782004.0"
"1573136256745","2795962.0"
"1573136256800","2799888.0"
"1573136256849","2817879.0"
"1573136256903","2830086.0"
"1573136256946","2872385.0"
"1573136256998","2901629.0"
"1573136257045","2943989.0"
"1573136257096","2961479.0"
"1573136257146","2958415.0"
"1573136257196","2984094.0"
"1573136257237","3017520.0"
"1573136257295","3046286.0"
"1573136257341","3071154.0"
"1573136257393","3109341.0"
"1573136257439","3127643.0"
"1573136257492","3138480.0"
"1573136257538","3155996.0"
"1573136257585","3176094.0"
"1573136257637","3193815.0"
"1573136257685","3204071.0"
"1573136257731","3207972.0"
"1573136257785","3207440.0"
"1573136257835","3219069.0"
"1573136257885","3241756.0"
"1573136257934","3255921.0"
"1573136257986","3253000.0"
"1573136258034","3251874.0"
"1573136258081","3250950.0"
"1573136258131","3247000.0"
"1573136258181","3234171.0"
"1573136258232","3244509.0"
"1573136258280","3257124.0"
"1573136258323","3263941.0"
"1573136258370","3276611.0"
"1573136258428","3275704.0"
"1573136258477","3280361.0"
"1573136258525","3298813.0"
"1573136258570","3317434.0"
"1573136258617","3327656.0"
"1573136258674","3332713.0"
"1573136258723","3338168.0"
"1573136258771","3339686.0"
"1573136258820","3332851.0"
"1573136258873","3339341.0"
"1573136258920","3339335.0"
"1573136258967","3335978.0"
"1573136259019","3321965.0"
"1573136259065","3302351.0"
"1573136259116","3296060.0"
"1573136259165","3309379.0"
"1573136259215","3309064.0"
"1573136259263","3330771.0"
"1573136259313","3345243.0"
"1573136259362","3374764.0"
"1573136259409","3399694.0"
"1573136259457","3426293.0"
"1573136259506","3456247.0"
"1573136259554","3477737.0"
"1573136259609","3491689.0"
"1573136259657","3498221.0"
"1573136259707","3503284.0"
"1573136259756","3511925.0"
"1573136259807","3521779.0"
"1573136259855","3525304.0"
"1573136259908","3529368.0"
"1573136259947","3535392.0"
"1573136260003","3539547.0"
"1573136260048","3541573.0"
"1573136260101","3545167.0"
"1573136260154","3547052.0"
"1573136260200","3554159.0"
"1573136260245","3548704.0"
"1573136260291","3545445.0"
"1573136260344","3545232.0"
"1573136260393","3548802.0"
"1573136260441","3552302.0"
"1573136260492","3554866.0"
"1573136260543","3589329.0"
"1573136260591","3586497.0"
"1573136260641","3587433.0"
"1573136260691","3591564.0"
"1573136260735","3599813.0"
"1573136260792","3630953.0"
"1573136260839","3615075.0"
"1573136260891","3593512.0"
"1573136260938","3577892.0"
"1573136260993","3583116.0"
"1573136261031","3572187.0"
"1573136261088","3511576.0"
"1573136261128","3416795.0"
"1573136261183","3418489.0"
"1573136261227","3377598.0"
"1573136261289","3346458.0"
"1573136261331","3311156.0"
"1573136261381","3289043.0"
"1573136261430","3272399.0"
"1573136261480","3240738.0"
"1573136261528","3218767.0"
"1573136261573","3189833.0"
"1573136261627","3145778.0"
"1573136261671","3107571.0"
"1573136261725","3063606.0"
"1573136261776","3027094.0"
"1573136261823","2992891.0"
"1573136261868","2950434.0"
"1573136261918","2918365.0"
"1573136261968","2893502.0"
"1573136262020","2867116.0"
"1573136262070","2852077.0"
"1573136262114","2840315.0"
"1573136262169","2828873.0"
"1573136262217","2816077.0"
"1573136262266","2809790.0"
"1573136262310","2788482.0"
"1573136262364","2769875.0"
"1573136262412","2749279.0"
"1573136262464","2742093.0"
"1573136262515","2727901.0"
"1573136262563","2718969.0"
"1573136262612","2705424.0"
"1573136262655","2696962.0"
"1573136262711","2686268.0"
"1573136262757","2685838.0"
"1573136262809","2683587.0"
"1573136262856","2671355.0"
"1573136262903","2655618.0"
"1573136262949","2637844.0"
"1573136263002","2621409.0"
"1573136263050","2608904.0"
"1573136263098","2614454.0"
"1573136263151","2618445.0"
"1573136263197","2617344.0"
"1573136263252","2604290.0"
"1573136263295","2600634.0"
"1573136263347","2611468.0"
"1573136263395","2631610.0"
"1573136263444","2653604.0"
"1573136263494","2635058.0"
"1573136263543","2601146.0"
"1573136263590","2626490.0"
"1573136263657","2660382.0"
"1573136263698","2693536.0"
"1573136263736","2772707.0"
"1573136263789","2832804.0"
"1573136263834","2749539.0"
"1573136263890","2700038.0"
"1573136263933","2688735.0"
"1573136263984","2745770.0"
"1573136264031","2790761.0"
"1573136264082","2786066.0"
"1573136264130","2777766.0"
"1573136264180","2704028.0"
"1573136264231","2675902.0"
"1573136264281","2651324.0"
"1573136264328","2645774.0"
"1573136264380","2651146.0"
"1573136264431","2655150.0"
"1573136264478","2645254.0"
"1573136264533","2644673.0"
"1573136264575","2641812.0"
"1573136264627","2637994.0"
"1573136264675","2635310.0"
"1573136264728","2625659.0"
"1573136264775","2667060.0"
"1573136264826","2692733.0"
"1573136264870","2764094.0"
"1573136264926","2986991.0"
"1573136264969","3174586.0"
"1573136265024","3219027.0"
"1573136265070","3377028.0"
"1573136265121","3412841.0"
"1573136265170","3422500.0"
"1573136265220","3374908.0"
"1573136265270","3350560.0"
"1573136265319","3320362.0"
"1573136265367","3351690.0"
"1573136265417","3358421.0"
"1573136265466","3398070.0"
"1573136265511","3393076.0"
"1573136265563","3366402.0"
"1573136265614","3366223.0"
"1573136265663","3358807.0"
"1573136265711","3369701.0"
"1573136265760","3376262.0"
"1573136265810","3369760.0"
"1573136265855","3384242.0"
"1573136265911","3402469.0"
"1573136265959","3434790.0"
"1573136266007","3462505.0"
"1573136266056","3482991.0"
"1573136266105","3477701.0"
"1573136266153","3475986.0"
"1573136266203","3453509.0"
"1573136266251","3445609.0"
"1573136266302","3447942.0"
"1573136266354","3436999.0"
"1573136266400","3407038.0"
"1573136266451","3435802.0"
"1573136266499","3460486.0"
"1573136266550","3477745.0"
"1573136266598","3484210.0"
"1573136266648","3452818.0"
"1573136266697","3455788.0"
"1573136266746","3422047.0"
"1573136266793","3306766.0"
"1573136266845","3185747.0"
"1573136266894","3126958.0"
"1573136266944","3096531.0"
"1573136266994","3087821.0"
"1573136267042","3083416.0"
"1573136267087","3082999.0"
"1573136267141","3079001.0"
"1573136267190","3072381.0"
"1573136267239","3061890.0"
"1573136267289","3057223.0"
"1573136267338","3056702.0"
"1573136267388","3057854.0"
"1573136267434","3055463.0"
"1573136267481","3053464.0"
"1573136267536","3049585.0"
"1573136267580","3045321.0"
"1573136267634","3033014.0"
"1573136267675","3023957.0"
"1573136267732","3038201.0"
"1573136267775","3286332.0"
"1573136267830","3606647.0"
"1573136267874","3750708.0"
"1573136267932","3607190.0"
"1573136267972","3759156.0"
"1573136268028","3722481.0"
"1573136268071","3680321.0"
"1573136268126","3534262.0"
"1573136268171","3541788.0"
"1573136268217","3485251.0"
"1573136268270","3543795.0"
"1573136268317","3532115.0"
"1573136268368","3524624.0"
"1573136268415","3540614.0"
"1573136268470","3482032.0"
"1573136268515","3470687.0"
"1573136268566","3425710.0"
"1573136268613","3407307.0"
"1573136268660","3486210.0"
"1573136268713","3534039.0"
"1573136268765","3654477.0"
"1573136268808","3700463.0"
"1573136268857","3785602.0"
"1573136268906","3842592.0"
"1573136268962","3855939.0"
"1573136269012","3809958.0"
"1573136269055","3847489.0"
"1573136269109","3791591.0"
"1573136269158","3798605.0"
"1573136269201","3798115.0"
"1573136269254","3802246.0"
"1573136269306","3810671.0"
"1573136269353","3810702.0"
"1573136269405","3800403.0"
"1573136269454","3803814.0"
"1573136269503","3797855.0"
"1573136269553","3787028.0"
"1573136269597","3789718.0"
"1573136269652","3784153.0"
"1573136269693","3782623.0"
"1573136269750","3775540.0"
"1573136269792","3774441.0"
"1573136269845","3773066.0"
"1573136269892","3775303.0"
"1573136269942","3774025.0"
"1573136269991","3774880.0"
"1573136270044","3777369.0"
"1573136270090","3780786.0"
"1573136270138","3783432.0"
"1573136270193","3783121.0"
"1573136270235","3775845.0"
"1573136270291","3776373.0"
"1573136270335","3778373.0"
"1573136270393","3782251.0"
"1573136270436","3777875.0"
"1573136270484","3774738.0"
"1573136270535","3771306.0"
"1573136270581","3768586.0"
"1573136270632","3759609.0"
"1573136270683","3752439.0"
"1573136270729","3747707.0"
"1573136270782","3745552.0"
"1573136270832","3740359.0"
"1573136270881","3749757.0"
"1573136270932","3742825.0"
"1573136270974","3725320.0"
"1573136271030","3700315.0"
"1573136271074","3669873.0"
"1573136271127","3631012.0"
"1573136271176","3612021.0"
"1573136271226","3595688.0"
"1573136271275","3579349.0"
"1573136271324","3572892.0"
"1573136271372","3565543.0"
"1573136271422","3560758.0"
"1573136271472","3562089.0"
"1573136271515","3564674.0"
"1573136271567","3568107.0"
"1573136271616","3564080.0"
"1573136271668","3553074.0"
"1573136271717","3539470.0"
"1573136271767","3525501.0"
"1573136271815","3534573.0"
"1573136271864","3526251.0"
"1573136271915","3524120.0"
"1573136271963","3533846.0"
"1573136272013","3540124.0"
"1573136272060","3537493.0"
"1573136272110","3528399.0"
"1573136272156","3522744.0"
"1573136272211","3522990.0"
"1573136272256","3522775.0"
"1573136272307","3514571.0"
"1573136272356","3500743.0"
"1573136272406","3495214.0"
"1573136272455","3482642.0"
"1573136272504","3481148.0"
"1573136272554","3471920.0"
"1573136272601","3468466.0"
"1573136272653","3474736.0"
"1573136272698","3480748.0"
"1573136272751","3478534.0"
"1573136272797","3482049.0"
"1573136272849","3485273.0"
"1573136272898","3493193.0"
"1573136272947","3485220.0"
"1573136272996","3477158.0"
"1573136273045","3469163.0"
"1573136273090","3468257.0"
"1573136273143","3472128.0"
"1573136273194","3476677.0"
"1573136273236","3473095.0"
"1573136273291","3472952.0"
"1573136273342","3472633.0"
"1573136273389","3473682.0"
"1573136273438","3477323.0"
"1573136273488","3483103.0"
"1573136273536","3483355.0"
"1573136273586","3484180.0"
"1573136273635","3479753.0"
"1573136273679","3471045.0"
"1573136273735","3469893.0"
"1573136273779","3468576.0"
"1573136273833","3471148.0"
"1573136273877","3472560.0"
"1573136273933","3472128.0"
"1573136273980","3473763.0"
"1573136274031","3473800.0"
"1573136274074","3475072.0"
"1573136274129","3477701.0"
"1573136274177","3492762.0"
"1573136274226","3491299.0"
"1573136274275","3489062.0"
"1573136274325","3484856.0"
"1573136274373","3477329.0"
"1573136274417","3478489.0"
"1573136274472","3748985.0"
"1573136274521","3592842.0"
"1573136274567","3460226.0"
"1573136274615","3466890.0"
"1573136274669","3373907.0"
"1573136274717","3229958.0"
"1573136274768","3181815.0"
"1573136274816","2948063.0"
"1573136274859","2905094.0"
"1573136274913","2921693.0"
"1573136274961","2851112.0"
"1573136275011","2781787.0"
"1573136275058","2736572.0"
"1573136275110","2707571.0"
"1573136275159","2736796.0"
"1573136275210","2734618.0"
"1573136275259","2737145.0"
"1573136275310","2720241.0"
"1573136275358","2756746.0"
"1573136275408","2740585.0"
"1573136275457","2793490.0"
"1573136275506","2886020.0"
"1573136275557","2900851.0"
"1573136275605","2980297.0"
"1573136275655","3159785.0"
"1573136275700","3213387.0"
"1573136275752","3258313.0"
"1573136275800","3366765.0"
"1573136275852","3395649.0"
"1573136275900","3433291.0"
"1573136275950","3455217.0"
"1573136275998","3520731.0"
"1573136276048","3491031.0"
"1573136276092","3538765.0"
"1573136276143","3592427.0"
"1573136276196","3605126.0"
"1573136276243","3618003.0"
"1573136276292","3622905.0"
"1573136276341","3614829.0"
"1573136276391","3619555.0"
"1573136276445","3682899.0"
"1573136276493","3706884.0"
"1573136276543","3725913.0"
"1573136276591","3729280.0"
"1573136276640","3744371.0"
"1573136276690","3755836.0"
"1573136276734","3757403.0"
"1573136276789","3766357.0"
"1573136276837","3773549.0"
"1573136276887","3771402.0"
"1573136276938","3772517.0"
"1573136276980","3767671.0"
"1573136277036","3781485.0"
"1573136277081","3786248.0"
"1573136277132","3790699.0"
"1573136277181","3804416.0"
"1573136277230","3812693.0"
"1573136277279","3804600.0"
"1573136277331","3823118.0"
"1573136277378","3831879.0"
"1573136277431","3826588.0"
"1573136277476","3823437.0"
"1573136277526","3821862.0"
"1573136277571","3826490.0"
"1573136277620","3833207.0"
"1573136277674","3841202.0"
"1573136277723","3830050.0"
"1573136277768","3837712.0"
"1573136277820","3847007.0"
"1573136277871","3855024.0"
"1573136277920","3866266.0"
"1573136277969","3872099.0"
"1573136278017","3876699.0"
"1573136278064","3869216.0"
"1573136278112","3869960.0"
"1573136278163","3866341.0"
"1573136278214","3864862.0"
"1573136278262","3866036.0"
"1573136278313","3871520.0"
"1573136278362","3868472.0"
"1573136278412","3874789.0"
"1573136278460","3873332.0"
"1573136278505","3888044.0"
"1573136278557","3891953.0"
"1573136278604","3907557.0"
"1573136278656","3928561.0"
"1573136278701","3923880.0"
"1573136278755","3927901.0"
"1573136278803","3929232.0"
"1573136278853","3927426.0"
"1573136278904","3939590.0"
"1573136278948","3944962.0"
"1573136279002","3947316.0"
"1573136279047","3953410.0"
"1573136279093","3956605.0"
"1573136279151","3960096.0"
"1573136279197","3967898.0"
"1573136279247","3974349.0"
"1573136279296","3990814.0"
"1573136279347","3990666.0"
"1573136279390","3985903.0"
"1573136279446","3986773.0"
"1573136279494","3978502.0"
"1573136279544","3979698.0"
"1573136279593","3974830.0"
"1573136279642","3985034.0"
"1573136279688","3981891.0"
"1573136279735","3985101.0"
"1573136279789","3988979.0"
"1573136279838","3993437.0"
"1573136279882","4000971.0"
"1573136279938","4002866.0"
"1573136279987","4009790.0"
"1573136280032","4015014.0"
"1573136280079","4013305.0"
"1573136280132","4003177.0"
"1573136280184","3998356.0"
"1573136280234","3996046.0"
"1573136280281","3997738.0"
"1573136280332","4000050.0"
"1573136280379","4001647.0"
"1573136280432","4002145.0"
"1573136280478","4006574.0"
"1573136280523","4008899.0"
"1573136280572","4013277.0"
"1573136280625","4022052.0"
"1573136280675","4024287.0"
"1573136280725","4036675.0"
"1573136280774","4041957.0"
"1573136280823","4042187.0"
"1573136280874","4033434.0"
"1573136280917","4025478.0"
"1573136280967","4022290.0"
"1573136281015","4026554.0"
"1573136281067","4026368.0"
"1573136281113","4028984.0"
"1573136281165","4032268.0"
"1573136281216","4033026.0"
"1573136281259","4036853.0"
"1573136281309","4042729.0"
"1573136281491","4048140.0"
"1573136281491","4054633.0"
"1573136281491","4061596.0"
"1573136281541","4067161.0"
"1573136281571","4069733.0"
"1573136281629","4060162.0"
"1573136281660","4054040.0"
"1573136281703","4050799.0"
"1573136281758","4053109.0"
"1573136281809","4060310.0"
"1573136281855","4061990.0"
"1573136281905","4061039.0"
"1573136281955","4062295.0"
"1573136282003","4065214.0"
"1573136282049","4072496.0"
"1573136282097","4076716.0"
"1573136282151","4082854.0"
"1573136282199","4091079.0"
"1573136282246","4097462.0"
"1573136282298","4096601.0"
"1573136282345","4087373.0"
"1573136282397","4079362.0"
"1573136282447","4081168.0"
"1573136282495","4086154.0"
"1573136282545","4087194.0"
"1573136282594","4089476.0"
"1573136282637","4088992.0"
"1573136282694","4093279.0"
"1573136282736","4097619.0"
"1573136282791","4102359.0"
"1573136282839","4107292.0"
"1573136282888","4115779.0"
"1573136282940","4121313.0"
"1573136282986","4127809.0"
"1573136283037","4119864.0"
"1573136283086","4111542.0"
"1573136283134","4105770.0"
"1573136283184","4103302.0"
"1573136283234","4105561.0"
"1573136283282","4108785.0"
"1573136283331","4108229.0"
"1573136283382","4107182.0"
"1573136283430","4110451.0"
"1573136283479","4112977.0"
"1573136283527","4119293.0"
"1573136283574","4126908.0"
"1573136283629","4129934.0"
"1573136283677","4140426.0"
"1573136283725","4137207.0"
"1573136283775","4128700.0"
"1573136283824","4117339.0"
"1573136283872","4118729.0"
"1573136283924","4114753.0"
"1573136283971","4117711.0"
"1573136284020","4117294.0"
"1573136284070","4117569.0"
"1573136284119","4114092.0"
"1573136284168","4118038.0"
"1573136284219","4122867.0"
"1573136284266","4125356.0"
"1573136284315","4132473.0"
"1573136284367","4140990.0"
"1573136284414","4144274.0"
"1573136284465","4143723.0"
"1573136284509","4130809.0"
"1573136284563","4125868.0"
"1573136284610","4119954.0"
"1573136284661","4117971.0"
"1573136284711","4119033.0"
"1573136284761","4120110.0"
"1573136284809","4118928.0"
"1573136284858","4120222.0"
"1573136284907","4119747.0"
"1573136284953","4122666.0"
"1573136285001","4128485.0"
"1573136285048","4135893.0"
"1573136285099","4135617.0"
"1573136285148","4133209.0"
"1573136285203","4122882.0"
"1573136285251","4116224.0"
"1573136285296","4116173.0"
"1573136285349","4118885.0"
"1573136285487","4119665.0"
"1573136285487","4118483.0"
"1573136285510","4121240.0"
"1573136285616","4121984.0"
"1573136285616","4121469.0"
"1573136285667","4126931.0"
"1573136285689","4133061.0"
"1573136285741","4136606.0"
"1573136285793","4140202.0"
"1573136285837","4127920.0"
"1573136285893","4117294.0"
"1573136285933","4110362.0"
"1573136285990","4107375.0"
"1573136286037","4106148.0"
"1573136286174","4105018.0"
"1573136286174","4105614.0"
"1573136286192","4104655.0"
"1573136286300","4102700.0"
"1573136286300","4106928.0"
"1573136286327","4108066.0"
"1573136286382","4114946.0"
"1573136286430","4117932.0"
"1573136286480","4120488.0"
"1573136286530","4107672.0"
"1573136286574","4095471.0"
"1573136286630","4088397.0"
"1573136286678","4082490.0"
"1573136286726","4081280.0"
"1573136286775","4082356.0"
"1573136286825","4076123.0"
"1573136286870","4075863.0"
"1573136286998","4080818.0"
"1573136286998","4078419.0"
"1573136287063","4084213.0"
"1573136287073","4085016.0"
"1573136287179","4089988.0"
"1573136287179","4097737.0"
"1573136287231","4093598.0"
"1573136287268","4083218.0"
"1573136287317","4071196.0"
"1573136287367","4066344.0"
"1573136287409","4063951.0"
"1573136287464","4064552.0"
"1573136287510","4063699.0"
"1573136287563","4057858.0"
"1573136287614","4058036.0"
"1573136287661","4059946.0"
"1573136287711","4064233.0"
"1573136287759","4066753.0"
"1573136287809","4070513.0"
"1573136287858","4077905.0"
"1573136287911","4078657.0"
"1573136287951","4068931.0"
"1573136288007","4059806.0"
"1573136288051","4055970.0"
"1573136288098","4055279.0"
"1573136288153","4054656.0"
"1573136288203","4056216.0"
"1573136288252","4057278.0"
"1573136288300","4058788.0"
"1573136288350","4062480.0"
"1573136288399","4065601.0"
"1573136288450","4072586.0"
"1573136288496","4078559.0"
"1573136288548","4086680.0"
"1573136288592","4096050.0"
"1573136288646","4099275.0"
"1573136288692","4089742.0"
"1573136288739","4081540.0"
"1573136288794","4076948.0"
"1573136288842","4076732.0"
"1573136288891","4077949.0"
"1573136288942","4081850.0"
"1573136288990","4081501.0"
"1573136289037","4077683.0"
"1573136289088","4061171.0"
"1573136289133","4047611.0"
"1573136289185","4050769.0"
"1573136289232","4049907.0"
"1573136289284","4048229.0"
"1573136289332","4060741.0"
"1573136289382","4068811.0"
"1573136289432","4074666.0"
"1573136289481","4068565.0"
"1573136289529","4079786.0"
"1573136289574","4117851.0"
"1573136289629","4175266.0"
"1573136289674","4222494.0"
"1573136289728","4228719.0"
"1573136289774","4233506.0"
"1573136289825","4235058.0"
"1573136289875","4233654.0"
"1573136289923","4218859.0"
"1573136289974","4225666.0"
"1573136290022","4224664.0"
"1573136290068","4211683.0"
"1573136290120","4193202.0"
"1573136290169","4189340.0"
"1573136290213","4165101.0"
"1573136290268","4156363.0"
"1573136290315","4155954.0"
"1573136290366","4154573.0"
"1573136290416","4172718.0"
"1573136290465","4164656.0"
"1573136290514","4173557.0"
"1573136290563","4187355.0"
"1573136290613","4242824.0"
"1573136290661","4291833.0"
"1573136290711","4329990.0"
"1573136290753","4364830.0"
"1573136290809","4391312.0"
"1573136290854","4407361.0"
"1573136290908","4499425.0"
"1573136290955","4525421.0"
"1573136291006","4541931.0"
"1573136291055","4556379.0"
"1573136291098","4572897.0"
"1573136291154","4578224.0"
"1573136291203","4580998.0"
"1573136291253","4558094.0"
"1573136291301","4553006.0"
"1573136291353","4564941.0"
"1573136291397","4613140.0"
"1573136291450","4655425.0"
"1573136291497","4667993.0"
"1573136291547","4659151.0"
"1573136291596","4649173.0"
"1573136291644","4648990.0"
"1573136291694","4629205.0"
"1573136291741","4641237.0"
"1573136291793","4675642.0"
"1573136291837","4687065.0"
"1573136291891","4697998.0"
"1573136291934","4698374.0"
"1573136291990","4713658.0"
"1573136292036","4707504.0"
"1573136292089","4725227.0"
"1573136292135","4734021.0"
"1573136292185","4731093.0"
"1573136292235","4725910.0"
"1573136292284","4712301.0"
"1573136292334","4658486.0"
"1573136292383","4635899.0"
"1573136292432","4652420.0"
"1573136292481","4636893.0"
"1573136292532","4661030.0"
"1573136292575","4646706.0"
"1573136292631","4653576.0"
"1573136292676","4694009.0"
"1573136292726","4741091.0"
"1573136292775","4735908.0"
"1573136292825","4636363.0"
"1573136292874","4552169.0"
"1573136292919","4498220.0"
"1573136292973","4453172.0"
"1573136293018","4421367.0"
"1573136293068","4379958.0"
"1573136293121","4338021.0"
"1573136293170","4296951.0"
"1573136293219","4244697.0"
"1573136293271","4210389.0"
"1573136293319","4176570.0"
"1573136293367","4133371.0"
"1573136293416","4085250.0"
"1573136293461","4017141.0"
"1573136293515","3968692.0"
"1573136293563","3925290.0"
"1573136293613","3878018.0"
"1573136293658","3847619.0"
"1573136293712","3815757.0"
"1573136293756","3785077.0"
"1573136293811","3750826.0"
"1573136293856","3719031.0"
"1573136293908","3697137.0"
"1573136293958","3672452.0"
"1573136294007","3646291.0"
"1573136294051","3598161.0"
"1573136294099","3556463.0"
"1573136294149","3520969.0"
"1573136294198","3488566.0"
"1573136294385","3462282.0"
"1573136294385","3435091.0"
"1573136294385","3412610.0"
"1573136294411","3386122.0"
"1573136294537","3363082.0"
"1573136294537","3343327.0"
"1573136294561","3325468.0"
"1573136294599","3311975.0"
"1573136294645","3285516.0"
"1573136294695","3247297.0"
"1573136294744","3212871.0"
"1573136294793","3187490.0"
"1573136294839","3164133.0"
"1573136294891","3145918.0"
"1573136294939","3126877.0"
"1573136294990","3106360.0"
"1573136295039","3088705.0"
"1573136295088","3077223.0"
"1573136295136","3043608.0"
"1573136295186","3008184.0"
"1573136295235","2987670.0"
"1573136295457","2982889.0"
"1573136295457","2968624.0"
"1573136295457","2945485.0"
"1573136295457","2929086.0"
"1573136295490","2914393.0"
"1573136295590","2903470.0"
"1573136295590","2891422.0"
"1573136295630","2882588.0"
"1573136295678","2874114.0"
"1573136295727","2864270.0"
"1573136295777","2861761.0"
"1573136295826","2858150.0"
"1573136295875","2848312.0"
"1573136295925","2845255.0"
"1573136295973","2848512.0"
"1573136296021","2838607.0"
"1573136296069","2823155.0"
"1573136296118","2812288.0"
"1573136296167","2807850.0"
"1573136296219","2803285.0"
"1573136296270","2801387.0"
"1573136296318","2799246.0"
"1573136296499","2797013.0"
"1573136296499","2797647.0"
"1573136296499","2801487.0"
"1573136296525","2805601.0"
"1573136296649","2811087.0"
"1573136296652","2815248.0"
"1573136296674","2819384.0"
"1573136296718","2815461.0"
"1573136296758","2799008.0"
"1573136296810","2791864.0"
"1573136296859","2786870.0"
"1573136296909","2786663.0"
"1573136296958","2787634.0"
"1573136297007","2787297.0"
"1573136297056","2790611.0"
"1573136297100","2791358.0"
"1573136297149","2795268.0"
"1573136297204","2802068.0"
"1573136297253","2808868.0"
"1573136297299","2814581.0"
"1573136297351","2824096.0"
"1573136297401","2828976.0"
"1573136297449","2822184.0"
"1573136297498","2816233.0"
"1573136297548","2812058.0"
"1573136297597","2816778.0"
"1573136297641","2822009.0"
"1573136297695","2826284.0"
"1573136297740","2827012.0"
"1573136297794","2835195.0"
"1573136297839","2839539.0"
"1573136297890","2848788.0"
"1573136297943","2856842.0"
"1573136297990","2863825.0"
"1573136298039","2874189.0"
"1573136298090","2884685.0"
"1573136298137","2888655.0"
"1573136298188","2888578.0"
"1573136298236","2886359.0"
"1573136298281","2885747.0"
"1573136298334","2887415.0"
"1573136298379","2892058.0"
"1573136298433","2893098.0"
"1573136298480","2896570.0"
"1573136298531","2909535.0"
"1573136298577","2918308.0"
"1573136298630","2927831.0"
"1573136298678","2935182.0"
"1573136298723","2941921.0"
"1573136298776","2948721.0"
"1573136298826","2956791.0"
"1573136298875","2953953.0"
"1573136298918","2950794.0"
"1573136298973","2949646.0"
"1573136299020","2953027.0"
"1573136299068","2957824.0"
"1573136299120","2962488.0"
"1573136299171","2967468.0"
"1573136299219","2972946.0"
"1573136299269","2978360.0"
"1573136299317","2985031.0"
"1573136299363","2991303.0"
"1573136299415","2998562.0"
"1573136299461","3005017.0"
"1573136299514","3012681.0"
"1573136299560","3009615.0"
"1573136299613","3006715.0"
"1573136299661","3009529.0"
"1573136299711","3010340.0"
"1573136299778","3015870.0"
"1573136299811","3018593.0"
"1573136299858","3021783.0"
"1573136299903","3026113.0"
"1573136299958","3029150.0"
"1573136300000","3032423.0"
"1573136300051","3038297.0"
"1573136300101","3044599.0"
"1573136300149","3050199.0"
"1573136300199","3055882.0"
"1573136300253","3057871.0"
"1573136300302","3054368.0"
"1573136300350","3054299.0"
"1573136300399","3053633.0"
"1573136300450","3055041.0"
"1573136300497","3057627.0"
"1573136300547","3061711.0"
"1573136300595","3061481.0"
"1573136300642","3062101.0"
"1573136300694","3065252.0"
"1573136300741","3068686.0"
"1573136300794","3073040.0"
"1573136300842","3077185.0"
"1573136300891","3081002.0"
"1573136300939","3082699.0"
"1573136300986","3077268.0"
"1573136301037","3072113.0"
"1573136301089","3070431.0"
"1573136301136","3070080.0"
"1573136301182","3073643.0"
"1573136301235","3073950.0"
"1573136301285","3073062.0"
"1573136301333","3071577.0"
"1573136301382","3072221.0"
"1573136301432","3076175.0"
"1573136301481","3079832.0"
"1573136301526","3082339.0"
"1573136301575","3086524.0"
"1573136301630","3088444.0"
"1573136301677","3081392.0"
"1573136301721","3070116.0"
"1573136301776","3066491.0"
"1573136301823","3065008.0"
"1573136301874","3062790.0"
"1573136301923","3062767.0"
"1573136301973","3061052.0"
"1573136302021","3058001.0"
"1573136302068","3056203.0"
"1573136302114","3057076.0"
"1573136302171","3059943.0"
"1573136302218","3058911.0"
"1573136302263","3062674.0"
"1573136302316","3064519.0"
"1573136302364","3055790.0"
"1573136302414","3045388.0"
"1573136302465","3039299.0"
"1573136302513","3035070.0"
"1573136302563","3033218.0"
"1573136302608","3033134.0"
"1573136302661","3027933.0"
"1573136302711","3023053.0"
"1573136302758","3023329.0"
"1573136302803","3020858.0"
"1573136302856","3019030.0"
"1573136302904","3016246.0"
"1573136302957","3012866.0"
"1573136303006","3012597.0"
"1573136303109","3000076.0"
"1573136303109","2987073.0"
"1573136303268","2983072.0"
"1573136303269","2980762.0"
"1573136303269","2979921.0"
"1573136303345","2982139.0"
"1573136303351","2981434.0"
"1573136303398","2977917.0"
"1573136303445","2975378.0"
"1573136303496","2978537.0"
"1573136303546","2982383.0"
"1573136303595","2981910.0"
"1573136303643","2984815.0"
"1573136303689","2981443.0"
"1573136303736","2972265.0"
"1573136303791","2963208.0"
"1573136303840","2958205.0"
"1573136303887","2959744.0"
"1573136303938","2957409.0"
"1573136303986","2956753.0"
"1573136304038","2950932.0"
"1573136304192","2949065.0"
"1573136304192","2949822.0"
"1573136304192","2951673.0"
"1573136304270","2954764.0"
"1573136304377","2957602.0"
"1573136304377","2953884.0"
"1573136304393","2945769.0"
"1573136304439","2938471.0"
"1573136304479","2935281.0"
"1573136304526","2934387.0"
"1573136304573","2934532.0"
"1573136304628","2934977.0"
"1573136304676","2934670.0"
"1573136304725","2933148.0"
"1573136304770","2933583.0"
"1573136304823","2936230.0"
"1573136304871","2938678.0"
"1573136304921","2942831.0"
"1573136304968","2940842.0"
"1573136305015","2929485.0"
"1573136305070","2923548.0"
"1573136305113","2916725.0"
"1573136305163","2918263.0"
"1573136305213","2919013.0"
"1573136305263","2916725.0"
"1573136305315","2917229.0"
"1573136305364","2918400.0"
"1573136305408","2920374.0"
"1573136305462","2923387.0"
"1573136305507","2926378.0"
"1573136305558","2931242.0"
"1573136305611","2932849.0"
"1573136305659","2924978.0"
"1573136305712","2916634.0"
"1573136305757","2913001.0"
"1573136305806","2910691.0"
"1573136305851","2910797.0"
"1573136305904","2911670.0"
"1573136305950","2910722.0"
"1573136306003","2912611.0"
"1573136306048","2911685.0"
"1573136306101","2914622.0"
"1573136306151","2915929.0"
"1573136306200","2920419.0"
"1573136306250","2925850.0"
"1573136306298","2920596.0"
"1573136306346","2913735.0"
"1573136306392","2909297.0"
"1573136306445","2907975.0"
"1573136306491","2910132.0"
"1573136306543","2914797.0"
"1573136306589","2915165.0"
"1573136306642","2914974.0"
"1573136306695","2915486.0"
"1573136306735","2921169.0"
"1573136306792","2925246.0"
"1573136306839","2929828.0"
"1573136306888","2934479.0"
"1573136306937","2933591.0"
"1573136306986","2929590.0"
"1573136307030","2925437.0"
"1573136307082","2925529.0"
"1573136307129","2929850.0"
"1573136307183","2930356.0"
"1573136307230","2930929.0"
"1573136307281","2935090.0"
"1573136307334","2935121.0"
"1573136307379","2938059.0"
"1573136307429","2942870.0"
"1573136307474","2947260.0"
"1573136307528","2951704.0"
"1573136307573","2950694.0"
"1573136307625","2947917.0"
"1573136307669","2947604.0"
"1573136307724","2947015.0"
"1573136307768","2949111.0"
"1573136307821","2952821.0"
"1573136307871","2954128.0"
"1573136307920","2957249.0"
"1573136307971","2961495.0"
"1573136308014","2964463.0"
"1573136308064","2967438.0"
"1573136308111","2972592.0"
"1573136308165","2975981.0"
"1573136308211","2977458.0"
"1573136308263","2976050.0"
"1573136308309","2982245.0"
"1573136308362","2996733.0"
"1573136308410","3017232.0"
"1573136308517","3042015.0"
"1573136308517","3087097.0"
"1573136308674","3151983.0"
"1573136308674","3245507.0"
"1573136308674","3280485.0"
"1573136308763","3267919.0"
"1573136308763","3228901.0"
"1573136308805","3201542.0"
"1573136308853","3188920.0"
"1573136308903","3174257.0"
"1573136308954","3161752.0"
"1573136309001","3147432.0"
"1573136309050","3132097.0"
"1573136309096","3137076.0"
"1573136309150","3137702.0"
"1573136309198","3165553.0"
"1573136309247","3192722.0"
"1573136309297","3204463.0"
"1573136309345","3209886.0"
"1573136309390","3222032.0"
"1573136309443","3236526.0"
"1573136309491","3222032.0"
"1573136309542","3209213.0"
"1573136309591","3193693.0"
"1573136309636","3176972.0"
"1573136309690","3159478.0"
"1573136309734","3149919.0"
"1573136309790","3137351.0"
"1573136309837","3126979.0"
"1573136309887","3119475.0"
"1573136309933","3116676.0"
"1573136309986","3113801.0"
"1573136310032","3115461.0"
"1573136310079","3114924.0"
"1573136310132","3112462.0"
"1573136310182","3108798.0"
"1573136310231","3106954.0"
"1573136310279","3112346.0"
"1573136310329","3123797.0"
"1573136310377","3139226.0"
"1573136310427","3142607.0"
"1573136310474","3148771.0"
"1573136310526","3150285.0"
"1573136310571","3156228.0"
"1573136310623","3159938.0"
"1573136310673","3160084.0"
"1573136310722","3158034.0"
"1573136310772","3153964.0"
"1573136310820","3149925.0"
"1573136310872","3148572.0"
"1573136310919","3148710.0"
"1573136310970","3148235.0"
"1573136311017","3146995.0"
"1573136311064","3148649.0"
"1573136311113","3148190.0"
"1573136311166","3149123.0"
"1573136311216","3149750.0"
"1573136311259","3150185.0"
"1573136311313","3155502.0"
"1573136311361","3147012.0"
"1573136311412","3133641.0"
"1573136311460","3122092.0"
"1573136311509","3115383.0"
"1573136311558","3114396.0"
"1573136311609","3116875.0"
"1573136311654","3112783.0"
"1573136311707","3113157.0"
"1573136311754","3112086.0"
"1573136311804","3114130.0"
"1573136311856","3117716.0"
"1573136311903","3122474.0"
"1573136311954","3125457.0"
"1573136312001","3134850.0"
"1573136312052","3136830.0"
"1573136312100","3132180.0"
"1573136312149","3129908.0"
"1573136312196","3130284.0"
"1573136312249","3133267.0"
"1573136312294","3137926.0"
"1573136312346","3141268.0"
"1573136312393","3143011.0"
"1573136312444","3145122.0"
"1573136312494","3148464.0"
"1573136312543","3152520.0"
"1573136312592","3157032.0"
"1573136312641","3161315.0"
"1573136312692","3168566.0"
"1573136312734","3172138.0"
"1573136312791","3172016.0"
"1573136312834","3163396.0"
"1573136312881","3161337.0"
"1573136312936","3155831.0"
"1573136312980","3158867.0"
"1573136313035","3160848.0"
"1573136313080","3164023.0"
"1573136313126","3163152.0"
"1573136313176","3167274.0"
"1573136313232","3167678.0"
"1573136313280","3174257.0"
"1573136313330","3176338.0"
"1573136313378","3180966.0"
"1573136313427","3185554.0"
"1573136313474","3192636.0"
"1573136313526","3198748.0"
"1573136313571","3195981.0"
"1573136313624","3190030.0"
"1573136313673","3189394.0"
"1573136313722","3189516.0"
"1573136313772","3193784.0"
"1573136313819","3195522.0"
"1573136313869","3197417.0"
"1573136313915","3200501.0"
"1573136313969","3203545.0"
"1573136314015","3207363.0"
"1573136314063","3210727.0"
"1573136314115","3218139.0"
"1573136314165","3223968.0"
"1573136314214","3231540.0"
"1573136314263","3233275.0"
"1573136314313","3240192.0"
"1573136314361","3247014.0"
"1573136314410","3250173.0"
"1573136314457","3250249.0"
"1573136314504","3248865.0"
"1573136314557","3250456.0"
"1573136314698","3253790.0"
"1573136314698","3260460.0"
"1573136314718","3262626.0"
"1573136314865","3263941.0"
"1573136314865","3268729.0"
"1573136314865","3271612.0"
"1573136314905","3275782.0"
"1573136314953","3283399.0"
"1573136314996","3286298.0"
"1573136315231","3294567.0"
"1573136315232","3300380.0"
"1573136315243","3303409.0"
"1573136315243","3310644.0"
"1573136315278","3309972.0"
"1573136315375","3309598.0"
"1573136315375","3311908.0"
"1573136315399","3311869.0"
"1573136315440","3316786.0"
"1573136315492","3317514.0"
"1573136315537","3319808.0"
"1573136315589","3321140.0"
"1573136315637","3324964.0"
"1573136315689","3325882.0"
"1573136315736","3330074.0"
"1573136315786","3335029.0"
"1573136315835","3338656.0"
"1573136315884","3343083.0"
"1573136315934","3348774.0"
"1573136315981","3350672.0"
"1573136316034","3350542.0"
"1573136316076","3345838.0"
"1573136316125","3346442.0"
"1573136316178","3345379.0"
"1573136316230","3345241.0"
"1573136316276","3347330.0"
"1573136316326","3353693.0"
"1573136316376","3360867.0"
"1573136316424","3361166.0"
"1573136316474","3360256.0"
"1573136316523","3364018.0"
"1573136316569","3366168.0"
"1573136316615","3371828.0"
"1573136316670","3412583.0"
"1573136316717","3447684.0"
"1573136316769","3563816.0"
"1573136316817","3637369.0"
"1573136316867","3687761.0"
"1573136316915","3641600.0"
"1573136316964","3628771.0"
"1573136317015","3614039.0"
"1573136317063","3735978.0"
"1573136317114","3754796.0"
"1573136317157","3798532.0"
"1573136317211","3793322.0"
"1573136317259","3789758.0"
"1573136317310","3824363.0"
"1573136317358","3874807.0"
"1573136317411","3876796.0"
"1573136317457","3858614.0"
"1573136317506","3890029.0"
"1573136317556","3880399.0"
"1573136317606","3860480.0"
"1573136317654","3869819.0"
"1573136317700","3881508.0"
"1573136317754","3901793.0"
"1573136317800","3892904.0"
"1573136317853","3848724.0"
"1573136317899","3812301.0"
"1573136317950","3873147.0"
"1573136317999","4051405.0"
"1573136318047","4341920.0"
"1573136318097","4523016.0"
"1573136318146","4561099.0"
"1573136318190","4818401.0"
"1573136318245","4957889.0"
"1573136318293","4988867.0"
"1573136318337","4934842.0"
"1573136318392","4937274.0"
"1573136318442","4982574.0"
"1573136318491","5014003.0"
"1573136318538","5078859.0"
"1573136318589","5165289.0"
"1573136318637","5164820.0"
"1573136318688","5104365.0"
"1573136318731","5122950.0"
"1573136318785","5090182.0"
"1573136318834","5082880.0"
"1573136318880","5050731.0"
"1573136318932","5098723.0"
"1573136318980","5063696.0"
"1573136319030","5034477.0"
"1573136319075","5016673.0"
"1573136319124","5031986.0"
"1573136319177","5002459.0"
"1573136319228","5014393.0"
"1573136319271","4984395.0"
"1573136319321","5002479.0"
"1573136319375","4989226.0"
"1573136319418","4982574.0"
"1573136319474","4958740.0"
"1573136319520","4955509.0"
"1573136319568","4959770.0"
"1573136319620","4966310.0"
"1573136319669","4918769.0"
"1573136319717","4951657.0"
"1573136319769","4936515.0"
"1573136319812","4966741.0"
"1573136319867","4954319.0"
"1573136319915","4959559.0"
"1573136319960","4930763.0"
"1573136320014","4917678.0"
"1573136320061","4905116.0"
"1573136320113","4899514.0"
"1573136320160","4911867.0"
"1573136320209","4888783.0"
"1573136320258","4893763.0"
"1573136320310","4880770.0"
"1573136320352","4885792.0"
"1573136320407","4896314.0"
"1573136320454","4888431.0"
"1573136320499","4879550.0"
"1573136320554","4873098.0"
"1573136320601","4873809.0"
"1573136320652","4852152.0"
"1573136320695","4853394.0"
"1573136320751","4857644.0"
"1573136320800","4858865.0"
"1573136320850","4854353.0"
"1573136320892","4856665.0"
"1573136320943","4861456.0"
"1573136320997","4868276.0"
"1573136321042","4875678.0"
"1573136321094","4866287.0"
"1573136321146","4872029.0"
"1573136321188","4862986.0"
"1573136321241","4854093.0"
"1573136321291","4859434.0"
"1573136321339","4856204.0"
"1573136321390","4865767.0"
"1573136321434","4865217.0"
"1573136321487","4873608.0"
"1573136321535","4882710.0"
"1573136321582","4890372.0"
"1573136321634","4891513.0"
"1573136321685","4900845.0"
"1573136321728","4912278.0"
"1573136321782","4925821.0"
"1573136321832","4935163.0"
"1573136321880","4933873.0"
"1573136321930","4924042.0"
"1573136321973","4937723.0"
"1573136322029","4944026.0"
"1573136322073","4952157.0"
"1573136322122","4953457.0"
"1573136322175","4966672.0"
"1573136322225","4983946.0"
"1573136322274","4987816.0"
"1573136322323","5001281.0"
"1573136322372","5009401.0"
"1573136322421","5020584.0"
"1573136322471","5034847.0"
"1573136322514","5045790.0"
"1573136322565","5065534.0"
"1573136322617","5073017.0"
"1573136322663","5090602.0"
"1573136322715","5100544.0"
"1573136322764","5106354.0"
"1573136322814","5118967.0"
"1573136322863","5121529.0"
"1573136322913","5131450.0"
"1573136322964","5137554.0"
"1573136323011","5153917.0"
"1573136323055","5154547.0"
"1573136323110","5167410.0"
"1573136323157","5175801.0"
"1573136323209","5183083.0"
"1573136323256","5196407.0"
"1573136323302","5208490.0"
"1573136323348","5223663.0"
"1573136323405","5236677.0"
"1573136323454","5244598.0"
"1573136323502","5252581.0"
"1573136323555","5268325.0"
"1573136323688","5274217.0"
"1573136323688","5294201.0"
"1573136323710","5292891.0"
"1573136323857","5305224.0"
"1573136323857","5310986.0"
"1573136323857","5312516.0"
"1573136323911","5323058.0"
"1573136323945","5332610.0"
"1573136323994","5340253.0"
"1573136324042","5347265.0"
"1573136324092","5363037.0"
"1573136324137","5372710.0"
"1573136324186","5378342.0"
"1573136324239","5388913.0"
"1573136324289","5391195.0"
"1573136324336","5411590.0"
"1573136324384","5420483.0"
"1573136324435","5428354.0"
"1573136324485","5432285.0"
"1573136324534","5440788.0"
"1573136324579","5454709.0"
"1573136324633","5462562.0"
"1573136324677","5467843.0"
"1573136324728","5473365.0"
"1573136324871","5477536.0"
"1573136324871","5481667.0"
"1573136324889","5485448.0"
"1573136325033","5493290.0"
"1573136325033","5496230.0"
"1573136325033","5502092.0"
"1573136325085","5503882.0"
"1573136325123","5507372.0"
"1573136325174","5522828.0"
"1573136325222","5528068.0"
"1573136325273","5533590.0"
"1573136325321","5538411.0"
"1573136325485","5547363.0"
"1573136325485","5547962.0"
"1573136325485","5561356.0"
"1573136325644","5558026.0"
"1573136325672","5567788.0"
"1573136325717","5564507.0"
"1573136325764","5564466.0"
"1573136325809","5567207.0"
"1573136325862","5575119.0"
"1573136325911","5571789.0"
"1573136325960","5575111.0"
"1573136326006","5568938.0"
"1573136326057","5590603.0"
"1573136326106","5581131.0"
"1573136326157","5597915.0"
"1573136326201","5588963.0"
"1573136326367","5588823.0"
"1573136326367","5582821.0"
"1573136326367","5575610.0"
"1573136326514","5572658.0"
"1573136326514","5571289.0"
"1573136326514","5563997.0"
"1573136326566","5568688.0"
"1573136326599","5559785.0"
"1573136326646","5568048.0"
"1573136326698","5564076.0"
"1573136326746","5569249.0"
"1573136326795","5565348.0"
"1573136326845","5561317.0"
"1573136326895","5575649.0"
"1573136326942","5570568.0"
"1573136326988","5566098.0"
"1573136327041","5557345.0"
"1573136327089","5551863.0"
"1573136327135","5543962.0"
"1573136327193","5548663.0"
"1573136327369","5550094.0"
"1573136327369","5547863.0"
"1573136327369","5536331.0"
"1573136327409","5537861.0"
"1573136327460","5529049.0"
"1573136327554","5541481.0"
"1573136327555","5535051.0"
"1573136327605","5536940.0"
"1573136327635","5538850.0"
"1573136327788","5542582.0"
"1573136327788","5525908.0"
"1573136327788","5520737.0"
"1573136327923","5503211.0"
"1573136327924","5511054.0"
"1573136327950","5500592.0"
"1573136327993","5502543.0"
"1573136328024","5496970.0"
"1573136328070","5487498.0"
"1573136328124","5477136.0"
"1573136328172","5485297.0"
"1573136328220","5482867.0"
"1573136328274","5483747.0"
"1573136328318","5487018.0"
"1573136328368","5479397.0"
"1573136328417","5464533.0"
"1573136328467","5470654.0"
"1573136328516","5455530.0"
"1573136328563","5454250.0"
"1573136328609","5447940.0"
"1573136328664","5425393.0"
"1573136328710","5423183.0"
"1573136328761","5425353.0"
"1573136328812","5419621.0"
"1573136328859","5415141.0"
"1573136328908","5403578.0"
"1573136328958","5410200.0"
"1573136329009","5415870.0"
"1573136329051","5426023.0"
"1573136329105","5405817.0"
"1573136329154","5409208.0"
"1573136329199","5383482.0"
"1573136329250","5345214.0"
"1573136329301","5317577.0"
"1573136329353","5342242.0"
"1573136329399","5333981.0"
"1573136329449","5325098.0"
"1573136329497","5321297.0"
"1573136329548","5299191.0"
"1573136329592","5305035.0"
"1573136329646","5300142.0"
"1573136329694","5297241.0"
"1573136329745","5308184.0"
"1573136329790","5306684.0"
"1573136329843","5313196.0"
"1573136329893","5296272.0"
"1573136329941","5284599.0"
"1573136329991","5276566.0"
"1573136330039","5276326.0"
"1573136330090","5283299.0"
"1573136330133","5273325.0"
"1573136330188","5271747.0"
"1573136330237","5268096.0"
"1573136330285","5273817.0"
"1573136330334","5267565.0"
"1573136330384","5265564.0"
"1573136330430","5273616.0"
"1573136330482","5269825.0"
"1573136330531","5274225.0"
"1573136330576","5253321.0"
"1573136330631","5236098.0"
"1573136330674","5227164.0"
"1573136330729","5223824.0"
"1573136330777","5217763.0"
"1573136330826","5209671.0"
"1573136330873","5206851.0"
"1573136330926","5200627.0"
"1573136330973","5199327.0"
"1573136331023","5199388.0"
"1573136331070","5201048.0"
"1573136331121","5199829.0"
"1573136331171","5189855.0"
"1573136331213","5175411.0"
"1573136331269","5162028.0"
"1573136331316","5161079.0"
"1573136331367","5148426.0"
"1573136331414","5148495.0"
"1573136331466","5143625.0"
"1573136331512","5132962.0"
"1573136331563","5132111.0"
"1573136331615","5130341.0"
"1573136331662","5129260.0"
"1573136331713","5130321.0"
"1573136331760","5122080.0"
"1573136331810","5126231.0"
"1573136331858","5121379.0"
"1573136331906","5106586.0"
"1573136331950","5097723.0"
"1573136332006","5083060.0"
"1573136332056","5085131.0"
"1573136332103","5078168.0"
"1573136332156","5076419.0"
"1573136332202","5075368.0"
"1573136332252","5069137.0"
"1573136332297","5067066.0"
"1573136332351","5071766.0"
"1573136332400","5072408.0"
"1573136332449","5070947.0"
"1573136332496","5079198.0"
"1573136332549","5064716.0"
"1573136332595","5053222.0"
"1573136332647","5048322.0"
"1573136332693","5039839.0"
"1573136332745","5037039.0"
"1573136332795","5030196.0"
"1573136332836","5022986.0"
"1573136332893","5019355.0"
"1573136332942","5024434.0"
"1573136332993","5022904.0"
"1573136333041","5020194.0"
"1573136333090","5027876.0"
"1573136333134","5032748.0"
"1573136333191","5033927.0"
"1573136333231","5015873.0"
"1573136333286","5045081.0"
"1573136333335","5040879.0"
"1573136333380","5056284.0"
"1573136333433","5109386.0"
"1573136333482","5203610.0"
"1573136333532","5300652.0"
"1573136333576","5275587.0"
"1573136333631","5265105.0"
"1573136333674","5260192.0"
"1573136333729","5234096.0"
"1573136333771","5189016.0"
"1573136333827","5160149.0"
"1573136333873","5154027.0"
"1573136333926","5162148.0"
"1573136333975","5169840.0"
"1573136334024","5183624.0"
"1573136334068","5197017.0"
"1573136334121","5223574.0"
"1573136334171","5242609.0"
"1573136334215","5261143.0"
"1573136334270","5280158.0"
"1573136334314","5310325.0"
"1573136334367","5336972.0"
"1573136334417","5362708.0"
"1573136334460","5382442.0"
"1573136334515","5387003.0"
"1573136334563","5400746.0"
"1573136334613","5416561.0"
"1573136334662","5429595.0"
"1573136334712","5443248.0"
"1573136334760","5448608.0"
"1573136334809","5463803.0"
"1573136334855","5470713.0"
"1573136334907","5480437.0"
"1573136334959","5490019.0"
"1573136335008","5496441.0"
"1573136335055","5498430.0"
"1573136335104","5505393.0"
"1573136335148","5516036.0"
"1573136335202","5520646.0"
"1573136335252","5527478.0"
"1573136335301","5531178.0"
"1573136335350","5539821.0"
"1573136335393","5543031.0"
"1573136335448","5546522.0"
"1573136335494","5548873.0"
"1573136335543","5548602.0"
"1573136335595","5553054.0"
"1573136335644","5550665.0"
"1573136335693","5554696.0"
"1573136335741","5553154.0"
"1573136335793","5556144.0"
"1573136335840","5553775.0"
"1573136335891","5552475.0"
"1573136335934","5546392.0"
"1573136335992","5546193.0"
"1573136336035","5554816.0"
"1573136336082","5557365.0"
"1573136336136","5551705.0"
"1573136336186","5553464.0"
"1573136336234","5550453.0"
"1573136336283","5551473.0"
"1573136336333","5549204.0"
"1573136336381","5549614.0"
"1573136336431","5552824.0"
"1573136336475","5550275.0"
"1573136336532","5553304.0"
"1573136336575","5556315.0"
"1573136336628","5563977.0"
"1573136336675","5562447.0"
"1573136336726","5568048.0"
"1573136336774","5567809.0"
"1573136336824","5575029.0"
"1573136336873","5575850.0"
"1573136336921","5577630.0"
"1573136336972","5575700.0"
"1573136337015","5577671.0"
"1573136337066","5576671.0"
"1573136337116","5577339.0"
"1573136337165","5583022.0"
"1573136337216","5581490.0"
"1573136337266","5585483.0"
"1573136337315","5585822.0"
"1573136337364","5589134.0"
"1573136337414","5595725.0"
"1573136337460","5599126.0"
"1573136337513","5599536.0"
"1573136337557","5597025.0"
"1573136337611","5595595.0"
"1573136337660","5596525.0"
"1573136337703","5591684.0"
"1573136337756","5598394.0"
"1573136337807","5597374.0"
"1573136337855","5600156.0"
"1573136337904","5601156.0"
"1573136337954","5598185.0"
"1573136337997","5602856.0"
"1573136338053","5601367.0"
"1573136338096","5606048.0"
"1573136338146","5611158.0"
"1573136338197","5610628.0"
"1573136338249","5608238.0"
"1573136338384","5596806.0"
"1573136338385","5606038.0"
"1573136338408","5637885.0"
"1573136338681","5685306.0"
"1573136338681","5697149.0"
"1573136338720","5707371.0"
"1573136338793","5713414.0"
"1573136338793","5716484.0"
"1573136338838","5722556.0"
"1573136338887","5725826.0"
"1573136338936","5730838.0"
"1573136338985","5726526.0"
"1573136339035","5733089.0"
"1573136339083","5738579.0"
"1573136339134","5749593.0"
"1573136339176","5762066.0"
"1573136339226","5776640.0"
"1573136339280","5785502.0"
"1573136339325","5794334.0"
"1573136339377","5796534.0"
"1573136339429","5795764.0"
"1573136339477","5792302.0"
"1573136339526","5793123.0"
"1573136339571","5797213.0"
"1573136339626","5799084.0"
"1573136339673","5789551.0"
"1573136339716","5792963.0"
"1573136339770","5803266.0"
"1573136339819","5804785.0"
"1573136339987","5812327.0"
"1573136339987","5819400.0"
"1573136339987","5831273.0"
"1573136340018","5846617.0"
"1573136340343","5856768.0"
"1573136340343","5864791.0"
"1573136340343","5865341.0"
"1573136340344","5870681.0"
"1573136340391","5875673.0"
"1573136340445","5875063.0"
"1573136340471","5959019.0"
"1573136340509","5953377.0"
"1573136340557","5952584.0"
"1573136340607","5957640.0"
"1573136340656","5956535.0"
"1573136340706","5951101.0"
"1573136340844","5946035.0"
"1573136340844","5943002.0"
"1573136340867","5949320.0"
"1573136341018","5955204.0"
"1573136341018","5975000.0"
"1573136341018","5992016.0"
"1573136341056","6007975.0"
"1573136341097","6017443.0"
"1573136341249","6022280.0"
"1573136341249","6024739.0"
"1573136341249","6030172.0"
"1573136341400","6040962.0"
"1573136341400","6056576.0"
"1573136341402","6075464.0"
"1573136341456","6091113.0"
"1573136341488","6104728.0"
"1573136341541","6114723.0"
"1573136341590","6129441.0"
"1573136341640","6141941.0"
"1573136341690","6151822.0"
"1573136341733","6159830.0"
"1573136341788","6173091.0"
"1573136341836","6186004.0"
"1573136341884","6203216.0"
"1573136341934","6179133.0"
"1573136341981","6173539.0"
"1573136342032","6169527.0"
"1573136342077","6146481.0"
"1573136342132","6166794.0"
"1573136342180","6083771.0"
"1573136342225","6080807.0"
"1573136342278","6058700.0"
"1573136342330","6010582.0"
"1573136342376","5950366.0"
"1573136342427","5918243.0"
"1573136342474","5806620.0"
"1573136342521","5597627.0"
"1573136342569","5409546.0"
"1573136342623","5233525.0"
"1573136342673","4835784.0"
"1573136342721","4584691.0"
"1573136342766","4507965.0"
"1573136342818","4484079.0"
"1573136342871","4422932.0"
"1573136342917","4380892.0"
"1573136342965","4355650.0"
"1573136343016","4344425.0"
"1573136343063","4326501.0"
"1573136343113","4330326.0"
"1573136343157","4366036.0"
"1573136343212","4399207.0"
"1573136343261","4466867.0"
"1573136343310","4496086.0"
"1573136343359","4588219.0"
"1573136343405","4651986.0"
"1573136343457","4749842.0"
"1573136343501","4844985.0"
"1573136343555","4943923.0"
"1573136343606","5006092.0"
"1573136343654","5044674.0"
"1573136343704","5060781.0"
"1573136343753","5093493.0"
"1573136343801","5148562.0"
"1573136343851","5208949.0"
"1573136343899","5297672.0"
"1573136343950","5268236.0"
"1573136344001","5304324.0"
"1573136344048","5286183.0"
"1573136344096","5332715.0"
"1573136344143","5328889.0"
"1573136344190","5333369.0"
"1573136344241","5311620.0"
"1573136344293","5309840.0"
"1573136344343","5259837.0"
"1573136344392","5254771.0"
"1573136344440","5247682.0"
"1573136344490","5218407.0"
"1573136344537","5203689.0"
"1573136344589","5195117.0"
"1573136344636","5177538.0"
"1573136344683","5145288.0"
"1573136344730","5147918.0"
"1573136344784","5163786.0"
"1573136344833","5159213.0"
"1573136344884","5164360.0"
"1573136344932","5166532.0"
"1573136344981","5136832.0"
"1573136345025","5146264.0"
"1573136345074","5049211.0"
"1573136345126","5018789.0"
"1573136345177","4971152.0"
"1573136345223","4949035.0"
"1573136345276","4936419.0"
"1573136345326","4916624.0"
"1573136345374","4885568.0"
"1573136345423","4836081.0"
"1573136345473","4783254.0"
"1573136345522","4745304.0"
"1573136345567","4697794.0"
"1573136345619","4613301.0"
"1573136345664","4675782.0"
"1573136345718","4682721.0"
"1573136345764","4668174.0"
"1573136345812","4629776.0"
"1573136345866","4592918.0"
"1573136345916","4593412.0"
"1573136345964","4590137.0"
"1573136346008","4562770.0"
"1573136346062","4564298.0"
"1573136346110","4547385.0"
"1573136346156","4556106.0"
"1573136346207","4548352.0"
"1573136346258","4540170.0"
"1573136346306","4539745.0"
"1573136346357","4526199.0"
"1573136346406","4535620.0"
"1573136346456","4505600.0"
"1573136346506","4476645.0"
"1573136346554","4496509.0"
"1573136346603","4499464.0"
"1573136346654","4446484.0"
"1573136346700","4352237.0"
"1573136346746","3893888.0"
"1573136346799","3656181.0"
"1573136346846","3378826.0"
"1573136346898","3403321.0"
"1573136346946","3233115.0"
"1573136346995","3179810.0"
"1573136347045","3048834.0"
"1573136347094","2994005.0"
"1573136347143","2933195.0"
"1573136347192","2915653.0"
"1573136347236","2899945.0"
"1573136347288","2901400.0"
"1573136347340","2917182.0"
"1573136347388","2925096.0"
"1573136347433","2923729.0"
"1573136347486","2939288.0"
"1573136347537","2942238.0"
"1573136347586","2948992.0"
"1573136347635","2953020.0"
"1573136347683","2967755.0"
"1573136347729","3039851.0"
"1573136347782","3325846.0"
"1573136347827","3735826.0"
"1573136347879","4352258.0"
"1573136347929","4404866.0"
"1573136347977","4479859.0"
"1573136348027","4282546.0"
"1573136348072","4218034.0"
"1573136348128","4196471.0"
"1573136348175","4248693.0"
"1573136348224","4174925.0"
"1573136348268","3906263.0"
"1573136348323","3751192.0"
"1573136348368","3659700.0"
"1573136348421","3614472.0"
"1573136348473","3482999.0"
"1573136348519","3393834.0"
"1573136348569","3273567.0"
"1573136348618","3245271.0"
"1573136348668","3203795.0"
"1573136348716","3192307.0"
"1573136348765","3171955.0"
"1573136348812","3137546.0"
"1573136348863","3135546.0"
"1573136348910","3212170.0"
"1573136348962","3304974.0"
"1573136349014","3388901.0"
"1573136349055","3427642.0"
"1573136349113","3467306.0"
"1573136349153","3381656.0"
"1573136349208","3334347.0"
"1573136349257","3289660.0"
"1573136349305","3213588.0"
"1573136349351","3159145.0"
"1573136349404","3161486.0"
"1573136349448","3155364.0"
"1573136349501","3138972.0"
"1573136349551","3131869.0"
"1573136349597","3119654.0"
"1573136349654","3272021.0"
"1573136349698","3235084.0"
"1573136349750","3261744.0"
"1573136349796","3277549.0"
"1573136349846","3274034.0"
"1573136349893","3312887.0"
"1573136349944","3365762.0"
"1573136349989","3321730.0"
"1573136350042","3364358.0"
"1573136350091","3352135.0"
"1573136350140","3417597.0"
"1573136350193","3461875.0"
"1573136350238","3461117.0"
"1573136350289","3518419.0"
"1573136350337","3512334.0"
"1573136350386","3488296.0"
"1573136350435","3443210.0"
"1573136350484","3353524.0"
"1573136350532","3269317.0"
"1573136350580","3206135.0"
"1573136350633","3150073.0"
"1573136350681","3110499.0"
"1573136350729","3072211.0"
"1573136350779","3053537.0"
"1573136350824","3027480.0"
"1573136350877","3002209.0"
"1573136350927","2984376.0"
"1573136350975","2966261.0"
"1573136351027","2946771.0"
"1573136351071","2935015.0"
"1573136351124","2926106.0"
"1573136351174","2980809.0"
"1573136351215","2869331.0"
"1573136351272","2811264.0"
"1573136351320","2830746.0"
"1573136351369","2898992.0"
"1573136351418","2880684.0"
"1573136351468","2867644.0"
"1573136351517","2865883.0"
"1573136351564","2859219.0"
"1573136351613","2857583.0"
"1573136351665","2849974.0"
"1573136351715","2844921.0"
"1573136351762","2839334.0"
"1573136351813","2838020.0"
"1573136351861","2833584.0"
"1573136351911","2833034.0"
"1573136351959","2824563.0"
"1573136352013","2817282.0"
"1573136352058","2810237.0"
"1573136352108","2804597.0"
"1573136352151","2801840.0"
"1573136352206","2799173.0"
"1573136352252","2795688.0"
"1573136352303","2790227.0"
"1573136352352","2790168.0"
"1573136352402","2789321.0"
"1573136352452","2789810.0"
"1573136352501","2788526.0"
"1573136352550","2787248.0"
"1573136352599","2778093.0"
"1573136352650","2770996.0"
"1573136352697","2766183.0"
"1573136352747","2760238.0"
"1573136352796","2761717.0"
"1573136352844","2756754.0"
"1573136352892","2754933.0"
"1573136352943","2753038.0"
"1573136352994","2748952.0"
"1573136353038","2750691.0"
"1573136353087","2750764.0"
"1573136353135","2751195.0"
"1573136353191","2748773.0"
"1573136353239","2739159.0"
"1573136353289","2730420.0"
"1573136353333","2727627.0"
"1573136353387","2724439.0"
"1573136353432","2722730.0"
"1573136353486","2720233.0"
"1573136353531","2718346.0"
"1573136353578","2713701.0"
"1573136353628","2710530.0"
"1573136353677","2715515.0"
"1573136353727","2713634.0"
"1573136353775","2713100.0"
"1573136353825","2704258.0"
"1573136353874","2693684.0"
"1573136353923","2689850.0"
"1573136353972","2680592.0"
"1573136354022","2675502.0"
"1573136354071","2670122.0"
"1573136354119","2663033.0"
"1573136354167","2655016.0"
"1573136354217","2650461.0"
"1573136354268","2644004.0"
"1573136354316","2642452.0"
"1573136354366","2636560.0"
"1573136354414","2625540.0"
"1573136354465","2619292.0"
"1573136354513","2611927.0"
"1573136354562","2612447.0"
"1573136354612","2614001.0"
"1573136354660","2611943.0"
"1573136354709","2607953.0"
"1573136354758","2602863.0"
"1573136354808","2611630.0"
"1573136354856","2617634.0"
"1573136354906","2617455.0"
"1573136354955","2624040.0"
"1573136355005","2628520.0"
"1573136355054","2635914.0"
"1573136355104","2650187.0"
"1573136355151","2644569.0"
"1573136355201","2644555.0"
"1573136355253","2629916.0"
"1573136355299","2606281.0"
"1573136355350","2611890.0"
"1573136355398","2635243.0"
"1573136355448","2640640.0"
"1573136355496","2647446.0"
"1573136355547","2635593.0"
"1573136355593","2616608.0"
"1573136355650","2566966.0"
"1573136355693","2545655.0"
"1573136355747","2534718.0"
"1573136355793","2529436.0"
"1573136355844","2528640.0"
"1573136355894","2524850.0"
"1573136355943","2520066.0"
"1573136355993","2522800.0"
"1573136356037","2519828.0"
"1573136356091","2520527.0"
"1573136356139","2522689.0"
"1573136356189","2526234.0"
"1573136356233","2527073.0"
"1573136356288","2527280.0"
"1573136356335","2522065.0"
"1573136356385","2522652.0"
"1573136356434","2533024.0"
"1573136356484","2543353.0"
"1573136356533","2551088.0"
"1573136356579","2559514.0"
"1573136356632","2563898.0"
"1573136356682","2569106.0"
"1573136356731","2575646.0"
"1573136356773","2580132.0"
"1573136356831","2579315.0"
"1573136356875","2574279.0"
"1573136356926","2579791.0"
"1573136356975","2579189.0"
"1573136357026","2581410.0"
"1573136357070","2581650.0"
"1573136357123","2584978.0"
"1573136357169","2587266.0"
"1573136357220","2589368.0"
"1573136357272","2590023.0"
"1573136357313","2593084.0"
"1573136357369","2596933.0"
"1573136357418","2601918.0"
"1573136357471","2601012.0"
"1573136357515","2597617.0"
"1573136357563","2592327.0"
"1573136357615","2594592.0"
"1573136357664","2597254.0"
"1573136357713","2599994.0"
"1573136357762","2599415.0"
"1573136357812","2600484.0"
"1573136357857","2604214.0"
"1573136357912","2604891.0"
"1573136357956","2607030.0"
"1573136358006","2611586.0"
"1573136358056","2618109.0"
"1573136358099","2621289.0"
"1573136358238","2618221.0"
"1573136358238","2617902.0"
"1573136358275","2614893.0"
"1573136358417","2613963.0"
"1573136358417","2616163.0"
"1573136358417","2618496.0"
"1573136358462","2619558.0"
"1573136358499","2618280.0"
"1573136358548","2619745.0"
"1573136358596","2620710.0"
"1573136358647","2627732.0"
"1573136358695","2626722.0"
"1573136358745","2631552.0"
"1573136358789","2633000.0"
"1573136358947","2634508.0"
"1573136358947","2630302.0"
"1573136358947","2626432.0"
"1573136359102","2626929.0"
"1573136359102","2628238.0"
"1573136359102","2628207.0"
"1573136359156","2628638.0"
"1573136359187","2634812.0"
"1573136359235","2634851.0"
"1573136359285","2640833.0"
"1573136359332","2641605.0"
"1573136359381","2640839.0"
"1573136359433","2645780.0"
"1573136359476","2647186.0"
"1573136359532","2649815.0"
"1573136359577","2652029.0"
"1573136359628","2646599.0"
"1573136359677","2641003.0"
"1573136359728","2637169.0"
"1573136359775","2638439.0"
"1573136359826","2636588.0"
"1573136359874","2636789.0"
"1573136359924","2635355.0"
"1573136359973","2635757.0"
"1573136360016","2632013.0"
"1573136360069","2632257.0"
"1573136360121","2633022.0"
"1573136360165","2632732.0"
"1573136360219","2634144.0"
"1573136360369","2637444.0"
"1573136360369","2634835.0"
"1573136360369","2625592.0"
"1573136360537","2621082.0"
"1573136360537","2618823.0"
"1573136360537","2618794.0"
"1573136360565","2616720.0"
"1573136360612","2616177.0"
"1573136360657","2614068.0"
"1573136360710","2612402.0"
"1573136360845","2610442.0"
"1573136360845","2609460.0"
"1573136360871","2614981.0"
"1573136361006","2615271.0"
"1573136361006","2618065.0"
"1573136361026","2618853.0"
"1573136361068","2615413.0"
"1573136361097","2606526.0"
"1573136361153","2601502.0"
"1573136361199","2598442.0"
"1573136361250","2594458.0"
"1573136361300","2594570.0"
"1573136361349","2592936.0"
"1573136361397","2589273.0"
"1573136361450","2587609.0"
"1573136361496","2587022.0"
"1573136361545","2588582.0"
"1573136361594","2590758.0"
"1573136361642","2590640.0"
"1573136361693","2593076.0"
"1573136361870","2592875.0"
"1573136361870","2584242.0"
"1573136361870","2576796.0"
"1573136361902","2567948.0"
"1573136362027","2567361.0"
"1573136362028","2561066.0"
"1573136362047","2562724.0"
"1573136362084","2559142.0"
"1573136362135","2556438.0"
"1573136362185","2552797.0"
"1573136362234","2550546.0"
"1573136362278","2551891.0"
"1573136362333","2550716.0"
"1573136362381","2549676.0"
"1573136362430","2552328.0"
"1573136362479","2550574.0"
"1573136362526","2541450.0"
"1573136362573","2534548.0"
"1573136362629","2528751.0"
"1573136362676","2525409.0"
"1573136362723","2525862.0"
"1573136362774","2523841.0"
"1573136362819","2521165.0"
"1573136362874","2518357.0"
"1573136362920","2517585.0"
"1573136362972","2516002.0"
"1573136363024","2515837.0"
"1573136363067","2514724.0"
"1573136363118","2518089.0"
"1573136363169","2514604.0"
"1573136363217","2504842.0"
"1573136363267","2497915.0"
"1573136363316","2493866.0"
"1573136363360","2492678.0"
"1573136363414","2490678.0"
"1573136363461","2489884.0"
"1573136363513","2486666.0"
"1573136363563","2485611.0"
"1573136363607","2484429.0"
"1573136363660","2482818.0"
"1573136363709","2484073.0"
"1573136363757","2484675.0"
"1573136363809","2486993.0"
"1573136363856","2484347.0"
"1573136363902","2473567.0"
"1573136363955","2464613.0"
"1573136364001","2458920.0"
"1573136364053","2456336.0"
"1573136364102","2456387.0"
"1573136364146","2454767.0"
"1573136364200","2449924.0"
"1573136364250","2448778.0"
"1573136364298","2448325.0"
"1573136364349","2448934.0"
"1573136364396","2448325.0"
"1573136364615","2450064.0"
"1573136364615","2450212.0"
"1573136364617","2454834.0"
"1573136364617","2444804.0"
"1573136364666","2436571.0"
"1573136364767","2432788.0"
"1573136364767","2429080.0"
"1573136364794","2430165.0"
"1573136364840","2429029.0"
"1573136364890","2426457.0"
"1573136364938","2424980.0"
"1573136364990","2425514.0"
"1573136365039","2425344.0"
"1573136365081","2425551.0"
"1573136365135","2429273.0"
"1573136365185","2428732.0"
"1573136365228","2431353.0"
"1573136365283","2423649.0"
"1573136365331","2415512.0"
"1573136365381","2411887.0"
"1573136365430","2412088.0"
"1573136365479","2411991.0"
"1573136365530","2408194.0"
"1573136365573","2409851.0"
"1573136365625","2390999.0"
"1573136365675","2386238.0"
"1573136365724","2387896.0"
"1573136365769","2390133.0"
"1573136365823","2391694.0"
"1573136365872","2394337.0"
"1573136365921","2394971.0"
"1573136365972","2386238.0"
"1573136366018","2379985.0"
"1573136366066","2374160.0"
"1573136366117","2372559.0"
"1573136366164","2373847.0"
"1573136366215","2372746.0"
"1573136366263","2368753.0"
"1573136366309","2369812.0"
"1573136366364","2368010.0"
"1573136366413","2368658.0"
"1573136366463","2369903.0"
"1573136366512","2373483.0"
"1573136366560","2374838.0"
"1573136366607","2376561.0"
"1573136366658","2371191.0"
"1573136366710","2361774.0"
"1573136366756","2355334.0"
"1573136366805","2353724.0"
"1573136366850","2354135.0"
"1573136366904","2353204.0"
"1573136366962","2351583.0"
"1573136366996","2350344.0"
"1573136367046","2350955.0"
"1573136367094","2351540.0"
"1573136367145","2354293.0"
"1573136367192","2356585.0"
"1573136367401","2359017.0"
"1573136367401","2362686.0"
"1573136367401","2366636.0"
"1573136367401","2359675.0"
"1573136367538","2351626.0"
"1573136367538","2339791.0"
"1573136367568","2317454.0"
"1573136367594","2323006.0"
"1573136367855","2335453.0"
"1573136367855","2351020.0"
"1573136367855","2359216.0"
"1573136367855","2443235.0"
"1573136367856","2576556.0"
"1573136367899","2624044.0"
"1573136367967","2733744.0"
"1573136367987","2827450.0"
"1573136368036","2898781.0"
"1573136368080","2978795.0"
"1573136368133","3073507.0"
"1573136368177","3155445.0"
"1573136368228","3097185.0"
"1573136368280","3026860.0"
"1573136368326","2960713.0"
"1573136368373","2917367.0"
"1573136368427","2877444.0"
"1573136368472","2852768.0"
"1573136368526","2838645.0"
"1573136368571","2818669.0"
"1573136368623","2818519.0"
"1573136368672","2811635.0"
"1573136368721","2813649.0"
"1573136368769","2826248.0"
"1573136368820","2836983.0"
"1573136368867","2852429.0"
"1573136368915","2862947.0"
"1573136368967","2866043.0"
"1573136369012","2855466.0"
"1573136369062","2845177.0"
"1573136369115","2867494.0"
"1573136369165","2902241.0"
"1573136369208","2940826.0"
"1573136369263","2968126.0"
"1573136369307","3009659.0"
"1573136369361","3038774.0"
"1573136369413","3017847.0"
"1573136369459","3011049.0"
"1573136369513","3024652.0"
"1573136369556","3013136.0"
"1573136369607","3019650.0"
"1573136369651","3049037.0"
"1573136369704","3061176.0"
"1573136369753","3061859.0"
"1573136369802","3060317.0"
"1573136369847","3065675.0"
"1573136369901","3068155.0"
"1573136369953","3101444.0"
"1573136369999","3119055.0"
"1573136370051","3127019.0"
"1573136370091","3140144.0"
"1573136370148","3136430.0"
"1573136370196","3145768.0"
"1573136370244","3141723.0"
"1573136370290","3137755.0"
"1573136370343","3144421.0"
"1573136370387","3129711.0"
"1573136370442","3130849.0"
"1573136370493","3168883.0"
"1573136370539","3239379.0"
"1573136370589","3271651.0"
"1573136370630","3311181.0"
"1573136370682","3339989.0"
"1573136370732","3357927.0"
"1573136370785","3364646.0"
"1573136370830","3361948.0"
"1573136370883","3356952.0"
"1573136370928","3355030.0"
"1573136370981","3356468.0"
"1573136371032","3355440.0"
"1573136371075","3360097.0"
"1573136371129","3358392.0"
"1573136371172","3359057.0"
"1573136371228","3358677.0"
"1573136371276","3367742.0"
"1573136371324","3374002.0"
"1573136371374","3376209.0"
"1573136371423","3376420.0"
"1573136371466","3375961.0"
"1573136371520","3372944.0"
"1573136371567","3367578.0"
"1573136371725","3360648.0"
"1573136371726","3352720.0"
"1573136371728","3350367.0"
"1573136371774","3342654.0"
"1573136371920","3339800.0"
"1573136371920","3334503.0"
"1573136371920","3327512.0"
"1573136371981","3327516.0"
"1573136372010","3326919.0"
"1573136372055","3327118.0"
"1573136372108","3326815.0"
"1573136372153","3325364.0"
"1573136372205","3323786.0"
"1573136372251","3322455.0"
"1573136372304","3315360.0"
"1573136372352","3307068.0"
"1573136372406","3299279.0"
"1573136372452","3290963.0"
"1573136372503","3292088.0"
"1573136372549","3292166.0"
"1573136372601","3290630.0"
"1573136372651","3283458.0"
"1573136372700","3285333.0"
"1573136372749","3285376.0"
"1573136372794","3284057.0"
"1573136372844","3287098.0"
"1573136372893","3288525.0"
"1573136372942","3292621.0"
"1573136372991","3293177.0"
"1573136373041","3292397.0"
"1573136373089","3283234.0"
"1573136373142","3274579.0"
"1573136373191","3265391.0"
"1573136373241","3263512.0"
"1573136373290","3264097.0"
"1573136373334","3261533.0"
"1573136373389","3257130.0"
"1573136373438","3250096.0"
"1573136373488","3246945.0"
"1573136373534","3245602.0"
"1573136373586","3246075.0"
"1573136373630","3251874.0"
"1573136373683","3251197.0"
"1573136373730","3248790.0"
"1573136373781","3252673.0"
"1573136373832","3246831.0"
"1573136373875","3231796.0"
"1573136373928","3217166.0"
"1573136373978","3213748.0"
"1573136374030","3210554.0"
"1573136374072","3207464.0"
"1573136374125","3205632.0"
"1573136374168","3197570.0"
"1573136374224","3190881.0"
"1573136374270","3183817.0"
"1573136374321","3179989.0"
"1573136374373","3178585.0"
"1573136374415","3173329.0"
"1573136374470","3167124.0"
"1573136374519","3147245.0"
"1573136374566","3132137.0"
"1573136374615","3124577.0"
"1573136374668","3117427.0"
"1573136374710","3116678.0"
"1573136374765","3109481.0"
"1573136374812","3101667.0"
"1573136374862","3096380.0"
"1573136374914","3092213.0"
"1573136374956","3091362.0"
"1573136375034","3088258.0"
"1573136375057","3088241.0"
"1573136375109","3079072.0"
"1573136375158","3060335.0"
"1573136375206","3046515.0"
"1573136375250","3039034.0"
"1573136375305","3033870.0"
"1573136375352","3030343.0"
"1573136375402","3024337.0"
"1573136375453","3013306.0"
"1573136375497","3004107.0"
"1573136375546","3000484.0"
"1573136375600","2995604.0"
"1573136375649","2997491.0"
"1573136375698","2998217.0"
"1573136375749","2994387.0"
"1573136375791","2979588.0"
"1573136375848","2961395.0"
"1573136375892","2952244.0"
"1573136375945","2949124.0"
"1573136375992","2945761.0"
"1573136376038","2942793.0"
"1573136376093","2936285.0"
"1573136376141","2935600.0"
"1573136376185","2929251.0"
"1573136376240","2930696.0"
"1573136376290","2933424.0"
"1573136376334","2937421.0"
"1573136376388","2938219.0"
"1573136376432","2939956.0"
"1573136376484","2940513.0"
"1573136376532","2925188.0"
"1573136376582","2907333.0"
"1573136376628","2900965.0"
"1573136376681","2894770.0"
"1573136376725","2893381.0"
"1573136376780","2887749.0"
"1573136376830","2884024.0"
"1573136376872","2877606.0"
"1573136376931","2874880.0"
"1573136376973","2875690.0"
"1573136377025","2876046.0"
"1573136377070","2879392.0"
"1573136377119","2881048.0"
"1573136377171","2884731.0"
"1573136377221","2887755.0"
"1573136377271","2891989.0"
"1573136377321","2881338.0"
"1573136377370","2863327.0"
"1573136377414","2854007.0"
"1573136377469","2850816.0"
"1573136377514","2851709.0"
"1573136377562","2849775.0"
"1573136377614","2847876.0"
"1573136377664","2841766.0"
"1573136377713","2840181.0"
"1573136377762","2840043.0"
"1573136377811","2843060.0"
"1573136377860","2847169.0"
"1573136377904","2849338.0"
"1573136377959","2854521.0"
"1573136378005","2857758.0"
"1573136378055","2859324.0"
"1573136378102","2856718.0"
"1573136378151","2839033.0"
"1573136378204","2823745.0"
"1573136378253","2816262.0"
"1573136378302","2818247.0"
"1573136378352","2816032.0"
"1573136378400","2812525.0"
"1573136378451","2807771.0"
"1573136378495","2804614.0"
"1573136378550","2804136.0"
"1573136378595","2807710.0"
"1573136378646","2810262.0"
"1573136378695","2814346.0"
"1573136378739","2814720.0"
"1573136378793","2818488.0"
"1573136378842","2821518.0"
"1573136378891","2823846.0"
"1573136378939","2812621.0"
"1573136378991","2799364.0"
"1573136379037","2795373.0"
"1573136379089","2795251.0"
"1573136379135","2799498.0"
"1573136379181","2797435.0"
"1573136379235","2795294.0"
"1573136379280","2794229.0"
"1573136379333","2792421.0"
"1573136379383","2794786.0"
"1573136379432","2797720.0"
"1573136379479","2802460.0"
"1573136379531","2808527.0"
"1573136379576","2811816.0"
"1573136379630","2819110.0"
"1573136379676","2818761.0"
"1573136379728","2806241.0"
"1573136379781","2795215.0"
"1573136379827","2792730.0"
"1573136379875","2790891.0"
"1573136379925","2796050.0"
"1573136379973","2797889.0"
"1573136380022","2792862.0"
"1573136380068","2791381.0"
"1573136380116","2791720.0"
"1573136380171","2792204.0"
"1573136380216","2796316.0"
"1573136380268","2800611.0"
"1573136380316","2802444.0"
"1573136380366","2807088.0"
"1573136380416","2808606.0"
"1573136380465","2791035.0"
"1573136380513","2780797.0"
"1573136380562","2778518.0"
"1573136380613","2781141.0"
"1573136380656","2783591.0"
"1573136380706","2782683.0"
"1573136380757","2781123.0"
"1573136380809","2779115.0"
"1573136380857","2784546.0"
"1573136380902","2791066.0"
"1573136380955","2797653.0"
"1573136381005","2806538.0"
"1573136381055","2809803.0"
"1573136381104","2816365.0"
"1573136381152","2819624.0"
"1573136381199","2803041.0"
"1573136381251","2789536.0"
"1573136381297","2787813.0"
"1573136381349","2789711.0"
"1573136381397","2792669.0"
"1573136381448","2793364.0"
"1573136381496","2791035.0"
"1573136381547","2790800.0"
"1573136381595","2792972.0"
"1573136381645","2795936.0"
"1573136381694","2801893.0"
"1573136381741","2807649.0"
"1573136381792","2813565.0"
"1573136381838","2820908.0"
"1573136381890","2823641.0"
"1573136381938","2810558.0"
"1573136381990","2796068.0"
"1573136382039","2787862.0"
"1573136382089","2787299.0"
"1573136382136","2788441.0"
"1573136382181","2785290.0"
"1573136382235","2779969.0"
"1573136382284","2775015.0"
"1573136382334","2775826.0"
"1573136382377","2776998.0"
"1573136382432","2778546.0"
"1573136382478","2780355.0"
"1573136382525","2779889.0"
"1573136382575","2783912.0"
"1573136382628","2786192.0"
"1573136382677","2780730.0"
"1573136382726","2764995.0"
"1573136382776","2756315.0"
"1573136382826","2754568.0"
"1573136382875","2756654.0"
"1573136382920","2757052.0"
"1573136382973","2756333.0"
"1573136383018","2751089.0"
"1573136383068","2751199.0"
"1573136383120","2751258.0"
"1573136383170","2754186.0"
"1573136383218","2757518.0"
"1573136383268","2760216.0"
"1573136383316","2763003.0"
"1573136383367","2759931.0"
"1573136383415","2746270.0"
"1573136383460","2735370.0"
"1573136383513","2725022.0"
"1573136383559","2720812.0"
"1573136383612","2720457.0"
"1573136383661","2717275.0"
"1573136383710","2717584.0"
"1573136383758","2714191.0"
"1573136383809","2714747.0"
"1573136383856","2715158.0"
"1573136383907","2717348.0"
"1573136383955","2718569.0"
"1573136383998","2722283.0"
"1573136384054","2718703.0"
"1573136384100","2697195.0"
"1573136384147","2674509.0"
"1573136384199","2660152.0"
"1573136384250","2653354.0"
"1573136384298","2647747.0"
"1573136384349","2642740.0"
"1573136384395","2634774.0"
"1573136384446","2627403.0"
"1573136384494","2624891.0"
"1573136384538","2623276.0"
"1573136384592","2621155.0"
"1573136384642","2620513.0"
"1573136384691","2623059.0"
"1573136384735","2625781.0"
"1573136384789","2622049.0"
"1573136384837","2601669.0"
"1573136384890","2584486.0"
"1573136384935","2576587.0"
"1573136384982","2570859.0"
"1573136385034","2565768.0"
"1573136385080","2560662.0"
"1573136385126","2552636.0"
"1573136385182","2546952.0"
"1573136385232","2547689.0"
"1573136385280","2550078.0"
"1573136385330","2552092.0"
"1573136385378","2555867.0"
"1573136385429","2560414.0"
"1573136385476","2562990.0"
"1573136385520","2563709.0"
"1573136385570","2546946.0"
"1573136385622","2531565.0"
"1573136385672","2526860.0"
"1573136385721","2533282.0"
"1573136385767","2544302.0"
"1573136385820","2552734.0"
"1573136385871","2557893.0"
"1573136385917","2559780.0"
"1573136385965","2564630.0"
"1573136386015","2571162.0"
"1573136386063","2579628.0"
"1573136386114","2587304.0"
"1573136386162","2593956.0"
"1573136386212","2599858.0"
"1573136386261","2605285.0"
"1573136386310","2592644.0"
"1573136386361","2576339.0"
"1573136386411","2568675.0"
"1573136386458","2566475.0"
"1573136386511","2569390.0"
"1573136386556","2568023.0"
"1573136386602","2566747.0"
"1573136386655","2564024.0"
"1573136386702","2568748.0"
"1573136386752","2571991.0"
"1573136386801","2577706.0"
"1573136386851","2587702.0"
"1573136386900","2591490.0"
"1573136386951","2597573.0"
"1573136386998","2601534.0"
"1573136387048","2606234.0"
"1573136387096","2604493.0"
"1573136387144","2586408.0"
"1573136387190","2569644.0"
"1573136387244","2562192.0"
"1573136387293","2557801.0"
"1573136387342","2558019.0"
"1573136387387","2554916.0"
"1573136387437","2552122.0"
"1573136387488","2549721.0"
"1573136387537","2549922.0"
"1573136387590","2554099.0"
"1573136387636","2557590.0"
"1573136387684","2562907.0"
"1573136387730","2570721.0"
"1573136387784","2575849.0"
"1573136387833","2582170.0"
"1573136387881","2587111.0"
"1573136387927","2591955.0"
"1573136387981","2575632.0"
"1573136388028","2561546.0"
"1573136388073","2556743.0"
"1573136388127","2558569.0"
"1573136388176","2558715.0"
"1573136388226","2560215.0"
"1573136388275","2556858.0"
"1573136388323","2555684.0"
"1573136388373","2557608.0"
"1573136388419","2562694.0"
"1573136388481","2569323.0"
"1573136388579","2578086.0"
"1573136388579","2585821.0"
"1573136388625","2592463.0"
"1573136388668","2599889.0"
"1573136388709","2606142.0"
"1573136388763","2599338.0"
"1573136388809","2586469.0"
"1573136388858","2583094.0"
"1573136388909","2583052.0"
"1573136388957","2586524.0"
"1573136389008","2591077.0"
"1573136389055","2594090.0"
"1573136389109","2593237.0"
"1573136389153","2595057.0"
"1573136389208","2599751.0"
"1573136389251","2607225.0"
"1573136389301","2614357.0"
"1573136389347","2621415.0"
"1573136389399","2630505.0"
"1573136389448","2637551.0"
"1573136389497","2646036.0"
"1573136389547","2649016.0"
"1573136389593","2636062.0"
"1573136389649","2624995.0"
"1573136389693","2623120.0"
"1573136389742","2626362.0"
"1573136389790","2630692.0"
"1573136389840","2634581.0"
"1573136389889","2633951.0"
"1573136389939","2635713.0"
"1573136389988","2640954.0"
"1573136390036","2649157.0"
"1573136390089","2655089.0"
"1573136390134","2663889.0"
"1573136390185","2673796.0"
"1573136390232","2682335.0"
"1573136390281","2690549.0"
"1573136390331","2699682.0"
"1573136390381","2694135.0"
"1573136390429","2684598.0"
"1573136390478","2679499.0"
"1573136390529","2683140.0"
"1573136390576","2688784.0"
"1573136390630","2692890.0"
"1573136390674","2694649.0"
"1573136390727","2696222.0"
"1573136390772","2699318.0"
"1573136390827","2704676.0"
"1573136390874","2709329.0"
"1573136390925","2718407.0"
"1573136390968","2726245.0"
"1573136391018","2733763.0"
"1573136391069","2740167.0"
"1573136391122","2744860.0"
"1573136391167","2735611.0"
"1573136391213","2728935.0"
"1573136391269","2730617.0"
"1573136391317","2734886.0"
"1573136391367","2740748.0"
"1573136391411","2747605.0"
"1573136391458","2752867.0"
"1573136391513","2761595.0"
"1573136391558","2777537.0"
"1573136391610","2789174.0"
"1573136391654","2802153.0"
"1573136391712","2820230.0"
"1573136391753","2834891.0"
"1573136391809","2843666.0"
"1573136391852","2858101.0"
"1573136391902","2857327.0"
"1573136391955","2851449.0"
"1573136392005","2846423.0"
"1573136392049","2845602.0"
"1573136392097","2847857.0"
"1573136392150","2850204.0"
"1573136392196","2850106.0"
"1573136392248","2845330.0"
"1573136392299","2843188.0"
"1573136392348","2845110.0"
"1573136392391","2845135.0"
"1573136392447","2848855.0"
"1573136392495","2850312.0"
"1573136392545","2853729.0"
"1573136392590","2854414.0"
"1573136392636","2854243.0"
"1573136392687","2834885.0"
"1573136392736","2822619.0"
"1573136392790","2816166.0"
"1573136392833","2813129.0"
"1573136392885","2814187.0"
"1573136392937","2809701.0"
"1573136392987","2805485.0"
"1573136393031","2802460.0"
"1573136393080","2802685.0"
"1573136393130","2804299.0"
"1573136393183","2808527.0"
"1573136393229","2810766.0"
"1573136393280","2816209.0"
"1573136393325","2819311.0"
"1573136393379","2814218.0"
"1573136393422","2799577.0"
"1573136393473","2790763.0"
"1573136393523","2789016.0"
"1573136393569","2790444.0"
"1573136393622","2792045.0"
"1573136393670","2789107.0"
"1573136393721","2785733.0"
"1573136393769","2785574.0"
"1573136393815","2785883.0"
"1573136393872","2790546.0"
"1573136393916","2794073.0"
"1573136393969","2797277.0"
"1573136394013","2802188.0"
"1573136394064","2802310.0"
"1573136394113","2785804.0"
"1573136394163","2777472.0"
"1573136394210","2773831.0"
"1573136394258","2772451.0"
"1573136394316","2772837.0"
"1573136394363","2774846.0"
"1573136394414","2771968.0"
"1573136394456","2771017.0"
"1573136394505","2772540.0"
"1573136394560","2774828.0"
"1573136394608","2779895.0"
"1573136394652","2781354.0"
"1573136394702","2786005.0"
"1573136394753","2791115.0"
"1573136394805","2781903.0"
"1573136394851","2765525.0"
"1573136394902","2756920.0"
"1573136394948","2751622.0"
"1573136394997","2752087.0"
"1573136395052","2748852.0"
"1573136395099","2746032.0"
"1573136395148","2740803.0"
"1573136395190","2739411.0"
"1573136395242","2739512.0"
"1573136395289","2742357.0"
"1573136395348","2744714.0"
"1573136395390","2748785.0"
"1573136395436","2751863.0"
"1573136395485","2756309.0"
"1573136395535","2749691.0"
"1573136395587","2733011.0"
"1573136395634","2722446.0"
"1573136395683","2715593.0"
"1573136395733","2714298.0"
"1573136395783","2713762.0"
"1573136395831","2709317.0"
"1573136395880","2702917.0"
"1573136395932","2700153.0"
"1573136395978","2697709.0"
"1573136396029","2697770.0"
"1573136396076","2698400.0"
"1573136396126","2701484.0"
"1573136396174","2703213.0"
"1573136396225","2703715.0"
"1573136396272","2688353.0"
"1573136396322","2673239.0"
"1573136396371","2663962.0"
"1573136396420","2662891.0"
"1573136396469","2662576.0"
"1573136396517","2661875.0"
"1573136396568","2657605.0"
"1573136396614","2653905.0"
"1573136396665","2651843.0"
"1573136396714","2652476.0"
"1573136396765","2654902.0"
"1573136396812","2657824.0"
"1573136396860","2662741.0"
"1573136396912","2665341.0"
"1573136396959","2656867.0"
"1573136397009","2639207.0"
"1573136397057","2628152.0"
"1573136397107","2622685.0"
"1573136397155","2620804.0"
"1573136397205","2619146.0"
"1573136397254","2614700.0"
"1573136397302","2610273.0"
"1573136397350","2607644.0"
"1573136397401","2608079.0"
"1573136397450","2609505.0"
"1573136397497","2614332.0"
"1573136397549","2617725.0"
"1573136397597","2622526.0"
"1573136397650","2621342.0"
"1573136397700","2607069.0"
"1573136397749","2593848.0"
"1573136397792","2587225.0"
"1573136397847","2586711.0"
"1573136397893","2585065.0"
"1573136397946","2582731.0"
"1573136397993","2577985.0"
"1573136398045","2575528.0"
"1573136398088","2575880.0"
"1573136398141","2580112.0"
"1573136398191","2586288.0"
"1573136398238","2592922.0"
"1573136398289","2598558.0"
"1573136398333","2602477.0"
"1573136398387","2592288.0"
"1573136398434","2582749.0"
"1573136398478","2582217.0"
"1573136398530","2584037.0"
"1573136398578","2589070.0"
"1573136398628","2589553.0"
"1573136398676","2589143.0"
"1573136398730","2589819.0"
"1573136398775","2592499.0"
"1573136398825","2597634.0"
"1573136398874","2603217.0"
"1573136398926","2609342.0"
"1573136398973","2618353.0"
"1573136399018","2615893.0"
"1573136399069","2601124.0"
"1573136399118","2590780.0"
"1573136399169","2587576.0"
"1573136399217","2586766.0"
"1573136399271","2587885.0"
"1573136399314","2588072.0"
"1573136399369","2583464.0"
"1573136399417","2583493.0"
"1573136399468","2584994.0"
"1573136399516","2587032.0"
"1573136399561","2593243.0"
"1573136399614","2596490.0"
"1573136399664","2600834.0"
"1573136399714","2606711.0"
"1573136399762","2595256.0"
"1573136399811","2580922.0"
"1573136399858","2569305.0"
"1573136399909","2567405.0"
"1573136399955","2564981.0"
"1573136400002","2565006.0"
"1573136400050","2563445.0"
"1573136400099","2559441.0"
"1573136400152","2558394.0"
"1573136400199","2560867.0"
"1573136400252","2567013.0"
"1573136400298","2571022.0"
"1573136400345","2575473.0"
"1573136400396","2580748.0"
"1573136400449","2586353.0"
"1573136400496","2588785.0"
"1573136400549","2577275.0"
"1573136400595","2564768.0"
"1573136400643","2559266.0"
"1573136400694","2558508.0"
"1573136400743","2560215.0"
"1573136400792","2560438.0"
"1573136400836","2557801.0"
"1573136400891","2557614.0"
"1573136400936","2559089.0"
"1573136400988","2562241.0"
"1573136401030","2567738.0"
"1573136401082","2572783.0"
"1573136401130","2579212.0"
"1573136401181","2582525.0"
"1573136401230","2588405.0"
"1573136401280","2577489.0"
"1573136401332","2561763.0"
"1573136401375","2555044.0"
"1573136401430","2555050.0"
"1573136401479","2561806.0"
"1573136401529","2565083.0"
"1573136401572","2568072.0"
"1573136401626","2567889.0"
"1573136401670","2572783.0"
"1573136401720","2577609.0"
"1573136401773","2584945.0"
"1573136401816","2592637.0"
"1573136401872","2597264.0"
"1573136401920","2604710.0"
"1573136401969","2612766.0"
"1573136402018","2619201.0"
"1573136402065","2611726.0"
"1573136402116","2597985.0"
"1573136402166","2591156.0"
"1573136402208","2589758.0"
"1573136402259","2590502.0"
"1573136402312","2594066.0"
"1573136402356","2591181.0"
"1573136402411","2594362.0"
"1573136402458","2594271.0"
"1573136402508","2598548.0"
"1573136402557","2605665.0"
"1573136402607","2612681.0"
"1573136402655","2618855.0"
"1573136402706","2627945.0"
"1573136402750","2635548.0"
"1573136402802","2643423.0"
"1573136402852","2650408.0"
"1573136402899","2646954.0"
"1573136402951","2639589.0"
"1573136402999","2638638.0"
"1573136403049","2641548.0"
"1573136403096","2648055.0"
"1573136403147","2653094.0"
"1573136403195","2655802.0"
"1573136403245","2658464.0"
"1573136403294","2662662.0"
"1573136403343","2671002.0"
"1573136403393","2679137.0"
"1573136403441","2688692.0"
"1573136403491","2697498.0"
"1573136403539","2705214.0"
"1573136403590","2714099.0"
"1573136403636","2717165.0"
"1573136403689","2711868.0"
"1573136403731","2708457.0"
"1573136403786","2709745.0"
"1573136403829","2715127.0"
"1573136403877","2720093.0"
"1573136403932","2723348.0"
"1573136403982","2728330.0"
"1573136404030","2730847.0"
"1573136404073","2736991.0"
"1573136404125","2744606.0"
"1573136404174","2752251.0"
"1573136404223","2759671.0"
"1573136404271","2767993.0"
"1573136404324","2775480.0"
"1573136404370","2782181.0"
"1573136404422","2779454.0"
"1573136404471","2773611.0"
"1573136404520","2774113.0"
"1573136404567","2773825.0"
"1573136404613","2777417.0"
"1573136404669","2782902.0"
"1573136404715","2785800.0"
"1573136404767","2786688.0"
"1573136404815","2792057.0"
"1573136404859","2797320.0"
"1573136404912","2804843.0"
"1573136404964","2813807.0"
"1573136405013","2820526.0"
"1573136405060","2828080.0"
"1573136405109","2835319.0"
"1573136405157","2836197.0"
"1573136405205","2831152.0"
"1573136405255","2829586.0"
"1573136405307","2828637.0"
"1573136405355","2834472.0"
"1573136405400","2837213.0"
"1573136405447","2840630.0"
"1573136405503","2841331.0"
"1573136405552","2844501.0"
"1573136405600","2846545.0"
"1573136405649","2852012.0"
"1573136405697","2857510.0"
"1573136405749","2862384.0"
"1573136405796","2866218.0"
"1573136405842","2868482.0"
"1573136405893","2862813.0"
"1573136405943","2856427.0"
"1573136405987","2855519.0"
"1573136406042","2854050.0"
"1573136406086","2860353.0"
"1573136406139","2864471.0"
"1573136406189","2867417.0"
"1573136406237","2868971.0"
"1573136406289","2871946.0"
"1573136406335","2882929.0"
"1573136406381","2893870.0"
"1573136406435","2896343.0"
"1573136406483","2904291.0"
"1573136406527","2901697.0"
"1573136406577","2893895.0"
"1573136406631","2884872.0"
"1573136406679","2881763.0"
"1573136406724","2880249.0"
"1573136406772","2880044.0"
"1573136406820","2877324.0"
"1573136406874","2871226.0"
"1573136406923","2868240.0"
"1573136406973","2864991.0"
"1573136407024","2863073.0"
"1573136407067","2865759.0"
"1573136407121","2868057.0"
"1573136407171","2868644.0"
"1573136407213","2859572.0"
"1573136407265","2848625.0"
"1573136407317","2844048.0"
"1573136407362","2845813.0"
"1573136407414","2847845.0"
"1573136407464","2852545.0"
"1573136407508","2852465.0"
"1573136407562","2849775.0"
"1573136407607","2844513.0"
"1573136407655","2832633.0"
"1573136407709","2824397.0"
"1573136407856","2805219.0"
"1573136407857","2800495.0"
"1573136407873","2790958.0"
"1573136407980","2794520.0"
"1573136407980","2799201.0"
"1573136408017","2798748.0"
"1573136408053","2822739.0"
"1573136408102","2890199.0"
"1573136408147","2997024.0"
"1573136408195","3088585.0"
"1573136408246","3170468.0"
"1573136408298","3129638.0"
"1573136408345","3066177.0"
"1573136408396","3071561.0"
"1573136408446","3094263.0"
"1573136408494","3091307.0"
"1573136408542","2824057.0"
"1573136408591","2778384.0"
"1573136408640","2740638.0"
"1573136408687","2692725.0"
"1573136408734","2666731.0"
"1573136408785","2640418.0"
"1573136408837","2614357.0"
"1573136408884","2591924.0"
"1573136408935","2577385.0"
"1573136408985","2584303.0"
"1573136409033","2584510.0"
"1573136409079","2572734.0"
"1573136409131","2607124.0"
"1573136409180","2626846.0"
"1573136409226","2658084.0"
"1573136409278","2732704.0"
"1573136409325","2784384.0"
"1573136409377","2829230.0"
"1573136409429","2859893.0"
"1573136409475","2887265.0"
"1573136409525","2891934.0"
"1573136409570","2904334.0"
"1573136409622","2885833.0"
"1573136409671","2900051.0"
"1573136409721","2894149.0"
"1573136409766","2885258.0"
"1573136409820","2885989.0"
"1573136409866","2878551.0"
"1573136409917","2867283.0"
"1573136409967","2857945.0"
"1573136410008","2841827.0"
"1573136410059","2836246.0"
"1573136410109","2848438.0"
"1573136410158","2849889.0"
"1573136410207","2816741.0"
"1573136410254","2764062.0"
"1573136410311","2713815.0"
"1573136410359","2718908.0"
"1573136410413","2683611.0"
"1573136410452","2689576.0"
"1573136410507","2717318.0"
"1573136410554","2669895.0"
"1573136410604","2663350.0"
"1573136410647","2669151.0"
"1573136410695","2684103.0"
"1573136410752","2712340.0"
"1573136410795","2725239.0"
"1573136410851","2722421.0"
"1573136410898","2676549.0"
"1573136410953","2728892.0"
"1573136410996","2786143.0"
"1573136411047","2802885.0"
"1573136411090","2792057.0"
"1573136411138","2798565.0"
"1573136411186","2787244.0"
"1573136411236","2775789.0"
"1573136411286","2765683.0"
"1573136411336","2742786.0"
"1573136411391","2706383.0"
"1573136411439","2683993.0"
"1573136411492","2648951.0"
"1573136411537","2644886.0"
"1573136411587","2626822.0"
"1573136411634","2617411.0"
"1573136411685","2608514.0"
"1573136411729","2594369.0"
"1573136411782","2586341.0"
"1573136411829","2578643.0"
"1573136411875","2563195.0"
"1573136411927","2527223.0"
"1573136411978","2495597.0"
"1573136412029","2473541.0"
"1573136412073","2454146.0"
"1573136412127","2444306.0"
"1573136412171","2429911.0"
"1573136412218","2413854.0"
"1573136412267","2401170.0"
"1573136412321","2390678.0"
"1573136412370","2384709.0"
"1573136412415","2377100.0"
"1573136412471","2357420.0"
"1573136412518","2331479.0"
"1573136412564","2311860.0"
"1573136412616","2301228.0"
"1573136412666","2298554.0"
"1573136412715","2296813.0"
"1573136412763","2291218.0"
"1573136412806","2290740.0"
"1573136412860","2287778.0"
"1573136412911","2291890.0"
"1573136412954","2295779.0"
"1573136413008","2299800.0"
"1573136413057","2287729.0"
"1573136413102","2276183.0"
"1573136413156","2272264.0"
"1573136413199","2272481.0"
"1573136413251","2275718.0"
"1573136413414","2280259.0"
"1573136413414","2284413.0"
"1573136413415","2288054.0"
"1573136413454","2291025.0"
"1573136413585","2299662.0"
"1573136413585","2306054.0"
"1573136413610","2321761.0"
"1573136413848","2362760.0"
"1573136413848","2418330.0"
"1573136413848","2480363.0"
"1573136413848","2553465.0"
"1573136413849","2610521.0"
"1573136413970","2662310.0"
"1573136413970","2702663.0"
"1573136413991","2737765.0"
"1573136414038","2770769.0"
"1573136414084","2808829.0"
"1573136414137","2849284.0"
"1573136414187","2887507.0"
"1573136414235","2936417.0"
"1573136414284","2975270.0"
"1573136414333","3032169.0"
"1573136414381","3091356.0"
"1573136414434","3139902.0"
"1573136414480","3200666.0"
"1573136414530","3255352.0"
"1573136414573","3305242.0"
"1573136414629","3332634.0"
"1573136414676","3355804.0"
"1573136414726","3376197.0"
"1573136414769","3400661.0"
"1573136414824","3419603.0"
"1573136414872","3436810.0"
"1573136414921","3458547.0"
"1573136414971","3473794.0"
"1573136415020","3485696.0"
"1573136415066","3503006.0"
"1573136415117","3520479.0"
"1573136415168","3535876.0"
"1573136415211","3530922.0"
"1573136415266","3534787.0"
"1573136415311","3567459.0"
"1573136415363","3587817.0"
"1573136415411","3607690.0"
"1573136415460","3664664.0"
"1573136415510","3677958.0"
"1573136415559","3688212.0"
"1573136415608","3708793.0"
"1573136415656","3722733.0"
"1573136415704","3746933.0"
"1573136415749","3758220.0"
"1573136415805","3767598.0"
"1573136415852","3765800.0"
"1573136415902","3773230.0"
"1573136415952","3789838.0"
"1573136416001","3790512.0"
"1573136416051","3798753.0"
"1573136416094","3791471.0"
"1573136416149","3832212.0"
"1573136416194","3841529.0"
"1573136416247","3827598.0"
"1573136416291","3825005.0"
"1573136416343","3828311.0"
"1573136416392","3813087.0"
"1573136416441","3804385.0"
"1573136416492","3799438.0"
"1573136416540","3782243.0"
"1573136416589","3771617.0"
"1573136416633","3757232.0"
"1573136416690","3747795.0"
"1573136416732","3737327.0"
"1573136416786","3720868.0"
"1573136416835","3709381.0"
"1573136416883","3706394.0"
"1573136416933","3699484.0"
"1573136416977","3689585.0"
"1573136417032","3679837.0"
"1573136417075","3670326.0"
"1573136417130","3670016.0"
"1573136417174","3676344.0"
"1573136417224","3673849.0"
"1573136417270","3659286.0"
"1573136417325","3641616.0"
"1573136417373","3632060.0"
"1573136417423","3626621.0"
"1573136417473","3619175.0"
"1573136417521","3624645.0"
"1573136417567","3622816.0"
"1573136417620","3654359.0"
"1573136417670","3679437.0"
"1573136417712","3697538.0"
"1573136417768","3702158.0"
"1573136417811","3695916.0"
"1573136417859","3676204.0"
"1573136417913","3647315.0"
"1573136417964","3623308.0"
"1573136418012","3604024.0"
"1573136418062","3614063.0"
"1573136418106","3638895.0"
"1573136418157","3625262.0"
"1573136418209","3602086.0"
"1573136418251","3603921.0"
"1573136418301","3594455.0"
"1573136418353","3575255.0"
"1573136418400","3551144.0"
"1573136418450","3524238.0"
"1573136418497","3489605.0"
"1573136418552","3459468.0"
"1573136418601","3469202.0"
"1573136418650","3434924.0"
"1573136418697","3431566.0"
"1573136418748","3435422.0"
"1573136418794","3470175.0"
"1573136418846","3486803.0"
"1573136418894","3498477.0"
"1573136418943","3516919.0"
"1573136418993","3533547.0"
"1573136419042","3546150.0"
"1573136419093","3561673.0"
"1573136419141","3593459.0"
"1573136419190","3657986.0"
"1573136419235","3718802.0"
"1573136419287","3751838.0"
"1573136419338","3745775.0"
"1573136419386","3742677.0"
"1573136419435","3745054.0"
"1573136419479","3755457.0"
"1573136419532","3757775.0"
"1573136419577","3755635.0"
"1573136419631","3757196.0"
"1573136419677","3755107.0"
"1573136419730","3754327.0"
"1573136419775","3753465.0"
"1573136419829","3752179.0"
"1573136419874","3750278.0"
"1573136419925","3747202.0"
"1573136419973","3744170.0"
"1573136420022","3743158.0"
"1573136420068","3747610.0"
"1573136420121","3746153.0"
"1573136420171","3737148.0"
"1573136420214","3729710.0"
"1573136420268","3720013.0"
"1573136420316","3693643.0"
"1573136420368","3654633.0"
"1573136420414","3620551.0"
"1573136420465","3624460.0"
"1573136420514","3620721.0"
"1573136420562","3602919.0"
"1573136420612","3603126.0"
"1573136420657","3638651.0"
"1573136420710","3768667.0"
"1573136420755","3825704.0"
"1573136420807","3869350.0"
"1573136420855","3833059.0"
"1573136420906","3804119.0"
"1573136420954","3787296.0"
"1573136421004","3636272.0"
"1573136421052","3482376.0"
"1573136421095","3378974.0"
"1573136421152","3329785.0"
"1573136421195","3297448.0"
"1573136421250","3267577.0"
"1573136421296","3213960.0"
"1573136421348","3163745.0"
"1573136421396","3135865.0"
"1573136421445","3090964.0"
"1573136421494","3060254.0"
"1573136421543","3031753.0"
"1573136421592","2997008.0"
"1573136421635","2973015.0"
"1573136421687","2951564.0"
"1573136421736","2922510.0"
"1573136421788","2901445.0"
"1573136421836","2876501.0"
"1573136421887","2850287.0"
"1573136421935","2828101.0"
"1573136421985","2804293.0"
"1573136422033","2783488.0"
"1573136422080","2756323.0"
"1573136422127","2723443.0"
"1573136422181","2693052.0"
"1573136422225","2668785.0"
"1573136422277","2646836.0"
"1573136422327","2629329.0"
"1573136422376","2607626.0"
"1573136422427","2589458.0"
"1573136422474","2570571.0"
"1573136422524","2552210.0"
"1573136422569","2538739.0"
"1573136422616","2513712.0"
"1573136422671","2484563.0"
"1573136422718","2458900.0"
"1573136422769","2444314.0"
"1573136422817","2434029.0"
"1573136422868","2418551.0"
"1573136422915","2405934.0"
"1573136422966","2393496.0"
"1573136423014","2382908.0"
"1573136423063","2377305.0"
"1573136423112","2338102.0"
"1573136423156","2315184.0"
"1573136423211","2295320.0"
"1573136423257","2280346.0"
"1573136423302","2275620.0"
"1573136423353","2269693.0"
"1573136423403","2264775.0"
"1573136423451","2258651.0"
"1573136423501","2254128.0"
"1573136423553","2252846.0"
"1573136423601","2252686.0"
"1573136423652","2248708.0"
"1573136423698","2237624.0"
"1573136423749","2225123.0"
"1573136423793","2218721.0"
"1573136423985","2218063.0"
"1573136424011","2216829.0"
"1573136424149","2218412.0"
"1573136424149","2221539.0"
"1573136424149","2226523.0"
"1573136424201","2230221.0"
"1573136424240","2222634.0"
"1573136424289","2213760.0"
"1573136424338","2212679.0"
"1573136424388","2215003.0"
"1573136424435","2219121.0"
"1573136424487","2222628.0"
"1573136424534","2224493.0"
"1573136424582","2225893.0"
"1573136424632","2230664.0"
"1573136424679","2235582.0"
"1573136424726","2243141.0"
"1573136424779","2245254.0"
"1573136424828","2239240.0"
"1573136424876","2236700.0"
"1573136424927","2237330.0"
"1573136425149","2239095.0"
"1573136425149","2243317.0"
"1573136425150","2248082.0"
"1573136425150","2253604.0"
"1573136425180","2257438.0"
"1573136425286","2265211.0"
"1573136425286","2269639.0"
"1573136425319","2278991.0"
"1573136425363","2281746.0"
"1573136425412","2277973.0"
"1573136425463","2276406.0"
"1573136425509","2280076.0"
"1573136425558","2282654.0"
"1573136425612","2287477.0"
"1573136425661","2291905.0"
"1573136425711","2297179.0"
"1573136425759","2303270.0"
"1573136425809","2309103.0"
"1573136425857","2317236.0"
"1573136425909","2325530.0"
"1573136425954","2331274.0"
"1573136426006","2336298.0"
"1573136426054","2332834.0"
"1573136426105","2332048.0"
"1573136426153","2333681.0"
"1573136426202","2337627.0"
"1573136426250","2342966.0"
"1573136426300","2345140.0"
"1573136426349","2347973.0"
"1573136426397","2353373.0"
"1573136426448","2360240.0"
"1573136426496","2367262.0"
"1573136426544","2374582.0"
"1573136426593","2379812.0"
"1573136426646","2385267.0"
"1573136426693","2389723.0"
"1573136426736","2391958.0"
"1573136426910","2389030.0"
"1573136426911","2390414.0"
"1573136426911","2392760.0"
"1573136426947","2395261.0"
"1573136427067","2398431.0"
"1573136427067","2402249.0"
"1573136427101","2405038.0"
"1573136427136","2409498.0"
"1573136427182","2413637.0"
"1573136427228","2418710.0"
"1573136427283","2422109.0"
"1573136427332","2428858.0"
"1573136427380","2433369.0"
"1573136427430","2438956.0"
"1573136427478","2441679.0"
"1573136427528","2448475.0"
"1573136427569","2449304.0"
"1573136427621","2448623.0"
"1573136427674","2449021.0"
"1573136427724","2452364.0"
"1573136427774","2453857.0"
"1573136427821","2458384.0"
"1573136427871","2460548.0"
"1573136427920","2464201.0"
"1573136427969","2466208.0"
"1573136428017","2469124.0"
"1573136428066","2474038.0"
"1573136428115","2479045.0"
"1573136428163","2483006.0"
"1573136428214","2488159.0"
"1573136428263","2493582.0"
"1573136428314","2494086.0"
"1573136428360","2496873.0"
"1573136428411","2497007.0"
"1573136428459","2496780.0"
"1573136428509","2499685.0"
"1573136428556","2503082.0"
"1573136428603","2504504.0"
"1573136428650","2508111.0"
"1573136428704","2510043.0"
"1573136428752","2510098.0"
"1573136428801","2512981.0"
"1573136428851","2516079.0"
"1573136428899","2518802.0"
"1573136428945","2519537.0"
"1573136428997","2521358.0"
"1573136429044","2526526.0"
"1573136429095","2525576.0"
"1573136429146","2527108.0"
"1573136429188","2523566.0"
"1573136429236","2523389.0"
"1573136429286","2524164.0"
"1573136429337","2525580.0"
"1573136429385","2525175.0"
"1573136429435","2526195.0"
"1573136429484","2526835.0"
"1573136429537","2527788.0"
"1573136429585","2528601.0"
"1573136429635","2529824.0"
"1573136429684","2532951.0"
"1573136429729","2533211.0"
"1573136429782","2537754.0"
"1573136429832","2539767.0"
"1573136429881","2539209.0"
"1573136429929","2534036.0"
"1573136429978","2532701.0"
"1573136430026","2533908.0"
"1573136430073","2535767.0"
"1573136430125","2536547.0"
"1573136430186","2536547.0"
"1573136430226","2535777.0"
"1573136430274","2536399.0"
"1573136430323","2536515.0"
"1573136430366","2540637.0"
"1573136430421","2541478.0"
"1573136430466","2541677.0"
"1573136430519","2544140.0"
"1573136430567","2545533.0"
"1573136430617","2546446.0"
"1573136430669","2542114.0"
"1573136430715","2541350.0"
"1573136430764","2542169.0"
"1573136430917","2551842.0"
"1573136430917","2573787.0"
"1573136430917","2660614.0"
"1573136431031","2831154.0"
"1573136431031","2916429.0"
"1573136431073","2959786.0"
"1573136431112","3000905.0"
"1573136431157","3019966.0"
"1573136431206","3034691.0"
"1573136431254","3068942.0"
"1573136431304","3109589.0"
"1573136431347","3120920.0"
"1573136431402","3134006.0"
"1573136431446","3145770.0"
"1573136431500","3163389.0"
"1573136431552","3167644.0"
"1573136431597","3171998.0"
"1573136431648","3175755.0"
"1573136431695","3198602.0"
"1573136431746","3206233.0"
"1573136431793","3217123.0"
"1573136431843","3221002.0"
"1573136431889","3225029.0"
"1573136431941","3229626.0"
"1573136431994","3229533.0"
"1573136432039","3232002.0"
"1573136432094","3240230.0"
"1573136432132","3244180.0"
"1573136432188","3247378.0"
"1573136432230","3249972.0"
"1573136432286","3251390.0"
"1573136432332","3281052.0"
"1573136432382","3287314.0"
"1573136432428","3299510.0"
"1573136432480","3315848.0"
"1573136432532","3327010.0"
"1573136432574","3332833.0"
"1573136432622","3342075.0"
"1573136432676","3368082.0"
"1573136432722","3390187.0"
"1573136432775","3402449.0"
"1573136432824","3424148.0"
"1573136432867","3453368.0"
"1573136432922","3473814.0"
"1573136432967","3456670.0"
"1573136433014","3429109.0"
"1573136433068","3394293.0"
"1573136433118","3362907.0"
"1573136433167","3322142.0"
"1573136433215","3285747.0"
"1573136433266","3266716.0"
"1573136433314","3245718.0"
"1573136433363","3218178.0"
"1573136433407","3179721.0"
"1573136433455","3147574.0"
"1573136433510","3117886.0"
"1573136433560","3093946.0"
"1573136433610","3074236.0"
"1573136433653","3054524.0"
"1573136433707","3036046.0"
"1573136433756","3018055.0"
"1573136433806","3006492.0"
"1573136433850","2995423.0"
"1573136433903","2988208.0"
"1573136433950","2975191.0"
"1573136434001","2960735.0"
"1573136434047","2935629.0"
"1573136434099","2915671.0"
"1573136434149","2896707.0"
"1573136434197","2881822.0"
"1573136434241","2870534.0"
"1573136434291","2855515.0"
"1573136434340","2841740.0"
"1573136434387","2826656.0"
"1573136434439","2819200.0"
"1573136434489","2807730.0"
"1573136434674","2797348.0"
"1573136434674","2792486.0"
"1573136434675","2782464.0"
"1573136434700","2761252.0"
"1573136434830","2741347.0"
"1573136434830","2723777.0"
"1573136434844","2708713.0"
"1573136434882","2699885.0"
"1573136434929","2690062.0"
"1573136434982","2675978.0"
"1573136435030","2665195.0"
"1573136435076","2658062.0"
"1573136435126","2649246.0"
"1573136435176","2642003.0"
"1573136435227","2636275.0"
"1573136435276","2630727.0"
"1573136435327","2626393.0"
"1573136435368","2613396.0"
"1573136435424","2598666.0"
"1573136435469","2584336.0"
"1573136435521","2576420.0"
"1573136435567","2569380.0"
"1573136435619","2564731.0"
"1573136435670","2555475.0"
"1573136435717","2548520.0"
"1573136435768","2543652.0"
"1573136435814","2539073.0"
"1573136435867","2538485.0"
"1573136435909","2541413.0"
"1573136435963","2550141.0"
"1573136436011","2560243.0"
"1573136436062","2562803.0"
"1573136436111","2562058.0"
"1573136436160","2552269.0"
"1573136436203","2534418.0"
"1573136436438","2586609.0"
"1573136436438","2588891.0"
"1573136436438","2591664.0"
"1573136436439","2615450.0"
"1573136436470","2640164.0"
"1573136436566","2673064.0"
"1573136436566","2705672.0"
"1573136436600","2730138.0"
"1573136436651","2755651.0"
"1573136436699","2786492.0"
"1573136436743","2808078.0"
"1573136436792","2823381.0"
"1573136436847","2831329.0"
"1573136436892","2815953.0"
"1573136436944","2787445.0"
"1573136436992","2774763.0"
"1573136437041","2796535.0"
"1573136437094","2818180.0"
"1573136437135","2840118.0"
"1573136437190","2856009.0"
"1573136437233","2870692.0"
"1573136437283","2917290.0"
"1573136437337","2965122.0"
"1573136437387","2995957.0"
"1573136437434","3076150.0"
"1573136437484","3182309.0"
"1573136437533","3253052.0"
"1573136437578","3310774.0"
"1573136437631","3345655.0"
"1573136437674","3391079.0"
"1573136437731","3427862.0"
"1573136437773","3452954.0"
"1573136437824","3477501.0"
"1573136437871","3508134.0"
"1573136437927","3544210.0"
"1573136437973","3563268.0"
"1573136438024","3584694.0"
"1573136438069","3607580.0"
"1573136438122","3630086.0"
"1573136438173","3666115.0"
"1573136438221","3684439.0"
"1573136438271","3692420.0"
"1573136438319","3694067.0"
"1573136438367","3702156.0"
"1573136438411","3702515.0"
"1573136438467","3711404.0"
"1573136438513","3713139.0"
"1573136438563","3718227.0"
"1573136438612","3714031.0"
"1573136438661","3702503.0"
"1573136438711","3689933.0"
"1573136438753","3682657.0"
"1573136438809","3666106.0"
"1573136438851","3626357.0"
"1573136438908","3592289.0"
"1573136438953","3557747.0"
"1573136439005","3555813.0"
"1573136439053","3545831.0"
"1573136439104","3539929.0"
"1573136439147","3604085.0"
"1573136439201","3554946.0"
"1573136439246","3485897.0"
"1573136439295","3459169.0"
"1573136439349","3433069.0"
"1573136439394","3379157.0"
"1573136439446","3318188.0"
"1573136439495","3302184.0"
"1573136439544","3286668.0"
"1573136439593","3249873.0"
"1573136439641","3231041.0"
"1573136439691","3211048.0"
"1573136439734","3191318.0"
"1573136439789","3161744.0"
"1573136439836","3133411.0"
"1573136439887","3121253.0"
"1573136439937","3105076.0"
"1573136439985","3097660.0"
"1573136440033","3120060.0"
"1573136440080","3130817.0"
"1573136440133","3123334.0"
"1573136440181","3123982.0"
"1573136440230","3124748.0"
"1573136440272","3116665.0"
"1573136440327","3117165.0"
"1573136440374","3126922.0"
"1573136440428","3085899.0"
"1573136440474","3044736.0"
"1573136440524","3042696.0"
"1573136440568","3056190.0"
"1573136440622","3133190.0"
"1573136440672","3178235.0"
"1573136440721","3129016.0"
"1573136440770","3087272.0"
"1573136440817","3030651.0"
"1573136440871","2996323.0"
"1573136440915","2974197.0"
"1573136440966","2949026.0"
"1573136441014","2954794.0"
"1573136441063","2914070.0"
"1573136441112","2838198.0"
"1573136441161","2773002.0"
"1573136441211","2752398.0"
"1573136441254","2731526.0"
"1573136441309","2706627.0"
"1573136441358","2683294.0"
"1573136441407","2664716.0"
"1573136441455","2651406.0"
"1573136441505","2637643.0"
"1573136441554","2621712.0"
"1573136441601","2594393.0"
"1573136441651","2571572.0"
"1573136441695","2554136.0"
"1573136441750","2538638.0"
"1573136441797","2527689.0"
"1573136441843","2542106.0"
"1573136441896","2555790.0"
"1573136441946","2555296.0"
"1573136441994","2550048.0"
"1573136442044","2536151.0"
"1573136442093","2531470.0"
"1573136442137","2524155.0"
"1573136442191","2513499.0"
"1573136442239","2498188.0"
"1573136442288","2489593.0"
"1573136442337","2483846.0"
"1573136442388","2477970.0"
"1573136442435","2492294.0"
"1573136442485","2542512.0"
"1573136442533","2627226.0"
"1573136442580","2607949.0"
"1573136442628","2558563.0"
"1573136442677","2529529.0"
"1573136442724","2523721.0"
"1573136442777","2519808.0"
"1573136442823","2513379.0"
"1573136442870","2499675.0"
"1573136442921","2485892.0"
"1573136442971","2468341.0"
"1573136443017","2445482.0"
"1573136443069","2428751.0"
"1573136443118","2413722.0"
"1573136443168","2406040.0"
"1573136443216","2397990.0"
"1573136443265","2395629.0"
"1573136443313","2395956.0"
"1573136443363","2397444.0"
"1573136443411","2393096.0"
"1573136443461","2396190.0"
"1573136443510","2393183.0"
"1573136443559","2387468.0"
"1573136443608","2375092.0"
"1573136443656","2367644.0"
"1573136443706","2358568.0"
"1573136443755","2353507.0"
"1573136443803","2347339.0"
"1573136443852","2342918.0"
"1573136443903","2339791.0"
"1573136443951","2335081.0"
"1573136444000","2331402.0"
"1573136444049","2327419.0"
"1573136444099","2328754.0"
"1573136444147","2333242.0"
"1573136444198","2338897.0"
"1573136444245","2340250.0"
"1573136444293","2343050.0"
"1573136444343","2362396.0"
"1573136444391","2382634.0"
"1573136444442","2403466.0"
"1573136444489","2453684.0"
"1573136444539","2518668.0"
"1573136444588","2573466.0"
"1573136444639","2596965.0"
"1573136444686","2572966.0"
"1573136444736","2586404.0"
"1573136444784","2557862.0"
"1573136444833","2510791.0"
"1573136444885","2488500.0"
"1573136444930","2482584.0"
"1573136444981","2472669.0"
"1573136445029","2467301.0"
"1573136445078","2463134.0"
"1573136445127","2464347.0"
"1573136445175","2463459.0"
"1573136445225","2465233.0"
"1573136445278","2462246.0"
"1573136445324","2467614.0"
"1573136445370","2471929.0"
"1573136445428","2462845.0"
"1573136445475","2458225.0"
