time,value,value2,value3
1577711582816,5004818.0,6384994.0,0.0
1577711582871,5005724.0,6397920.0,0.0
1577711582916,5008018.0,6390738.0,0.0
1577711582967,5004310.0,6394360.0,0.0
1577711583013,5000374.0,6392978.0,0.0
1577711583065,4979344.0,6379592.0,0.0
1577711583111,4932284.0,6316432.0,0.0
1577711583163,4914407.0,6290445.0,0.0
1577711583211,4890605.0,6269224.0,0.0
1577711583267,4853020.0,6238949.0,0.0
1577711583321,4818828.0,6194992.0,0.0
1577711583365,4802545.0,6171306.0,0.0
1577711583476,4780294.0,6151997.0,0.0
1577711583476,4778168.0,6152621.0,0.0
1577711583581,4776742.0,6151909.0,0.0
1577711583582,4773069.0,6141357.0,0.0
1577711583604,4766600.0,6137973.0,0.0
1577711583650,4763751.0,6141861.0,0.0
1577711583704,4762235.0,6146773.0,0.0
1577711583751,4763073.0,6148970.0,0.0
1577711583801,4763694.0,6150914.0,0.0
1577711583854,4768737.0,6162802.0,0.0
1577711583898,4782216.0,6171869.0,0.0
1577711583952,4782203.0,6143925.0,0.0
1577711583997,4763174.0,6123445.0,0.0
1577711584047,4753834.0,6117730.0,0.0
1577711584095,4755813.0,6127629.0,0.0
1577711584146,4753485.0,6135896.0,0.0
1577711584193,4752400.0,6136104.0,0.0
1577711584241,4750589.0,6143330.0,0.0
1577711584293,4742359.0,6149104.0,0.0
1577711584344,4727669.0,6152026.0,0.0
1577711584395,4747570.0,6161645.0,0.0
1577711584441,4779152.0,6189856.0,0.0
1577711584490,4811422.0,6214581.0,0.0
1577711584537,4827387.0,6193373.0,0.0
1577711584587,4835642.0,6188341.0,0.0
1577711584635,4839249.0,6178992.0,0.0
1577711584687,4842449.0,6177346.0,0.0
1577711584734,4819925.0,6169525.0,0.0
1577711584784,4836195.0,6202560.0,0.0
1577711584830,4840187.0,6190554.0,0.0
1577711584882,4827207.0,6188016.0,0.0
1577711584933,4816284.0,6190850.0,0.0
1577711584980,4817391.0,6211925.0,0.0
1577711585030,4823724.0,6220888.0,0.0
1577711585077,4836851.0,6241397.0,0.0
1577711585127,4856685.0,6268496.0,0.0
1577711585176,4848329.0,6243192.0,0.0
1577711585226,4874187.0,6255288.0,0.0
1577711585276,4906628.0,6279434.0,0.0
1577711585328,4910766.0,6302392.0,0.0
1577711585374,4919517.0,6318925.0,0.0
1577711585426,4854808.0,6270589.0,0.0
1577711585477,4869800.0,6295298.0,0.0
1577711585518,4891385.0,6318389.0,0.0
1577711585572,4892651.0,6318168.0,0.0
1577711585615,4915616.0,6333616.0,0.0
1577711585670,4907861.0,6322010.0,0.0
1577711585718,4903745.0,6305493.0,0.0
1577711585769,4906469.0,6298624.0,0.0
1577711585811,4919472.0,6298725.0,0.0
1577711585861,4917471.0,6303682.0,0.0
1577711585913,4910043.0,6319637.0,0.0
1577711585958,4883076.0,6326181.0,0.0
1577711586011,4890650.0,6339685.0,0.0
1577711586056,4860619.0,6333053.0,0.0
1577711586107,4883504.0,6360048.0,0.0
1577711586155,4902682.0,6379800.0,0.0
1577711586205,4903779.0,6389594.0,0.0
1577711586253,4892800.0,6388586.0,0.0
1577711586304,4866996.0,6354912.0,0.0
1577711586352,4872886.0,6344464.0,0.0
1577711586404,4900059.0,6374592.0,0.0
1577711586453,4924550.0,6390826.0,0.0
1577711586500,4939960.0,6398693.0,0.0
1577711586553,4942843.0,6416322.0,0.0
1577711586599,4967155.0,6455666.0,0.0
1577711586649,4972808.0,6453989.0,0.0
1577711586698,4905463.0,6413725.0,0.0
1577711586750,4933820.0,6448170.0,0.0
1577711586797,4943794.0,6452698.0,0.0
1577711586863,4939215.0,6423136.0,0.0
1577711586893,4927737.0,6397312.0,0.0
1577711586948,4912473.0,6385944.0,0.0
1577711586998,4921055.0,6402165.0,0.0
1577711587045,4941092.0,6424752.0,0.0
1577711587094,4950645.0,6436610.0,0.0
1577711587144,4969506.0,6434621.0,0.0
1577711587188,5017539.0,6487752.0,0.0
1577711587237,5046633.0,6503258.0,0.0
1577711587292,5047074.0,6491237.0,0.0
1577711587341,5042415.0,6469482.0,0.0
1577711587395,5020570.0,6425168.0,0.0
1577711587440,5012540.0,6403605.0,0.0
1577711587487,5020342.0,6415256.0,0.0
1577711587539,5031877.0,6420048.0,0.0
1577711587585,5021643.0,6415834.0,0.0
1577711587634,5028033.0,6432173.0,0.0
1577711587683,5024075.0,6430704.0,0.0
1577711587733,5039485.0,6452520.0,0.0
1577711587782,5044077.0,6454938.0,0.0
1577711587831,5040436.0,6456096.0,0.0
1577711587884,5031344.0,6449656.0,0.0
1577711587930,5018467.0,6416072.0,0.0
1577711587976,5014792.0,6399389.0,0.0
1577711588028,5009704.0,6388720.0,0.0
1577711588073,5015165.0,6402698.0,0.0
1577711588122,5019473.0,6415477.0,0.0
1577711588171,5016781.0,6410802.0,0.0
1577711588220,5018002.0,6413904.0,0.0
1577711588270,5012033.0,6414690.0,0.0
1577711588322,5012124.0,6423728.0,0.0
1577711588368,5020038.0,6440557.0,0.0
1577711588423,5006742.0,6417970.0,0.0
1577711588472,4993444.0,6392861.0,0.0
1577711588515,4982623.0,6378613.0,0.0
1577711588562,4984691.0,6389032.0,0.0
1577711588614,4984263.0,6390722.0,0.0
1577711588666,4986026.0,6394864.0,0.0
1577711588715,4970536.0,6397208.0,0.0
1577711588764,4974120.0,6399584.0,0.0
1577711588814,4973261.0,6409496.0,0.0
1577711588862,4971971.0,6413874.0,0.0
1577711588913,4971666.0,6425480.0,0.0
1577711588954,4963921.0,6403130.0,0.0
1577711589011,4947762.0,6373984.0,0.0
1577711589060,4944134.0,6379682.0,0.0
1577711589109,4939148.0,6384045.0,0.0
1577711589156,4941171.0,6392312.0,0.0
1577711589205,4942539.0,6404272.0,0.0
1577711589255,4948384.0,6409557.0,0.0
1577711589303,4948396.0,6409066.0,0.0
1577711589356,4948114.0,6421517.0,0.0
1577711589396,4951552.0,6432277.0,0.0
1577711589452,4946722.0,6429488.0,0.0
1577711589500,4929763.0,6396616.0,0.0
1577711589550,4917674.0,6386448.0,0.0
1577711589599,4912180.0,6387888.0,0.0
1577711589648,4916973.0,6402552.0,0.0
1577711589697,4921553.0,6425613.0,0.0
1577711589745,4926291.0,6430080.0,0.0
1577711589795,4925137.0,6429397.0,0.0
1577711589848,4925342.0,6439741.0,0.0
1577711589894,4926392.0,6447725.0,0.0
1577711589942,4931289.0,6459122.0,0.0
1577711589992,4928258.0,6446405.0,0.0
1577711590039,4907849.0,6425360.0,0.0
1577711590089,4900601.0,6413325.0,0.0
1577711590141,4897899.0,6429962.0,0.0
1577711590187,4900477.0,6446034.0,0.0
1577711590235,4904626.0,6455026.0,0.0
1577711590285,4907690.0,6470757.0,0.0
1577711590335,4907192.0,6469482.0,0.0
1577711590388,4906390.0,6476368.0,0.0
1577711590432,4909330.0,6484680.0,0.0
1577711590475,4915764.0,6503453.0,0.0
1577711590529,4917256.0,6499461.0,0.0
1577711590580,4898102.0,6472213.0,0.0
1577711590629,4896067.0,6472613.0,0.0
1577711590677,4901369.0,6482632.0,0.0
1577711590728,4907668.0,6492826.0,0.0
1577711590775,4908131.0,6504640.0,0.0
1577711590825,4915301.0,6514997.0,0.0
1577711590877,4915108.0,6512504.0,0.0
1577711590917,4918816.0,6520354.0,0.0
1577711590972,4923826.0,6527522.0,0.0
1577711591018,4934274.0,6543536.0,0.0
1577711591073,4927953.0,6534277.0,0.0
1577711591122,4914826.0,6514938.0,0.0
1577711591168,4909295.0,6509922.0,0.0
1577711591217,4911896.0,6524450.0,0.0
1577711591261,4920366.0,6542616.0,0.0
1577711591311,4924188.0,6555408.0,0.0
1577711591360,4929491.0,6558304.0,0.0
1577711591416,4927173.0,6565856.0,0.0
1577711591457,4933347.0,6570264.0,0.0
1577711591512,4934613.0,6585298.0,0.0
1577711591563,4936500.0,6595909.0,0.0
1577711591610,4922910.0,6570576.0,0.0
1577711591657,4917223.0,6558733.0,0.0
1577711591708,4910722.0,6565322.0,0.0
1577711591755,4915153.0,6579437.0,0.0
1577711591801,4920297.0,6594218.0,0.0
1577711591865,4924267.0,6598624.0,0.0
1577711591898,4921055.0,6599277.0,0.0
1577711591954,4921587.0,6603522.0,0.0
1577711592000,4922650.0,6601192.0,0.0
1577711592051,4923690.0,6609888.0,0.0
1577711592104,4933459.0,6620914.0,0.0
1577711592151,4921010.0,6608138.0,0.0
1577711592198,4913548.0,6595613.0,0.0
1577711592248,4911274.0,6595968.0,0.0
1577711592295,4917493.0,6611536.0,0.0
1577711592349,4917912.0,6620085.0,0.0
1577711592394,4922402.0,6625010.0,0.0
1577711592438,4923916.0,6619178.0,0.0
1577711592486,4929389.0,6619416.0,0.0
1577711592539,4951393.0,6652792.0,0.0
1577711592584,4979740.0,6707896.0,0.0
1577711592634,4990606.0,6735810.0,0.0
1577711592683,4930100.0,6729013.0,0.0
1577711592732,4917357.0,6813488.0,0.0
1577711592782,4883539.0,6836802.0,0.0
1577711592831,4864180.0,6867136.0,0.0
1577711592884,4866702.0,6886042.0,0.0
1577711592933,4879831.0,6887704.0,0.0
1577711592982,4889815.0,6888757.0,0.0
1577711593031,4894868.0,6886933.0,0.0
1577711593074,4898939.0,6891770.0,0.0
1577711593124,4900431.0,6889010.0,0.0
1577711593174,4908052.0,6896253.0,0.0
1577711593223,4913716.0,6901224.0,0.0
1577711593271,4917369.0,6898717.0,0.0
1577711593321,4923769.0,6899266.0,0.0
1577711593380,4931968.0,6907280.0,0.0
1577711593419,4934873.0,6907501.0,0.0
1577711593472,4937112.0,6906077.0,0.0
1577711593522,4941860.0,6916674.0,0.0
1577711593567,4953303.0,6924597.0,0.0
1577711593618,4960461.0,6920709.0,0.0
1577711593670,4966747.0,6916168.0,0.0
1577711593718,4969110.0,6912221.0,0.0
1577711593766,4960993.0,6900570.0,0.0
1577711593816,4957431.0,6875965.0,0.0
1577711593861,4966024.0,6873189.0,0.0
1577711593919,4974098.0,6874720.0,0.0
1577711593965,4976359.0,6855618.0,0.0
1577711594012,4972696.0,6826117.0,0.0
1577711594060,4975681.0,6828640.0,0.0
1577711594111,4980203.0,6824261.0,0.0
1577711594158,4987485.0,6821976.0,0.0
1577711594209,4985234.0,6824720.0,0.0
1577711594257,4992629.0,6832424.0,0.0
1577711594305,4976201.0,6790677.0,0.0
1577711594358,4981650.0,6799194.0,0.0
1577711594402,4987314.0,6807373.0,0.0
1577711594454,4989949.0,6819245.0,0.0
1577711594506,4996156.0,6837424.0,0.0
1577711594553,5000951.0,6851448.0,0.0
1577711594600,4998272.0,6860205.0,0.0
1577711594650,5007656.0,6871157.0,0.0
1577711594697,5010405.0,6869792.0,0.0
1577711594749,5017957.0,6886146.0,0.0
1577711594796,5025182.0,6892586.0,0.0
1577711594844,5029910.0,6898776.0,0.0
1577711594890,5039181.0,6913216.0,0.0
1577711594947,5042301.0,6915144.0,0.0
1577711594993,5046452.0,6912949.0,0.0
1577711595041,5055384.0,6926200.0,0.0
1577711595091,5056424.0,6919197.0,0.0
1577711595135,5056855.0,6925058.0,0.0
1577711595190,5057635.0,6925978.0,0.0
1577711595237,5058549.0,6918082.0,0.0
1577711595288,5059760.0,6916554.0,0.0
1577711595339,5063956.0,6922581.0,0.0
1577711595386,5070039.0,6935640.0,0.0
1577711595436,5078574.0,6948165.0,0.0
1577711595485,5079322.0,6946784.0,0.0
1577711595533,5083255.0,6949664.0,0.0
1577711595576,5084907.0,6947898.0,0.0
1577711595631,5081425.0,6938208.0,0.0
1577711595679,5084409.0,6948002.0,0.0
1577711595724,5091860.0,6957261.0,0.0
1577711595777,5087473.0,6954130.0,0.0
1577711595823,5089338.0,6950362.0,0.0
1577711595871,5094292.0,6958584.0,0.0
1577711595922,5103609.0,6964253.0,0.0
1577711595975,5104558.0,6962248.0,0.0
1577711596022,5106515.0,6968749.0,0.0
1577711596072,5110428.0,6970322.0,0.0
1577711596120,5109873.0,6974464.0,0.0
1577711596170,5116442.0,6981512.0,0.0
1577711596217,5118579.0,6984805.0,0.0
1577711596266,5121021.0,6982477.0,0.0
1577711596309,5122753.0,6987909.0,0.0
1577711596370,5124685.0,6991010.0,0.0
1577711596411,5113965.0,6982861.0,0.0
1577711596462,5105588.0,6925874.0,0.0
1577711596508,5111795.0,6915338.0,0.0
1577711596558,5114871.0,6904624.0,0.0
1577711596608,5078767.0,6826946.0,0.0
1577711596656,5031537.0,6765834.0,0.0
1577711596712,5029355.0,6759720.0,0.0
1577711596757,5033719.0,6744626.0,0.0
1577711596804,5041747.0,6726698.0,0.0
1577711596861,4976969.0,6600821.0,0.0
1577711596910,4871925.0,6439221.0,0.0
1577711596954,4857827.0,6420064.0,0.0
1577711597003,4830214.0,6377930.0,0.0
1577711597052,4828485.0,6368210.0,0.0
1577711597100,4831028.0,6355968.0,0.0
1577711597151,4813287.0,6331629.0,0.0
1577711597198,4777341.0,6284642.0,0.0
1577711597242,4751697.0,6241976.0,0.0
1577711597297,4727015.0,6206968.0,0.0
1577711597349,4694326.0,6143376.0,0.0
1577711597399,4639825.0,6045456.0,0.0
1577711597446,4586841.0,5967040.0,0.0
1577711597489,4549652.0,5916672.0,0.0
1577711597542,4519936.0,5876941.0,0.0
1577711597589,4487903.0,5835536.0,0.0
1577711597636,4470694.0,5797813.0,0.0
1577711597687,4442018.0,5758960.0,0.0
1577711597734,4429852.0,5734442.0,0.0
1577711597782,4412338.0,5717674.0,0.0
1577711597832,4397696.0,5703946.0,0.0
1577711597884,4382317.0,5683229.0,0.0
1577711597931,4346077.0,5649554.0,0.0
1577711597980,4327218.0,5624666.0,0.0
1577711598033,4315446.0,5611653.0,0.0
1577711598082,4300669.0,5597122.0,0.0
1577711598126,4274515.0,5574477.0,0.0
1577711598176,4247005.0,5542301.0,0.0
1577711598227,4209013.0,5495080.0,0.0
1577711598275,4173813.0,5452218.0,0.0
1577711598323,4134838.0,5407728.0,0.0
1577711598377,4072242.0,5337680.0,0.0
1577711598432,4001257.0,5241765.0,0.0
1577711598475,3963377.0,5187538.0,0.0
1577711598521,3950894.0,5171954.0,0.0
1577711598574,3947897.0,5159386.0,0.0
1577711598615,3932214.0,5134765.0,0.0
1577711598666,3905405.0,5100720.0,0.0
1577711598714,3891124.0,5075328.0,0.0
1577711598767,3869641.0,5059850.0,0.0
1577711598818,3859431.0,5049610.0,0.0
1577711598872,3849108.0,5032349.0,0.0
1577711598924,3790695.0,4946928.0,0.0
1577711598968,3731287.0,4882224.0,0.0
1577711599016,3715242.0,4868242.0,0.0
1577711599065,3703291.0,4865170.0,0.0
1577711599115,3699831.0,4872962.0,0.0
1577711599162,3693862.0,4873912.0,0.0
1577711599207,3680123.0,4870810.0,0.0
1577711599260,3669924.0,4864133.0,0.0
1577711599307,3659737.0,4869208.0,0.0
1577711599363,3655361.0,4872933.0,0.0
1577711599411,3652183.0,4876018.0,0.0
1577711599457,3620987.0,4814045.0,0.0
1577711599511,3489212.0,4725418.0,0.0
1577711599556,3450219.0,4666544.0,0.0
1577711599607,3417006.0,4624426.0,0.0
1577711599655,3403089.0,4391929.0,0.0
1577711599703,3398987.0,3676862.0,0.0
1577711599752,3381461.0,4255148.0,0.0
1577711599801,3355548.0,4242096.0,0.0
1577711599849,3331260.0,4237878.0,0.0
1577711599893,3321244.0,4250439.0,0.0
1577711599951,3325700.0,4272475.0,0.0
1577711599997,3327032.0,4240680.0,0.0
1577711600047,3286556.0,4152519.0,0.0
1577711600096,3272907.0,4140141.0,0.0
1577711600145,3278014.0,4141135.0,0.0
1577711600194,3272336.0,4141346.0,0.0
1577711600243,3268459.0,4142376.0,0.0
1577711600287,3272872.0,4156285.0,0.0
1577711600343,3285406.0,4179970.0,0.0
1577711600397,3300187.0,4207603.0,0.0
1577711600438,3317369.0,4223459.0,0.0
1577711600487,3333694.0,4237106.0,0.0
1577711600536,3309104.0,4191327.0,0.0
1577711600585,3271773.0,4136742.0,0.0
1577711600636,3251774.0,4100284.0,0.0
1577711600683,3241782.0,4059802.0,0.0
1577711600732,3228259.0,4024817.0,0.0
1577711600778,3214518.0,4002799.0,0.0
1577711600829,3211859.0,4011005.0,0.0
1577711600885,3221136.0,4031213.0,0.0
1577711600928,3249970.0,4047435.0,0.0
1577711600985,3290833.0,4077630.0,0.0
1577711601047,3310297.0,4098232.0,0.0
1577711601072,3300725.0,4065696.0,0.0
1577711601170,3259416.0,4048965.0,0.0
1577711601187,3263611.0,4036723.0,0.0
1577711601230,3250952.0,3967729.0,0.0
1577711601269,3251110.0,3996655.0,0.0
1577711601318,3273628.0,4037321.0,0.0
1577711601370,3295087.0,4058144.0,0.0
1577711601420,3282360.0,4062508.0,0.0
1577711601470,3282813.0,4076850.0,0.0
1577711601517,3300959.0,4105447.0,0.0
1577711601567,3320850.0,4128227.0,0.0
1577711601609,3324407.0,4145074.0,0.0
1577711601665,3286932.0,4103637.0,0.0
1577711601713,3253654.0,4060052.0,0.0
1577711601763,3238125.0,4044342.0,0.0
1577711601814,3244324.0,4050651.0,0.0
1577711601868,3265548.0,4078179.0,0.0
1577711601916,3279449.0,4077409.0,0.0
1577711601959,3281084.0,4052433.0,0.0
1577711602008,3264239.0,4028353.0,0.0
1577711602055,3255289.0,4026272.0,0.0
1577711602107,3255925.0,4041289.0,0.0
1577711602152,3255885.0,4056537.0,0.0
1577711602200,3254534.0,4052577.0,0.0
1577711602250,3240565.0,4020079.0,0.0
1577711602299,3294021.0,4057547.0,0.0
1577711602353,3375951.0,4131011.0,0.0
1577711602396,3402459.0,4185469.0,0.0
1577711602453,3418725.0,4231982.0,0.0
1577711602494,3446528.0,4239660.0,0.0
1577711602544,3453147.0,4237830.0,0.0
1577711602592,3466812.0,4235710.0,0.0
1577711602645,3494548.0,4249012.0,0.0
1577711602688,3533960.0,4269663.0,0.0
1577711602744,3538054.0,4243242.0,0.0
1577711602792,3492341.0,4182523.0,0.0
1577711602845,3450672.0,4151998.0,0.0
1577711602898,3441066.0,4192627.0,0.0
1577711602934,3458238.0,4252450.0,0.0
1577711602989,3478540.0,4308268.0,0.0
1577711603037,3492996.0,4311456.0,0.0
1577711603088,3497543.0,4285509.0,0.0
1577711603131,3543448.0,4307921.0,0.0
1577711603178,3632599.0,4358200.0,0.0
1577711603227,3725986.0,4407304.0,0.0
1577711603280,3716104.0,4422454.0,0.0
1577711603330,3772505.0,4471300.0,0.0
1577711603379,3801691.0,4480912.0,0.0
1577711603440,3965515.0,4485506.0,0.0
1577711603480,4089153.0,4487962.0,0.0
1577711603526,4174279.0,4548124.0,0.0
1577711603573,4186920.0,4592085.0,0.0
1577711603624,4171174.0,4584196.0,0.0
1577711603669,4121947.0,4534727.0,0.0
1577711603718,4079849.0,4478996.0,0.0
1577711603768,4053290.0,4424391.0,0.0
1577711603819,4035614.0,4383002.0,0.0
1577711603872,4022568.0,4391277.0,0.0
1577711603919,4003886.0,4415000.0,0.0
1577711603968,3987301.0,4439245.0,0.0
1577711604018,3986017.0,4453566.0,0.0
1577711604069,4000841.0,4464335.0,0.0
1577711604116,4024724.0,4479236.0,0.0
1577711604162,4059698.0,4478754.0,0.0
1577711604213,4102761.0,4481162.0,0.0
1577711604259,4152801.0,4480883.0,0.0
1577711604312,4218707.0,4467677.0,0.0
1577711604358,4255132.0,4488819.0,0.0
1577711604408,4268387.0,4529034.0,0.0
1577711604455,4260510.0,4571944.0,0.0
1577711604505,4241306.0,4620710.0,0.0
1577711604553,4223782.0,4657158.0,0.0
1577711604603,4221994.0,4671567.0,0.0
1577711604651,4230032.0,4685244.0,0.0
1577711604705,4233404.0,4707793.0,0.0
1577711604758,4210830.0,4709044.0,0.0
1577711604803,4192491.0,4708284.0,0.0
1577711604857,4180368.0,4701917.0,0.0
1577711604900,4154337.0,4685824.0,0.0
1577711604952,4123623.0,4677520.0,0.0
1577711604999,4105008.0,4684155.0,0.0
1577711605048,4087484.0,4693219.0,0.0
1577711605094,4073851.0,4695165.0,0.0
1577711605146,4057736.0,4700830.0,0.0
1577711605194,4040773.0,4701273.0,0.0
1577711605244,4021050.0,4694656.0,0.0
1577711605297,4004146.0,4689627.0,0.0
1577711605344,3950648.0,4627655.0,0.0
1577711605388,3903234.0,4579831.0,0.0
1577711605440,3881069.0,4573927.0,0.0
1577711605489,3859610.0,4576770.0,0.0
1577711605531,3854937.0,4595783.0,0.0
1577711605587,3851446.0,4603710.0,0.0
1577711605631,3839317.0,4619217.0,0.0
1577711605686,3832638.0,4624188.0,0.0
1577711605736,3824684.0,4635562.0,0.0
1577711605783,3816448.0,4644770.0,0.0
1577711605832,3818091.0,4659681.0,0.0
1577711605878,3817839.0,4669332.0,0.0
1577711605930,3798544.0,4654356.0,0.0
1577711605972,3764124.0,4621212.0,0.0
1577711606024,3712237.0,4568525.0,0.0
1577711606072,3679494.0,4542008.0,0.0
1577711606119,3656122.0,4523398.0,0.0
1577711606170,3644865.0,4524775.0,0.0
1577711606220,3638446.0,4520354.0,0.0
1577711606271,3623145.0,4521126.0,0.0
1577711606321,3601643.0,4511542.0,0.0
1577711606372,3580602.0,4505435.0,0.0
1577711606421,3592742.0,4507910.0,0.0
1577711606469,3612456.0,4526606.0,0.0
1577711606513,3637564.0,4548433.0,0.0
1577711606571,3661123.0,4573832.0,0.0
1577711606614,3660241.0,4572810.0,0.0
1577711606661,3614722.0,4553171.0,0.0
1577711606717,3587466.0,4545119.0,0.0
1577711606763,3594924.0,4564624.0,0.0
1577711606813,3614059.0,4568370.0,0.0
1577711606866,3652825.0,4588568.0,0.0
1577711606912,3685333.0,4592942.0,0.0
1577711606954,3750542.0,4607727.0,0.0
1577711607010,3815172.0,4648797.0,0.0
1577711607054,3925465.0,4718782.0,0.0
1577711607107,4030244.0,4803632.0,0.0
1577711607159,4125956.0,4940233.0,0.0
1577711607200,4173246.0,5023288.0,0.0
1577711607247,4170721.0,5055122.0,0.0
1577711607303,4194159.0,5079125.0,0.0
1577711607354,4252808.0,5118356.0,0.0
1577711607394,4303546.0,5139228.0,0.0
1577711607453,4330223.0,5141290.0,0.0
1577711607493,4366321.0,5170562.0,0.0
1577711607549,4386598.0,5176842.0,0.0
1577711607596,4405684.0,5165265.0,0.0
1577711607647,4414567.0,5156431.0,0.0
1577711607697,4403712.0,5146963.0,0.0
1577711607743,4392059.0,5144882.0,0.0
1577711607794,4375608.0,5137245.0,0.0
1577711607855,4416178.0,5164233.0,0.0
1577711607897,4488870.0,5204918.0,0.0
1577711607937,4548291.0,5276235.0,0.0
1577711608000,4581697.0,5336443.0,0.0
1577711608044,4609834.0,5315677.0,0.0
1577711608092,4640160.0,5346769.0,0.0
1577711608133,4666829.0,5356623.0,0.0
1577711608183,4665614.0,5329548.0,0.0
1577711608234,4662686.0,5317160.0,0.0
1577711608280,4672408.0,5311207.0,0.0
1577711608331,4664456.0,5305728.0,0.0
1577711608379,4659547.0,5294669.0,0.0
1577711608429,4647602.0,5282389.0,0.0
1577711608478,4645715.0,5292117.0,0.0
1577711608524,4637610.0,5287724.0,0.0
1577711608575,4633189.0,5290991.0,0.0
1577711608623,4621663.0,5285499.0,0.0
1577711608674,4616848.0,5291087.0,0.0
1577711608721,4618357.0,5301883.0,0.0
1577711608771,4687492.0,5363441.0,0.0
1577711608819,4706385.0,5413268.0,0.0
1577711608870,4720000.0,5467719.0,0.0
1577711608919,4736828.0,5495958.0,0.0
1577711608969,4749287.0,5521001.0,0.0
1577711609017,4759982.0,5519422.0,0.0
1577711609067,4803464.0,5536538.0,0.0
1577711609119,4858345.0,5554637.0,0.0
1577711609165,4876986.0,5554858.0,0.0
1577711609216,4879142.0,5527426.0,0.0
1577711609262,4863967.0,5484342.0,0.0
1577711609311,4840685.0,5480838.0,0.0
1577711609360,4805284.0,5483331.0,0.0
1577711609410,4775025.0,5481000.0,0.0
1577711609458,4742584.0,5468141.0,0.0
1577711609508,4696334.0,5429894.0,0.0
1577711609560,4647988.0,5388013.0,0.0
1577711609607,4634951.0,5378669.0,0.0
1577711609657,4630899.0,5372978.0,0.0
1577711609704,4630621.0,5368133.0,0.0
1577711609752,4630353.0,5352616.0,0.0
1577711609801,4639959.0,5353829.0,0.0
1577711609850,4648541.0,5344698.0,0.0
1577711609899,4712441.0,5364512.0,0.0
1577711609949,4797222.0,5378334.0,0.0
1577711609998,4890534.0,5374961.0,0.0
1577711610047,4971650.0,5418412.0,0.0
1577711610098,4990945.0,5440343.0,0.0
1577711610148,5036993.0,5492723.0,0.0
1577711610197,5187147.0,5543598.0,0.0
1577711610243,5229173.0,5601342.0,0.0
1577711610292,5272527.0,5648095.0,0.0
1577711610340,5295286.0,5649145.0,0.0
1577711610390,5278055.0,5633235.0,0.0
1577711610439,5267992.0,5648875.0,0.0
1577711610489,5200782.0,5615733.0,0.0
1577711610538,5136377.0,5572254.0,0.0
1577711610587,5124177.0,5533610.0,0.0
1577711610637,5149821.0,5534380.0,0.0
1577711610684,5176212.0,5539919.0,0.0
1577711610733,5191070.0,5538562.0,0.0
1577711610783,5214350.0,5546873.0,0.0
1577711610831,5244212.0,5549706.0,0.0
1577711610881,5261637.0,5533515.0,0.0
1577711610929,5285495.0,5530538.0,0.0
1577711610979,5303507.0,5540333.0,0.0
1577711611028,5325171.0,5560397.0,0.0
1577711611078,5343264.0,5605571.0,0.0
1577711611127,5323487.0,5629767.0,0.0
1577711611174,5322051.0,5676462.0,0.0
1577711611223,5335076.0,5771077.0,0.0
1577711611273,5317099.0,5810482.0,0.0
1577711611321,5301495.0,5925813.0,0.0
1577711611371,5287168.0,5953802.0,0.0
1577711611420,5284002.0,5974953.0,0.0
1577711611469,5297277.0,5986983.0,0.0
1577711611519,5297842.0,5945909.0,0.0
1577711611566,5282171.0,5896136.0,0.0
1577711611618,5272604.0,5876570.0,0.0
1577711611667,5275908.0,5868769.0,0.0
1577711611714,5267189.0,5856233.0,0.0
1577711611763,5278959.0,5848340.0,0.0
1577711611812,5288413.0,5849327.0,0.0
1577711611861,5285993.0,5831886.0,0.0
1577711611910,5292178.0,5836771.0,0.0
1577711611961,5299980.0,5835150.0,0.0
1577711612009,5302603.0,5879372.0,0.0
1577711612060,5299437.0,5906913.0,0.0
1577711612107,5304852.0,5925859.0,0.0
1577711612155,5304718.0,5950218.0,0.0
1577711612205,5301835.0,6005332.0,0.0
1577711612253,5295616.0,6090859.0,0.0
1577711612302,5302060.0,6179846.0,0.0
1577711612351,5307363.0,6229629.0,0.0
1577711612400,5311693.0,6261834.0,0.0
1577711612450,5336728.0,6296957.0,0.0
1577711612501,5356344.0,6333219.0,0.0
1577711612548,5395061.0,6372455.0,0.0
1577711612600,5421620.0,6395274.0,0.0
1577711612646,5442631.0,6414656.0,0.0
1577711612694,5454594.0,6424227.0,0.0
1577711612744,5459523.0,6398951.0,0.0
1577711612793,5465335.0,6353222.0,0.0
1577711612842,5466871.0,6326325.0,0.0
1577711612891,5459512.0,6287766.0,0.0
1577711612941,5449707.0,6245404.0,0.0
1577711612990,5450093.0,6212188.0,0.0
1577711613039,5440991.0,6177754.0,0.0
1577711613088,5446643.0,6159246.0,0.0
1577711613135,5432137.0,6126971.0,0.0
1577711613187,5432092.0,6114252.0,0.0
1577711613234,5455983.0,6129878.0,0.0
1577711613283,5469236.0,6141390.0,0.0
1577711613332,5509319.0,6249955.0,0.0
1577711613381,5524370.0,6322384.0,0.0
1577711613431,5523069.0,6294534.0,0.0
1577711613477,5527523.0,6296854.0,0.0
1577711613529,5526777.0,6292558.0,0.0
1577711613578,5521554.0,6277702.0,0.0
1577711613626,5514701.0,6265604.0,0.0
1577711613674,5515719.0,6274438.0,0.0
1577711613725,5513390.0,6286158.0,0.0
1577711613773,5500454.0,6279907.0,0.0
1577711613822,5497029.0,6291926.0,0.0
1577711613870,5481108.0,6294843.0,0.0
1577711613921,5485234.0,6334850.0,0.0
1577711613970,5497333.0,6359966.0,0.0
1577711614021,5505497.0,6337527.0,0.0
1577711614069,5499629.0,6328900.0,0.0
1577711614116,5504298.0,6341307.0,0.0
1577711614166,5508167.0,6340308.0,0.0
1577711614214,5508516.0,6358162.0,0.0
1577711614264,5520117.0,6389999.0,0.0
1577711614313,5525103.0,6405177.0,0.0
1577711614363,5533393.0,6429914.0,0.0
1577711614411,5552355.0,6475241.0,0.0
1577711614462,5565200.0,6504262.0,0.0
1577711614510,5574664.0,6513478.0,0.0
1577711614558,5582057.0,6535469.0,0.0
1577711614607,5584375.0,6546050.0,0.0
1577711614656,5581379.0,6544074.0,0.0
1577711614707,5594359.0,6569201.0,0.0
1577711614753,5599957.0,6570270.0,0.0
1577711614803,5605282.0,6553529.0,0.0
1577711614849,5603033.0,6541132.0,0.0
1577711614904,5604209.0,6526598.0,0.0
1577711614948,5609297.0,6527277.0,0.0
1577711615002,5613886.0,6570590.0,0.0
1577711615048,5623306.0,6605601.0,0.0
1577711615097,5623296.0,6637712.0,0.0
1577711615147,5643524.0,6665804.0,0.0
1577711615195,5654706.0,6692380.0,0.0
1577711615243,5659692.0,6700653.0,0.0
1577711615293,5659444.0,6702455.0,0.0
1577711615343,5661557.0,6690531.0,0.0
1577711615392,5656911.0,6676110.0,0.0
1577711615442,5651541.0,6637070.0,0.0
1577711615489,5639860.0,6594799.0,0.0
1577711615539,5640549.0,6571096.0,0.0
1577711615589,5627140.0,6535009.0,0.0
1577711615636,5625941.0,6519382.0,0.0
1577711615686,5622028.0,6504699.0,0.0
1577711615734,5622503.0,6522749.0,0.0
1577711615784,5630023.0,6529160.0,0.0
1577711615833,5615425.0,6481432.0,0.0
1577711615880,5618694.0,6462763.0,0.0
1577711615931,5621168.0,6431040.0,0.0
1577711615982,5626302.0,6428409.0,0.0
1577711616029,5648601.0,6425387.0,0.0
1577711616075,5650726.0,6410440.0,0.0
1577711616125,5664577.0,6436579.0,0.0
1577711616181,5653134.0,6435187.0,0.0
1577711616226,5659851.0,6438912.0,0.0
1577711616274,5661547.0,6415322.0,0.0
1577711616321,5662734.0,6398181.0,0.0
1577711616369,5683980.0,6378948.0,0.0
1577711616420,5690018.0,6359219.0,0.0
1577711616467,5719009.0,6403844.0,0.0
1577711616516,5722548.0,6408072.0,0.0
1577711616569,5726506.0,6402293.0,0.0
1577711616616,5701426.0,6373846.0,0.0
1577711616664,5635132.0,6285504.0,0.0
1577711616712,5592551.0,6163577.0,0.0
1577711616763,5583719.0,6117549.0,0.0
1577711616810,5542213.0,6057884.0,0.0
1577711616863,5518522.0,6017843.0,0.0
1577711616909,5487181.0,5981342.0,0.0
1577711616957,5467822.0,5961672.0,0.0
1577711617008,5438333.0,5933489.0,0.0
1577711617056,5399098.0,5910222.0,0.0
1577711617106,5376495.0,5902810.0,0.0
1577711617154,5319078.0,5838412.0,0.0
1577711617208,5245830.0,5759009.0,0.0
1577711617254,5189012.0,5702309.0,0.0
1577711617306,5147288.0,5651571.0,0.0
1577711617352,5102331.0,5603383.0,0.0
1577711617403,5054774.0,5558298.0,0.0
1577711617451,5007329.0,5509572.0,0.0
1577711617500,4959173.0,5457616.0,0.0
1577711617549,4904626.0,5394712.0,0.0
1577711617595,4851947.0,5331439.0,0.0
1577711617645,4786037.0,5284585.0,0.0
1577711617702,4728269.0,5244050.0,0.0
1577711617744,4739860.0,5266213.0,0.0
1577711617800,4729604.0,5245832.0,0.0
1577711617846,4683166.0,5166428.0,0.0
1577711617892,4634500.0,5070903.0,0.0
1577711617947,4637246.0,5031552.0,0.0
1577711617995,4660947.0,5041284.0,0.0
1577711618045,4673769.0,5058851.0,0.0
1577711618093,4689316.0,5078982.0,0.0
1577711618142,4707996.0,5113542.0,0.0
1577711618188,4727558.0,5155811.0,0.0
1577711618240,4747469.0,5172597.0,0.0
1577711618285,4765505.0,5165875.0,0.0
1577711618338,4785178.0,5168334.0,0.0
1577711618386,4800918.0,5172723.0,0.0
1577711618437,4807996.0,5188120.0,0.0
1577711618487,4817166.0,5201182.0,0.0
1577711618536,4830169.0,5224805.0,0.0
1577711618585,4834771.0,5250289.0,0.0
1577711618633,4841770.0,5275061.0,0.0
1577711618683,4845366.0,5282816.0,0.0
1577711618726,4854050.0,5287353.0,0.0
1577711618780,4871677.0,5267592.0,0.0
1577711618824,4902117.0,5262870.0,0.0
1577711618869,4923272.0,5276705.0,0.0
1577711618921,4934534.0,5290789.0,0.0
1577711618975,4934895.0,5307392.0,0.0
1577711619028,4941714.0,5330337.0,0.0
1577711619069,4941590.0,5340114.0,0.0
1577711619124,4941013.0,5355429.0,0.0
1577711619166,4946214.0,5369205.0,0.0
1577711619213,4950645.0,5379856.0,0.0
1577711619267,4952456.0,5397790.0,0.0
1577711619318,4957407.0,5396952.0,0.0
1577711619370,4968433.0,5402708.0,0.0
1577711619410,4979490.0,5394690.0,0.0
1577711619458,4989429.0,5391622.0,0.0
1577711619507,4996134.0,5406730.0,0.0
1577711619559,4996508.0,5413429.0,0.0
1577711619612,5000736.0,5428054.0,0.0
1577711619657,5010279.0,5436546.0,0.0
1577711619708,5020627.0,5450332.0,0.0
1577711619760,5028689.0,5452884.0,0.0
1577711619810,5045241.0,5460696.0,0.0
1577711619856,5066658.0,5475736.0,0.0
1577711619903,5078326.0,5463613.0,0.0
1577711619951,5073712.0,5474966.0,0.0
1577711620000,5073239.0,5500323.0,0.0
1577711620051,5089598.0,5541685.0,0.0
1577711620095,5084771.0,5535275.0,0.0
1577711620147,5068117.0,5518627.0,0.0
1577711620202,5056469.0,5520924.0,0.0
1577711620249,5062497.0,5526220.0,0.0
1577711620301,5050873.0,5527680.0,0.0
1577711620349,5035993.0,5527312.0,0.0
1577711620395,5018388.0,5527209.0,0.0
1577711620448,4993399.0,5507654.0,0.0
1577711620490,4949979.0,5474944.0,0.0
1577711620545,4912621.0,5456423.0,0.0
1577711620588,4882769.0,5442060.0,0.0
1577711620644,4869416.0,5441957.0,0.0
1577711620689,4860834.0,5446817.0,0.0
1577711620738,4844869.0,5447609.0,0.0
1577711620789,4842256.0,5471347.0,0.0
1577711620841,4842370.0,5502771.0,0.0
1577711620894,4863548.0,5552107.0,0.0
1577711620937,4863311.0,5568008.0,0.0
1577711620989,4883313.0,5596157.0,0.0
1577711621028,4887915.0,5598788.0,0.0
1577711621086,4802885.0,5530403.0,0.0
1577711621132,4829909.0,5551163.0,0.0
1577711621177,4795196.0,5497670.0,0.0
1577711621228,4859782.0,5564537.0,0.0
1577711621276,4883945.0,5633647.0,0.0
1577711621328,4857272.0,5587586.0,0.0
1577711621371,4866635.0,5587334.0,0.0
1577711621420,4859454.0,5609255.0,0.0
1577711621468,4864802.0,5626789.0,0.0
1577711621518,4897978.0,5672113.0,0.0
1577711621573,4900579.0,5661623.0,0.0
1577711621618,4873565.0,5638024.0,0.0
1577711621672,4847028.0,5614092.0,0.0
1577711621718,4842426.0,5610370.0,0.0
1577711621772,4838570.0,5624720.0,0.0
1577711621813,4872730.0,5640827.0,0.0
1577711621871,4867709.0,5612104.0,0.0
1577711621912,4776811.0,5481054.0,0.0
1577711621961,5003904.0,5642999.0,0.0
1577711622010,5011943.0,5606371.0,0.0
1577711622067,5001630.0,5627846.0,0.0
1577711622113,5023906.0,5658913.0,0.0
1577711622162,5020355.0,5679225.0,0.0
1577711622214,5001382.0,5673170.0,0.0
1577711622259,4984580.0,5661256.0,0.0
1577711622312,4919834.0,5606049.0,0.0
1577711622353,4948250.0,5606187.0,0.0
1577711622409,4898724.0,5566284.0,0.0
1577711622451,4908369.0,5595123.0,0.0
1577711622507,4917201.0,5607979.0,0.0
1577711622552,4905213.0,5618906.0,0.0
1577711622605,4886026.0,5595491.0,0.0
1577711622654,4875747.0,5587034.0,0.0
1577711622701,4865820.0,5555288.0,0.0
1577711622754,4841488.0,5552452.0,0.0
1577711622795,4879083.0,5615068.0,0.0
1577711622851,4862090.0,5612760.0,0.0
1577711622892,4853394.0,5596731.0,0.0
1577711622949,4856299.0,5600028.0,0.0
1577711622991,4854095.0,5604510.0,0.0
1577711623047,4860371.0,5634233.0,0.0
1577711623092,4885642.0,5687890.0,0.0
1577711623136,4902590.0,5697839.0,0.0
1577711623190,4863628.0,5641069.0,0.0
1577711623233,4847945.0,5636174.0,0.0
1577711623284,4876257.0,5666956.0,0.0
1577711623333,4881198.0,5687153.0,0.0
1577711623391,4869812.0,5676618.0,0.0
1577711623431,4885394.0,5688590.0,0.0
1577711623488,4805723.0,5597064.0,0.0
1577711623529,4829379.0,5618723.0,0.0
1577711623585,4884636.0,5665899.0,0.0
1577711623628,4867856.0,5661520.0,0.0
1577711623683,4898972.0,5696666.0,0.0
1577711623729,4931074.0,5735927.0,0.0
1577711623779,4930972.0,5755699.0,0.0
1577711623831,4921045.0,5744555.0,0.0
1577711623877,4918523.0,5749530.0,0.0
1577711623930,4968364.0,5804347.0,0.0
1577711623970,4909194.0,5717153.0,0.0
1577711624028,4917325.0,5717233.0,0.0
1577711624073,4927693.0,5726781.0,0.0
1577711624125,4920208.0,5719921.0,0.0
1577711624176,4977127.0,5789214.0,0.0
1577711624220,4871881.0,5709283.0,0.0
1577711624273,4923589.0,5725196.0,0.0
1577711624311,5016907.0,5835840.0,0.0
1577711624371,5019485.0,5842504.0,0.0
1577711624411,5029898.0,5852120.0,0.0
1577711624469,5044664.0,5864586.0,0.0
1577711624509,5047413.0,5862897.0,0.0
1577711624566,5063944.0,5890425.0,0.0
1577711624617,5064667.0,5897125.0,0.0
1577711624663,5085878.0,5908453.0,0.0
1577711624709,5074629.0,5916380.0,0.0
1577711624759,5051834.0,5838850.0,0.0
1577711624810,5051562.0,5846191.0,0.0
1577711624857,5051133.0,5857979.0,0.0
1577711624913,5057375.0,5864390.0,0.0
1577711624951,5123736.0,5977688.0,0.0
1577711624998,5131786.0,6052622.0,0.0
1577711625050,5313808.0,6219920.0,0.0
1577711625099,5318048.0,6180996.0,0.0
1577711625149,5284624.0,6137300.0,0.0
1577711625197,5238243.0,6096156.0,0.0
1577711625245,5228732.0,6097317.0,0.0
1577711625296,5243264.0,6131257.0,0.0
1577711625351,5231254.0,6134703.0,0.0
1577711625393,5248034.0,6174135.0,0.0
1577711625449,5276133.0,6181064.0,0.0
1577711625489,5251766.0,6154041.0,0.0
1577711625547,5235043.0,6134509.0,0.0
1577711625598,5241488.0,6125167.0,0.0
1577711625644,5266070.0,6144216.0,0.0
1577711625693,5263118.0,6175250.0,0.0
1577711625742,5214000.0,6140459.0,0.0
1577711625790,5237124.0,6090652.0,0.0
1577711625839,5276168.0,6153961.0,0.0
1577711625889,5271870.0,6131625.0,0.0
1577711625937,5279863.0,6127397.0,0.0
1577711625991,5286072.0,6131590.0,0.0
1577711626029,5275420.0,6131693.0,0.0
1577711626088,5287123.0,6133807.0,0.0
1577711626138,5245626.0,6091193.0,0.0
1577711626186,5267856.0,6129569.0,0.0
1577711626233,5207137.0,6059080.0,0.0
1577711626284,5183630.0,6014053.0,0.0
1577711626331,5187892.0,6016811.0,0.0
1577711626380,5159092.0,5995520.0,0.0
1577711626426,5168568.0,6022864.0,0.0
1577711626471,5079117.0,5941681.0,0.0
1577711626521,5054333.0,5911256.0,0.0
1577711626571,5131312.0,5979389.0,0.0
1577711626624,5123600.0,5971197.0,0.0
1577711626675,5134478.0,5973080.0,0.0
1577711626721,5146837.0,5976918.0,0.0
1577711626770,5181809.0,6022071.0,0.0
1577711626824,5153225.0,6011939.0,0.0
1577711626874,5147142.0,6007446.0,0.0
1577711626916,5094948.0,5946654.0,0.0
1577711626968,5144236.0,6021704.0,0.0
1577711627013,5109873.0,5951675.0,0.0
1577711627070,5135721.0,5991430.0,0.0
1577711627119,5124821.0,5988442.0,0.0
1577711627168,5111161.0,5978861.0,0.0
1577711627214,5102636.0,5994727.0,0.0
1577711627257,5053496.0,5944898.0,0.0
1577711627311,5012156.0,5932316.0,0.0
1577711627361,5094326.0,5981066.0,0.0
1577711627409,5089928.0,5958674.0,0.0
1577711627457,5106515.0,5969026.0,0.0
1577711627512,5112214.0,5962970.0,0.0
1577711627558,5131154.0,5989155.0,0.0
1577711627609,5113480.0,6000920.0,0.0
1577711627659,5103451.0,6009571.0,0.0
1577711627707,5126721.0,6012638.0,0.0
1577711627753,5150817.0,6055277.0,0.0
1577711627804,5139238.0,6013743.0,0.0
1577711627850,5154243.0,6033953.0,0.0
1577711627897,5160110.0,6034217.0,0.0
1577711627949,5185359.0,6037582.0,0.0
1577711627998,5131107.0,5988616.0,0.0
1577711628051,5069992.0,5915530.0,0.0
1577711628100,5170683.0,6028783.0,0.0
1577711628147,5165255.0,6025564.0,0.0
1577711628194,5208573.0,6041604.0,0.0
1577711628245,5212712.0,6020038.0,0.0
1577711628288,5231798.0,6031539.0,0.0
1577711628341,5214939.0,6016454.0,0.0
1577711628389,5179424.0,6002677.0,0.0
1577711628442,5219291.0,6070430.0,0.0
1577711628492,5170842.0,6035986.0,0.0
1577711628536,5170411.0,5999554.0,0.0
1577711628588,5170106.0,6002229.0,0.0
1577711628634,5163355.0,6008055.0,0.0
1577711628686,5141760.0,5997968.0,0.0
1577711628736,5136536.0,5985732.0,0.0
1577711628782,5071790.0,5905971.0,0.0
1577711628834,5189158.0,5999576.0,0.0
1577711628875,5214894.0,6007469.0,0.0
1577711628930,5204864.0,5996692.0,0.0
1577711628973,5230939.0,6064755.0,0.0
1577711629021,5202104.0,6063665.0,0.0
1577711629073,5179841.0,6049521.0,0.0
1577711629122,5157906.0,6025129.0,0.0
1577711629171,5176506.0,6052048.0,0.0
1577711629220,5205304.0,6104739.0,0.0
1577711629271,5225183.0,6121032.0,0.0
1577711629315,5208448.0,6088161.0,0.0
1577711629373,5218117.0,6096881.0,0.0
1577711629415,5221485.0,6097971.0,0.0
1577711629471,5151303.0,6019912.0,0.0
1577711629518,5134805.0,5992545.0,0.0
1577711629569,5198872.0,6075441.0,0.0
1577711629617,5221010.0,6116240.0,0.0
1577711629664,5263266.0,6154432.0,0.0
1577711629710,5270897.0,6152949.0,0.0
1577711629756,5281470.0,6163474.0,0.0
1577711629814,5288728.0,6166208.0,0.0
1577711629863,5195920.0,6073098.0,0.0
1577711629915,5306504.0,6208454.0,0.0
1577711629959,5250681.0,6123098.0,0.0
1577711630006,5298679.0,6145331.0,0.0
1577711630058,5259036.0,6104313.0,0.0
1577711630102,5261037.0,6094168.0,0.0
1577711630157,5234082.0,6080462.0,0.0
1577711630197,5176563.0,6043179.0,0.0
1577711630253,5161705.0,6030024.0,0.0
1577711630297,5220410.0,6081013.0,0.0
1577711630353,5252207.0,6111461.0,0.0
1577711630398,5312621.0,6158670.0,0.0
1577711630452,5319031.0,6204112.0,0.0
1577711630498,5339611.0,6244451.0,0.0
1577711630546,5321768.0,6232939.0,0.0
1577711630597,5296237.0,6200355.0,0.0
1577711630637,5312394.0,6215118.0,0.0
1577711630696,5291148.0,6167345.0,0.0
1577711630737,5291398.0,6151145.0,0.0
1577711630793,5271497.0,6151351.0,0.0
1577711630838,5253983.0,6144986.0,0.0
1577711630891,5257748.0,6125995.0,0.0
1577711630941,5301924.0,6164738.0,0.0
1577711630983,5230283.0,6073752.0,0.0
1577711631035,5286999.0,6107381.0,0.0
1577711631093,5308210.0,6150236.0,0.0
1577711631146,5324822.0,6156224.0,0.0
1577711631180,5336265.0,6160716.0,0.0
1577711631232,5334083.0,6180890.0,0.0
1577711631280,5316024.0,6167277.0,0.0
1577711631329,5282838.0,6138450.0,0.0
1577711631383,5313097.0,6170632.0,0.0
1577711631426,5301382.0,6198620.0,0.0
1577711631476,5283551.0,6185050.0,0.0
1577711631518,5276088.0,6165254.0,0.0
1577711631567,5284081.0,6171689.0,0.0
1577711631616,5247561.0,6121284.0,0.0
1577711631669,5355723.0,6177560.0,0.0
1577711631717,5361320.0,6159865.0,0.0
1577711631770,5498837.0,6230412.0,0.0
1577711631820,5489928.0,6227918.0,0.0
1577711631869,5485224.0,6210120.0,0.0
1577711631917,5483335.0,6237844.0,0.0
1577711631966,5440481.0,6214934.0,0.0
1577711632009,5471825.0,6250828.0,0.0
1577711632064,5426777.0,6212994.0,0.0
1577711632113,5447040.0,6258159.0,0.0
1577711632159,5430723.0,6219829.0,0.0
1577711632211,5426200.0,6212971.0,0.0
1577711632260,5435461.0,6219336.0,0.0
1577711632309,5437316.0,6224598.0,0.0
1577711632362,5442054.0,6243210.0,0.0
1577711632402,5378202.0,6121377.0,0.0
1577711632456,5405226.0,6125650.0,0.0
1577711632505,5427411.0,6165875.0,0.0
1577711632554,5451337.0,6189900.0,0.0
1577711632604,5425340.0,6131670.0,0.0
1577711632652,5425601.0,6165588.0,0.0
1577711632699,5400035.0,6171138.0,0.0
1577711632750,5408132.0,6181696.0,0.0
1577711632803,5368037.0,6170539.0,0.0
1577711632844,5375024.0,6198251.0,0.0
1577711632898,5357815.0,6166265.0,0.0
1577711632942,5350692.0,6177445.0,0.0
1577711632996,5326201.0,6172733.0,0.0
1577711633045,5326732.0,6176239.0,0.0
1577711633093,5307227.0,6152340.0,0.0
1577711633137,5208697.0,6045361.0,0.0
1577711633193,5236083.0,6067685.0,0.0
1577711633240,5242934.0,6093089.0,0.0
1577711633286,5304141.0,6152192.0,0.0
1577711633338,5318511.0,6136324.0,0.0
1577711633390,5326754.0,6150397.0,0.0
1577711633436,5349471.0,6204641.0,0.0
1577711633487,5359433.0,6222356.0,0.0
1577711633528,5292844.0,6168437.0,0.0
1577711633578,5314531.0,6204882.0,0.0
1577711633627,5262722.0,6124731.0,0.0
1577711633678,5278451.0,6149192.0,0.0
1577711633729,5259026.0,6134519.0,0.0
1577711633785,5255848.0,6151029.0,0.0
1577711633829,5251224.0,6163336.0,0.0
1577711633877,5184489.0,6087137.0,0.0
1577711633930,5187835.0,6077935.0,0.0
1577711633975,5214419.0,6123835.0,0.0
1577711634026,5262994.0,6167931.0,0.0
1577711634073,5279366.0,6146240.0,0.0
1577711634118,5287373.0,6171080.0,0.0
1577711634172,5297288.0,6208788.0,0.0
1577711634223,5263660.0,6181879.0,0.0
1577711634271,5222751.0,6132566.0,0.0
1577711634319,5253213.0,6177651.0,0.0
1577711634369,5239803.0,6164828.0,0.0
1577711634416,5260314.0,6192829.0,0.0
1577711634467,5253292.0,6189830.0,0.0
1577711634515,5237473.0,6178248.0,0.0
1577711634563,5230927.0,6175537.0,0.0
1577711634614,5160586.0,6107771.0,0.0
1577711634664,5159139.0,6093652.0,0.0
1577711634713,5179140.0,6102234.0,0.0
1577711634760,5255779.0,6190932.0,0.0
1577711634808,5293072.0,6204089.0,0.0
1577711634855,5294801.0,6192243.0,0.0
1577711634905,5320220.0,6246691.0,0.0
1577711634953,5321270.0,6260709.0,0.0
1577711635001,5323182.0,6278494.0,0.0
1577711635054,5266612.0,6193725.0,0.0
1577711635101,5265312.0,6189256.0,0.0
1577711635152,5257996.0,6167977.0,0.0
1577711635205,5284805.0,6208960.0,0.0
1577711635250,5289441.0,6214395.0,0.0
1577711635300,5260665.0,6203272.0,0.0
1577711635350,5235620.0,6188508.0,0.0
1577711635398,5226483.0,6159153.0,0.0
1577711635448,5237542.0,6126317.0,0.0
1577711635495,5333302.0,6199149.0,0.0
1577711635546,5338875.0,6236374.0,0.0
1577711635594,5354051.0,6238212.0,0.0
1577711635644,5360302.0,6241992.0,0.0
1577711635693,5353835.0,6269762.0,0.0
1577711635741,5344292.0,6272681.0,0.0
1577711635791,5277332.0,6204570.0,0.0
1577711635840,5333426.0,6248369.0,0.0
1577711635890,5285632.0,6201079.0,0.0
1577711635938,5306684.0,6226184.0,0.0
1577711635985,5311331.0,6236983.0,0.0
1577711636035,5301991.0,6231595.0,0.0
1577711636084,5287870.0,6201550.0,0.0
1577711636134,5233200.0,6164300.0,0.0
1577711636186,5246283.0,6156981.0,0.0
1577711636232,5265810.0,6164358.0,0.0
1577711636282,5337045.0,6250357.0,0.0
1577711636331,5305508.0,6215314.0,0.0
1577711636378,5321734.0,6218002.0,0.0
1577711636430,5338355.0,6243200.0,0.0
1577711636477,5339668.0,6289226.0,0.0
1577711636523,5323408.0,6260352.0,0.0
1577711636575,5287633.0,6254009.0,0.0
1577711636619,5300297.0,6213361.0,0.0
1577711636670,5292686.0,6208856.0,0.0
1577711636722,5310325.0,6231273.0,0.0
1577711636768,5332408.0,6255159.0,0.0
1577711636817,5316262.0,6252781.0,0.0
1577711636871,5314679.0,6244486.0,0.0
1577711636918,5333382.0,6218888.0,0.0
1577711636970,5371554.0,6176169.0,0.0
1577711637017,5460630.0,6267038.0,0.0
1577711637060,5449266.0,6296338.0,0.0
1577711637115,5421543.0,6272336.0,0.0
1577711637167,5427411.0,6285239.0,0.0
1577711637208,5431401.0,6302897.0,0.0
1577711637262,5408969.0,6293396.0,0.0
1577711637305,5425001.0,6307367.0,0.0
1577711637362,5408607.0,6280757.0,0.0
1577711637411,5390821.0,6273381.0,0.0
1577711637457,5360936.0,6227873.0,0.0
1577711637501,5383279.0,6251080.0,0.0
1577711637556,5370479.0,6243222.0,0.0
1577711637603,5380723.0,6258791.0,0.0
1577711637649,5307036.0,6191989.0,0.0
1577711637699,5294665.0,6152512.0,0.0
1577711637749,5367710.0,6207397.0,0.0
1577711637798,5388208.0,6256710.0,0.0
1577711637847,5380317.0,6243152.0,0.0
1577711637895,5389295.0,6251057.0,0.0
1577711637947,5382465.0,6240499.0,0.0
1577711637994,5383210.0,6258640.0,0.0
1577711638043,5380339.0,6267418.0,0.0
1577711638092,5374142.0,6258952.0,0.0
1577711638144,5357748.0,6225758.0,0.0
1577711638190,5361241.0,6225195.0,0.0
1577711638240,5373815.0,6245520.0,0.0
1577711638289,5376426.0,6255101.0,0.0
1577711638338,5371678.0,6255446.0,0.0
1577711638387,5290640.0,6148434.0,0.0
1577711638435,5279445.0,6159717.0,0.0
1577711638487,5304775.0,6150790.0,0.0
1577711638532,5336547.0,6176398.0,0.0
1577711638586,5351178.0,6192014.0,0.0
1577711638635,5368681.0,6195402.0,0.0
1577711638687,5349506.0,6193668.0,0.0
1577711638734,5376087.0,6249552.0,0.0
1577711638782,5395197.0,6283596.0,0.0
1577711638831,5302365.0,6204802.0,0.0
1577711638881,5375126.0,6229227.0,0.0
1577711638925,5325476.0,6155776.0,0.0
1577711638977,5348916.0,6188818.0,0.0
1577711639026,5371904.0,6202078.0,0.0
1577711639070,5357362.0,6195920.0,0.0
1577711639125,5367834.0,6208076.0,0.0
1577711639170,5319044.0,6163233.0,0.0
1577711639220,5307430.0,6125363.0,0.0
1577711639268,5374256.0,6180490.0,0.0
1577711639323,5329062.0,6118102.0,0.0
1577711639372,5366759.0,6138966.0,0.0
1577711639420,5365776.0,6173826.0,0.0
1577711639466,5377603.0,6213786.0,0.0
1577711639517,5399980.0,6241453.0,0.0
1577711639568,5443002.0,6287640.0,0.0
1577711639617,5439272.0,6272049.0,0.0
1577711639665,5424956.0,6233261.0,0.0
1577711639714,5405610.0,6185224.0,0.0
1577711639764,5414316.0,6167483.0,0.0
1577711639814,5410009.0,6145296.0,0.0
1577711639862,5412441.0,6145112.0,0.0
1577711639911,5385065.0,6159141.0,0.0
1577711639959,5387643.0,6140104.0,0.0
1577711640007,5395309.0,6168253.0,0.0
1577711640050,5389781.0,6173411.0,0.0
1577711640105,5401732.0,6184924.0,0.0
1577711640154,5402546.0,6195299.0,0.0
1577711640206,5374843.0,6163427.0,0.0
1577711640254,5361263.0,6146469.0,0.0
1577711640302,5331685.0,6143838.0,0.0
1577711640352,5352072.0,6134026.0,0.0
1577711640401,5338650.0,6104039.0,0.0
1577711640448,5312971.0,6070639.0,0.0
1577711640498,5315878.0,6064732.0,0.0
1577711640551,5330667.0,6072028.0,0.0
1577711640597,5300455.0,6032206.0,0.0
1577711640651,5273250.0,6008249.0,0.0
1577711640696,5215425.0,5957972.0,0.0
1577711640745,5120987.0,5839620.0,0.0
1577711640795,5165131.0,5892426.0,0.0
1577711640842,5173577.0,5905845.0,0.0
1577711640891,5121926.0,5861828.0,0.0
1577711640943,5140697.0,5885565.0,0.0
1577711640990,5150386.0,5899307.0,0.0
1577711641034,5157487.0,5912922.0,0.0
1577711641087,5144529.0,5886049.0,0.0
1577711641137,5127671.0,5858392.0,0.0
1577711641187,5142867.0,5859736.0,0.0
1577711641233,5173465.0,5902329.0,0.0
1577711641284,5200692.0,5942587.0,0.0
1577711641333,5224064.0,5961672.0,0.0
1577711641382,5265765.0,6013295.0,0.0
1577711641430,5297899.0,6057507.0,0.0
1577711641474,5323239.0,6106289.0,0.0
1577711641528,5378767.0,6171032.0,0.0
1577711641571,5412146.0,6243728.0,0.0
1577711641620,5436355.0,6274070.0,0.0
1577711641669,5455057.0,6317237.0,0.0
1577711641720,5464350.0,6350521.0,0.0
1577711641768,5473239.0,6386875.0,0.0
1577711641816,5484273.0,6439485.0,0.0
1577711641868,5497402.0,6495830.0,0.0
1577711641915,5520343.0,6550071.0,0.0
1577711641967,5594711.0,6592169.0,0.0
1577711642012,5625760.0,6573935.0,0.0
1577711642069,5633629.0,6558998.0,0.0
1577711642112,5606922.0,6487774.0,0.0
1577711642163,5572120.0,6436612.0,0.0
1577711642208,5514995.0,6377108.0,0.0
1577711642261,5509975.0,6372226.0,0.0
1577711642309,5500635.0,6324717.0,0.0
1577711642359,5502116.0,6299303.0,0.0
1577711642411,5470252.0,6229378.0,0.0
1577711642457,5422492.0,6166552.0,0.0
1577711642510,5387349.0,6127902.0,0.0
1577711642558,5375636.0,6122950.0,0.0
1577711642610,5364520.0,6122386.0,0.0
1577711642653,5352659.0,6118274.0,0.0
1577711642706,5343512.0,6115183.0,0.0
1577711642750,5339205.0,6113298.0,0.0
1577711642805,5325035.0,6104084.0,0.0
1577711642848,5306300.0,6086620.0,0.0
1577711642902,5267246.0,6044201.0,0.0
1577711642955,5238729.0,6008020.0,0.0
1577711643000,5220638.0,5994543.0,0.0
1577711643054,5232950.0,6006711.0,0.0
1577711643098,5255610.0,6036089.0,0.0
1577711643148,5277240.0,6067146.0,0.0
1577711643195,5307645.0,6103143.0,0.0
1577711643245,5324029.0,6120997.0,0.0
1577711643288,5320966.0,6108841.0,0.0
1577711643343,5296475.0,6052841.0,0.0
1577711643388,5249798.0,6003012.0,0.0
1577711643437,5216465.0,5966154.0,0.0
1577711643494,5193364.0,5952216.0,0.0
1577711643534,5167357.0,5935362.0,0.0
1577711643588,5161106.0,5928443.0,0.0
1577711643636,5152026.0,5912693.0,0.0
1577711643687,5146305.0,5916438.0,0.0
1577711643734,5133539.0,5914209.0,0.0
1577711643780,5099426.0,5881131.0,0.0
1577711643828,5047265.0,5835321.0,0.0
1577711643880,5007668.0,5800532.0,0.0
1577711643935,4983210.0,5776898.0,0.0
1577711643979,4964758.0,5756160.0,0.0
1577711644030,4957397.0,5745038.0,0.0
1577711644077,4952003.0,5743832.0,0.0
1577711644128,4932374.0,5732870.0,0.0
1577711644176,4918613.0,5718474.0,0.0
1577711644226,4871893.0,5680202.0,0.0
1577711644274,4849176.0,5664049.0,0.0
1577711644323,4833696.0,5648858.0,0.0
1577711644373,4843715.0,5660407.0,0.0
1577711644421,4854241.0,5669219.0,0.0
1577711644474,4844178.0,5670540.0,0.0
1577711644514,4842642.0,5682489.0,0.0
1577711644568,4854942.0,5693070.0,0.0
1577711644618,4814295.0,5620744.0,0.0
1577711644663,4795152.0,5629303.0,0.0
1577711644715,4782736.0,5571489.0,0.0
1577711644766,4834194.0,5630763.0,0.0
1577711644809,4839554.0,5659648.0,0.0
1577711644863,4840616.0,5674056.0,0.0
1577711644915,4839690.0,5691887.0,0.0
1577711644961,4838662.0,5702193.0,0.0
1577711645009,4814736.0,5683672.0,0.0
1577711645055,4788502.0,5635049.0,0.0
1577711645108,4824267.0,5683363.0,0.0
1577711645157,4813559.0,5649515.0,0.0
1577711645207,4807340.0,5641333.0,0.0
1577711645249,4803858.0,5646528.0,0.0
1577711645305,4824980.0,5657453.0,0.0
1577711645353,4790912.0,5612806.0,0.0
1577711645401,4811920.0,5624227.0,0.0
1577711645456,4827286.0,5608381.0,0.0
1577711645500,4904322.0,5677204.0,0.0
1577711645550,4966521.0,5715854.0,0.0
1577711645598,4985608.0,5718922.0,0.0
1577711645649,5000872.0,5751415.0,0.0
1577711645695,4989125.0,5750036.0,0.0
1577711645746,5016001.0,5778747.0,0.0
1577711645792,5005214.0,5764535.0,0.0
1577711645844,4985981.0,5750942.0,0.0
1577711645897,4982442.0,5714349.0,0.0
1577711645943,4977942.0,5704400.0,0.0
1577711645987,4978598.0,5708593.0,0.0
1577711646039,4976902.0,5696908.0,0.0
1577711646085,4990435.0,5688245.0,0.0
1577711646138,5084387.0,5784045.0,0.0
1577711646186,5185121.0,5829497.0,0.0
1577711646230,5258595.0,5872227.0,0.0
1577711646285,5248601.0,5888576.0,0.0
1577711646331,5266442.0,5909429.0,0.0
1577711646382,5257827.0,5913232.0,0.0
1577711646436,5247774.0,5917219.0,0.0
1577711646483,5248262.0,5928076.0,0.0
1577711646525,5250736.0,5949793.0,0.0
1577711646572,5283076.0,5983605.0,0.0
1577711646622,5295162.0,6006918.0,0.0
1577711646674,5280780.0,5999587.0,0.0
1577711646723,5278201.0,6000115.0,0.0
1577711646769,5278439.0,5993659.0,0.0
1577711646821,5275138.0,5984743.0,0.0
1577711646872,5196113.0,5885795.0,0.0
1577711646922,5171169.0,5848317.0,0.0
1577711646972,5189950.0,5874524.0,0.0
1577711647020,5210473.0,5903225.0,0.0
1577711647070,5173000.0,5862552.0,0.0
1577711647119,5206424.0,5918001.0,0.0
1577711647170,5219630.0,5941772.0,0.0
1577711647211,5249527.0,5989338.0,0.0
1577711647266,5215865.0,5950641.0,0.0
1577711647315,5286853.0,6045902.0,0.0
1577711647364,5190198.0,5895997.0,0.0
1577711647413,5232091.0,5919552.0,0.0
1577711647462,5225195.0,5922768.0,0.0
1577711647511,5208777.0,5921160.0,0.0
1577711647560,5221632.0,5921092.0,0.0
1577711647609,5255984.0,5934443.0,0.0
1577711647651,5220321.0,5877386.0,0.0
1577711647709,5279774.0,5937670.0,0.0
1577711647753,5317991.0,5971036.0,0.0
1577711647806,5302083.0,5970646.0,0.0
1577711647858,5287779.0,5955536.0,0.0
1577711647904,5291715.0,5964946.0,0.0
1577711647953,5279197.0,5971875.0,0.0
1577711648003,5272978.0,5959580.0,0.0
1577711648052,5259851.0,5942806.0,0.0
1577711648101,5255237.0,5956535.0,0.0
1577711648150,5253235.0,5968578.0,0.0
1577711648197,5257285.0,5986995.0,0.0
1577711648251,5238932.0,5951492.0,0.0
1577711648296,5213909.0,5912165.0,0.0
1577711648346,5200386.0,5887680.0,0.0
1577711648398,5161784.0,5860242.0,0.0
1577711648444,5101675.0,5803864.0,0.0
1577711648489,5091374.0,5811722.0,0.0
1577711648538,5140922.0,5845778.0,0.0
1577711648591,5186230.0,5906396.0,0.0
1577711648641,5192970.0,5905189.0,0.0
1577711648690,5199290.0,5910280.0,0.0
1577711648732,5200702.0,5923848.0,0.0
1577711648788,5168375.0,5892252.0,0.0
1577711648838,5211749.0,5930479.0,0.0
1577711648885,5151664.0,5874685.0,0.0
1577711648937,5201064.0,5943554.0,0.0
1577711648983,5156469.0,5893999.0,0.0
1577711649033,5171214.0,5921872.0,0.0
1577711649082,5153440.0,5908901.0,0.0
1577711649130,5124447.0,5877419.0,0.0
1577711649178,5111558.0,5877811.0,0.0
1577711649228,5116476.0,5843745.0,0.0
1577711649274,5054581.0,5812378.0,0.0
1577711649327,5183947.0,5922413.0,0.0
1577711649378,5154072.0,5878959.0,0.0
1577711649424,5149368.0,5883096.0,0.0
1577711649474,5170037.0,5879052.0,0.0
1577711649517,5173678.0,5915840.0,0.0
1577711649572,5155565.0,5909532.0,0.0
1577711649620,5147684.0,5895159.0,0.0
1577711649670,5119020.0,5898423.0,0.0
1577711649713,5186446.0,5941002.0,0.0
1577711649768,5171350.0,5920609.0,0.0
1577711649817,5184749.0,5959145.0,0.0
1577711649867,5156028.0,5932603.0,0.0
1577711649914,5148023.0,5939899.0,0.0
1577711649964,5149222.0,5931443.0,0.0
1577711650014,5151597.0,5892401.0,0.0
1577711650062,5233042.0,5946483.0,0.0
1577711650111,5282872.0,6020302.0,0.0
1577711650154,5256740.0,5991936.0,0.0
1577711650208,5287576.0,6015042.0,0.0
1577711650259,5284545.0,6025094.0,0.0
1577711650302,5298702.0,6055760.0,0.0
1577711650359,5240096.0,6016557.0,0.0
1577711650399,5167494.0,5935613.0,0.0
1577711650453,5203892.0,5976551.0,0.0
1577711650503,5160890.0,5892230.0,0.0
1577711650552,5218149.0,5943209.0,0.0
1577711650597,5185178.0,5921769.0,0.0
1577711650651,5201111.0,5939119.0,0.0
1577711650700,5222944.0,5965394.0,0.0
1577711650748,5138480.0,5884083.0,0.0
1577711650800,5127342.0,5870802.0,0.0
1577711650846,5219529.0,5951514.0,0.0
1577711650895,5189113.0,5915553.0,0.0
1577711650947,5190471.0,5902996.0,0.0
1577711650993,5168422.0,5880670.0,0.0
1577711651042,5190731.0,5926905.0,0.0
1577711651092,5190832.0,5941117.0,0.0
1577711651134,5203902.0,5977895.0,0.0
1577711651188,5221089.0,5993820.0,0.0
1577711651238,5197628.0,5962258.0,0.0
1577711651286,5204378.0,5963901.0,0.0
1577711651335,5217765.0,5975345.0,0.0
1577711651385,5173995.0,5927353.0,0.0
1577711651434,5138287.0,5887186.0,0.0
1577711651483,5127094.0,5928123.0,0.0
1577711651532,5059218.0,5828360.0,0.0
1577711651580,5093195.0,5871124.0,0.0
1577711651631,5138842.0,5949619.0,0.0
1577711651675,5160890.0,5962510.0,0.0
1577711651724,5181108.0,5959042.0,0.0
1577711651777,5183900.0,5978297.0,0.0
1577711651820,5148905.0,5951952.0,0.0
1577711651872,5191714.0,5998369.0,0.0
1577711651921,5145648.0,5949103.0,0.0
1577711651970,5191952.0,5999715.0,0.0
1577711652016,5162983.0,5963222.0,0.0
1577711652071,5170163.0,5988787.0,0.0
1577711652116,5200455.0,6014110.0,0.0
1577711652170,5184048.0,5988488.0,0.0
1577711652220,5151573.0,5949999.0,0.0
1577711652263,5093829.0,5871341.0,0.0
1577711652310,5144484.0,5937750.0,0.0
1577711652359,5181866.0,5966866.0,0.0
1577711652408,5175692.0,5966016.0,0.0
1577711652458,5221948.0,6000898.0,0.0
1577711652513,5258278.0,6044397.0,0.0
1577711652556,5244304.0,6031516.0,0.0
1577711652611,5251053.0,6051084.0,0.0
1577711652663,5196531.0,6006205.0,0.0
1577711652709,5245015.0,6043420.0,0.0
1577711652757,5225872.0,6001897.0,0.0
1577711652808,5216306.0,5989223.0,0.0
1577711652856,5261909.0,6047130.0,0.0
1577711652906,5267494.0,6048602.0,0.0
1577711652955,5266917.0,6045029.0,0.0
1577711652997,5210721.0,6006447.0,0.0
1577711653053,5163853.0,5954124.0,0.0
1577711653101,5254954.0,6028977.0,0.0
1577711653150,5233154.0,5989487.0,0.0
1577711653205,5340968.0,6076692.0,0.0
1577711653249,5386682.0,6131499.0,0.0
1577711653296,5398849.0,6148238.0,0.0
1577711653347,5413481.0,6174319.0,0.0
1577711653395,5396904.0,6147513.0,0.0
1577711653442,5429209.0,6195230.0,0.0
1577711653493,5358370.0,6097236.0,0.0
1577711653537,5338424.0,6066456.0,0.0
1577711653592,5352173.0,6086102.0,0.0
1577711653642,5339883.0,6072798.0,0.0
1577711653690,5348713.0,6092950.0,0.0
1577711653737,5268183.0,6019396.0,0.0
1577711653788,5249086.0,6009641.0,0.0
1577711653835,5315571.0,6043476.0,0.0
1577711653885,5353597.0,6086666.0,0.0
1577711653934,5335111.0,6063343.0,0.0
1577711653980,5349369.0,6073488.0,0.0
1577711654030,5348612.0,6092444.0,0.0
1577711654081,5352909.0,6122112.0,0.0
1577711654132,5301664.0,6083449.0,0.0
1577711654179,5357645.0,6124845.0,0.0
1577711654228,5353870.0,6125293.0,0.0
1577711654277,5364996.0,6132901.0,0.0
1577711654327,5361332.0,6132096.0,0.0
1577711654375,5369077.0,6135622.0,0.0
1577711654423,5350206.0,6109254.0,0.0
1577711654472,5354524.0,6131003.0,0.0
1577711654520,5307816.0,6053254.0,0.0
1577711654571,5365877.0,6109334.0,0.0
1577711654622,5425771.0,6186050.0,0.0
1577711654669,5374244.0,6117768.0,0.0
1577711654718,5364589.0,6105222.0,0.0
1577711654768,5382306.0,6124812.0,0.0
1577711654816,5360562.0,6114332.0,0.0
1577711654866,5381979.0,6154477.0,0.0
1577711654915,5337553.0,6130797.0,0.0
1577711654958,5388424.0,6160635.0,0.0
1577711655012,5330746.0,6089860.0,0.0
1577711655062,5377117.0,6148537.0,0.0
1577711655111,5403666.0,6180455.0,0.0
1577711655158,5385144.0,6150800.0,0.0
1577711655210,5362893.0,6137313.0,0.0
1577711655253,5293466.0,6049566.0,0.0
1577711655302,5387938.0,6125580.0,0.0
1577711655355,5392337.0,6132325.0,0.0
1577711655404,5361976.0,6095708.0,0.0
1577711655455,5416647.0,6157303.0,0.0
1577711655507,5417766.0,6174342.0,0.0
1577711655547,5428847.0,6195769.0,0.0
1577711655600,5405125.0,6205501.0,0.0
1577711655651,5396508.0,6161313.0,0.0
1577711655698,5397910.0,6145009.0,0.0
1577711655749,5364057.0,6091906.0,0.0
1577711655796,5394732.0,6143952.0,0.0
1577711655844,5398928.0,6143033.0,0.0
1577711655895,5331346.0,6080152.0,0.0
1577711655946,5295672.0,6041800.0,0.0
1577711655993,5334115.0,6076843.0,0.0
1577711656047,5335212.0,6082242.0,0.0
1577711656087,5334737.0,6066031.0,0.0
1577711656141,5370128.0,6082898.0,0.0
1577711656190,5406695.0,6149179.0,0.0
1577711656238,5427376.0,6196356.0,0.0
1577711656289,5439453.0,6205627.0,0.0
1577711656336,5427817.0,6194438.0,0.0
1577711656379,5458787.0,6236983.0,0.0
1577711656435,5402772.0,6162795.0,0.0
1577711656486,5405746.0,6155212.0,0.0
1577711656533,5395512.0,6140436.0,0.0
1577711656578,5411252.0,6158602.0,0.0
1577711656631,5355272.0,6111909.0,0.0
1577711656673,5311173.0,6055209.0,0.0
1577711656723,5361536.0,6105003.0,0.0
1577711656770,5388084.0,6108267.0,0.0
1577711656823,5440503.0,6176732.0,0.0
1577711656871,5427456.0,6136565.0,0.0
1577711656920,5439599.0,6169942.0,0.0
1577711656970,5434229.0,6168253.0,0.0
1577711657022,5425001.0,6158934.0,0.0
1577711657073,5363594.0,6123123.0,0.0
1577711657121,5438752.0,6209166.0,0.0
1577711657164,5397073.0,6133175.0,0.0
1577711657218,5418546.0,6149411.0,0.0
1577711657269,5419383.0,6138944.0,0.0
1577711657317,5381900.0,6097523.0,0.0
1577711657366,5367415.0,6077349.0,0.0
1577711657416,5325070.0,6049589.0,0.0
1577711657464,5302127.0,6007917.0,0.0
1577711657514,5378293.0,6088712.0,0.0
1577711657562,5375433.0,6086563.0,0.0
1577711657613,5416082.0,6126373.0,0.0
1577711657660,5434420.0,6157545.0,0.0
1577711657711,5436672.0,6174573.0,0.0
1577711657759,5426675.0,6143585.0,0.0
1577711657803,5481878.0,6216245.0,0.0
1577711657852,5463673.0,6213349.0,0.0
1577711657907,5419936.0,6121193.0,0.0
1577711657956,5460937.0,6173916.0,0.0
1577711658009,5426484.0,6126604.0,0.0
1577711658052,5468149.0,6181592.0,0.0
1577711658101,5426675.0,6130004.0,0.0
1577711658145,5458245.0,6127384.0,0.0
1577711658199,5450817.0,6103004.0,0.0
1577711658251,5436399.0,6090894.0,0.0
1577711658297,5478621.0,6132624.0,0.0
1577711658344,5452456.0,6111552.0,0.0
1577711658395,5462735.0,6156810.0,0.0
1577711658449,5485440.0,6184786.0,0.0
1577711658493,5478653.0,6194151.0,0.0
1577711658543,5448057.0,6151421.0,0.0
1577711658592,5460687.0,6122927.0,0.0
1577711658641,5390482.0,6029896.0,0.0
1577711658685,5398611.0,6038455.0,0.0
1577711658739,5400218.0,6042628.0,0.0
1577711658788,5381390.0,6027117.0,0.0
1577711658837,5366544.0,6019740.0,0.0
1577711658886,5366204.0,6043018.0,0.0
1577711658935,5315358.0,5938291.0,0.0
1577711658985,5302546.0,5948816.0,0.0
1577711659034,5287021.0,5914588.0,0.0
1577711659082,5297265.0,5917289.0,0.0
1577711659131,5309533.0,5952262.0,0.0
1577711659180,5312349.0,5978436.0,0.0
1577711659229,5312158.0,6003654.0,0.0
1577711659278,5335415.0,6032010.0,0.0
1577711659325,5293253.0,5962304.0,0.0
1577711659375,5265820.0,5932455.0,0.0
1577711659426,5280079.0,5948643.0,0.0
1577711659475,5268715.0,5940209.0,0.0
1577711659521,5278169.0,5937798.0,0.0
1577711659572,5232351.0,5894930.0,0.0
1577711659621,5185314.0,5849546.0,0.0
1577711659671,5213299.0,5881831.0,0.0
1577711659720,5220309.0,5894435.0,0.0
1577711659766,5310417.0,6000978.0,0.0
1577711659816,5339192.0,6015075.0,0.0
1577711659867,5284341.0,5969071.0,0.0
1577711659915,5325060.0,6030472.0,0.0
1577711659965,5322300.0,6014466.0,0.0
1577711660007,5349560.0,6054494.0,0.0
1577711660063,5338865.0,6061861.0,0.0
1577711660111,5270456.0,5951343.0,0.0
1577711660160,5264125.0,5926641.0,0.0
1577711660209,5226709.0,5880039.0,0.0
1577711660257,5229129.0,5886841.0,0.0
1577711660307,5182000.0,5837551.0,0.0
1577711660350,5165074.0,5821741.0,0.0
1577711660407,5218681.0,5866436.0,0.0
1577711660455,5239984.0,5888691.0,0.0
1577711660504,5250444.0,5894366.0,0.0
1577711660549,5282600.0,5915633.0,0.0
1577711660601,5264678.0,5897734.0,0.0
1577711660651,5248002.0,5898939.0,0.0
1577711660699,5258607.0,5928066.0,0.0
1577711660749,5217483.0,5901330.0,0.0
1577711660793,5277988.0,5977114.0,0.0
1577711660850,5205611.0,5864999.0,0.0
1577711660896,5227637.0,5908946.0,0.0
1577711660947,5210122.0,5882590.0,0.0
1577711660994,5188447.0,5846858.0,0.0
1577711661044,5169044.0,5823925.0,0.0
1577711661085,5130916.0,5764065.0,0.0
1577711661139,5175635.0,5823845.0,0.0
1577711661187,5176145.0,5818846.0,0.0
1577711661238,5168083.0,5806852.0,0.0
1577711661289,5233777.0,5858657.0,0.0
1577711661337,5232918.0,5897205.0,0.0
1577711661386,5194914.0,5847087.0,0.0
1577711661436,5229163.0,5889185.0,0.0
1577711661483,5204933.0,5882085.0,0.0
1577711661533,5235145.0,5913841.0,0.0
1577711661581,5195942.0,5843928.0,0.0
1577711661627,5194949.0,5840297.0,0.0
1577711661680,5207667.0,5851177.0,0.0
1577711661732,5199709.0,5846984.0,0.0
1577711661778,5121735.0,5753643.0,0.0
1577711661830,5098418.0,5714235.0,0.0
1577711661874,5140776.0,5749621.0,0.0
1577711661926,5159070.0,5765006.0,0.0
1577711661969,5167449.0,5768212.0,0.0
1577711662023,5193953.0,5808183.0,0.0
1577711662068,5220490.0,5867734.0,0.0
1577711662121,5207588.0,5862323.0,0.0
1577711662173,5172977.0,5859117.0,0.0
1577711662212,5207035.0,5835369.0,0.0
1577711662269,5159556.0,5767523.0,0.0
1577711662310,5158030.0,5762560.0,0.0
1577711662361,5168806.0,5779965.0,0.0
1577711662411,5156774.0,5780036.0,0.0
1577711662461,5152377.0,5775921.0,0.0
1577711662511,5111954.0,5746221.0,0.0
1577711662556,5061615.0,5689866.0,0.0
1577711662609,5108018.0,5695896.0,0.0
1577711662657,5110089.0,5694736.0,0.0
1577711662709,5120184.0,5710466.0,0.0
1577711662754,5120184.0,5715522.0,0.0
1577711662804,5135360.0,5762950.0,0.0
1577711662852,5164531.0,5819524.0,0.0
1577711662903,5175523.0,5842974.0,0.0
1577711662950,5168851.0,5845788.0,0.0
1577711663000,5149698.0,5799417.0,0.0
1577711663050,5117561.0,5726494.0,0.0
1577711663098,5129264.0,5739270.0,0.0
1577711663149,5122944.0,5736984.0,0.0
1577711663195,5126812.0,5755666.0,0.0
1577711663250,5103382.0,5731825.0,0.0
1577711663293,5076154.0,5726276.0,0.0
1577711663343,5043262.0,5654088.0,0.0
1577711663391,5107803.0,5702676.0,0.0
1577711663441,5079604.0,5668413.0,0.0
1577711663489,5107441.0,5716508.0,0.0
1577711663538,5116229.0,5735444.0,0.0
1577711663587,5115481.0,5749208.0,0.0
1577711663641,5137066.0,5791766.0,0.0
1577711663690,5159523.0,5824074.0,0.0
1577711663739,5154401.0,5816768.0,0.0
1577711663789,5128360.0,5761732.0,0.0
1577711663830,5077071.0,5674745.0,0.0
1577711663886,5106017.0,5714752.0,0.0
1577711663934,5114339.0,5731148.0,0.0
1577711663985,5097051.0,5728803.0,0.0
1577711664028,5031074.0,5667047.0,0.0
1577711664083,5048962.0,5722058.0,0.0
1577711664131,5044766.0,5682638.0,0.0
1577711664180,5094247.0,5733698.0,0.0
1577711664228,5074448.0,5709351.0,0.0
1577711664272,5112588.0,5759170.0,0.0
1577711664323,5128519.0,5785538.0,0.0
1577711664370,5125896.0,5798808.0,0.0
1577711664420,5151811.0,5826200.0,0.0
1577711664469,5143025.0,5841664.0,0.0
1577711664520,5149549.0,5827474.0,0.0
1577711664569,5100781.0,5738628.0,0.0
1577711664624,5120140.0,5766040.0,0.0
1577711664671,5123092.0,5772498.0,0.0
1577711664721,5121859.0,5784951.0,0.0
1577711664774,5089826.0,5764087.0,0.0
1577711664819,5071349.0,5749679.0,0.0
1577711664867,5071758.0,5738892.0,0.0
1577711664917,5094406.0,5729849.0,0.0
1577711664967,5080791.0,5702837.0,0.0
1577711665014,5096112.0,5712970.0,0.0
1577711665065,5108719.0,5744520.0,0.0
1577711665111,5131345.0,5781309.0,0.0
1577711665162,5116600.0,5780413.0,0.0
1577711665215,5140979.0,5828199.0,0.0
1577711665260,5148769.0,5829704.0,0.0
1577711665310,5075206.0,5682363.0,0.0
1577711665358,5070242.0,5657546.0,0.0
1577711665409,5081774.0,5668413.0,0.0
1577711665450,5069383.0,5664507.0,0.0
1577711665499,5028768.0,5639232.0,0.0
1577711665549,4952206.0,5598938.0,0.0
1577711665604,4983572.0,5627592.0,0.0
1577711665656,5015708.0,5659189.0,0.0
1577711665696,5076855.0,5734294.0,0.0
1577711665752,5086874.0,5704274.0,0.0
1577711665800,5137294.0,5769546.0,0.0
1577711665848,5151597.0,5808563.0,0.0
1577711665899,5169202.0,5819226.0,0.0
1577711665949,5186547.0,5831783.0,0.0
1577711665994,5205282.0,5879913.0,0.0
1577711666045,5133188.0,5772440.0,0.0
1577711666096,5108912.0,5717014.0,0.0
1577711666142,5106730.0,5700205.0,0.0
1577711666196,5106163.0,5691003.0,0.0
1577711666241,5228564.0,5784976.0,0.0
1577711666290,5170389.0,5686051.0,0.0
1577711666339,5218285.0,5735812.0,0.0
1577711666389,5219890.0,5781528.0,0.0
1577711666437,5186580.0,5749462.0,0.0
1577711666486,5169145.0,5737674.0,0.0
1577711666531,5143432.0,5697942.0,0.0
1577711666583,5128405.0,5681626.0,0.0
1577711666634,5132635.0,5705032.0,0.0
1577711666681,5141680.0,5738109.0,0.0
1577711666732,5171439.0,5794729.0,0.0
1577711666780,5109534.0,5686305.0,0.0
1577711666825,5097853.0,5675181.0,0.0
1577711666877,5092766.0,5641069.0,0.0
1577711666928,5087429.0,5624501.0,0.0
1577711666970,5048689.0,5588804.0,0.0
1577711667025,5002445.0,5581520.0,0.0
1577711667073,4971044.0,5554807.0,0.0
1577711667123,5050116.0,5627788.0,0.0
1577711667172,5051473.0,5630614.0,0.0
1577711667221,5056627.0,5633934.0,0.0
1577711667265,5061898.0,5612564.0,0.0
1577711667315,5054819.0,5605578.0,0.0
1577711667364,5046044.0,5611749.0,0.0
1577711667414,5068862.0,5667955.0,0.0
1577711667464,5088830.0,5701861.0,0.0
1577711667516,5047084.0,5631362.0,0.0
1577711667560,5054277.0,5635887.0,0.0
1577711667617,5069224.0,5642483.0,0.0
1577711667662,5034138.0,5580382.0,0.0
1577711667712,5021848.0,5553922.0,0.0
1577711667753,4963096.0,5517937.0,0.0
1577711667810,4953134.0,5508044.0,0.0
1577711667856,5002195.0,5532884.0,0.0
1577711667908,5043354.0,5586425.0,0.0
1577711667958,5047617.0,5582346.0,0.0
1577711668006,5052862.0,5602867.0,0.0
1577711668058,5042834.0,5587862.0,0.0
1577711668099,5044506.0,5598156.0,0.0
1577711668152,5059941.0,5623789.0,0.0
1577711668201,5067652.0,5655971.0,0.0
1577711668251,5079842.0,5639944.0,0.0
1577711668299,5039045.0,5594939.0,0.0
1577711668350,5060496.0,5634681.0,0.0
1577711668392,5047084.0,5609061.0,0.0
1577711668447,4990120.0,5524176.0,0.0
1577711668498,4950477.0,5515513.0,0.0
1577711668545,4944381.0,5521050.0,0.0
1577711668597,5011445.0,5572938.0,0.0
1577711668642,5009454.0,5561092.0,0.0
1577711668692,5063808.0,5610749.0,0.0
1577711668741,5071904.0,5621227.0,0.0
1577711668790,5088818.0,5631591.0,0.0
1577711668837,5086659.0,5609116.0,0.0
1577711668890,5112813.0,5649135.0,0.0
1577711668933,5142337.0,5684558.0,0.0
1577711668986,5091510.0,5613989.0,0.0
1577711669035,5072095.0,5600454.0,0.0
1577711669084,5082703.0,5607682.0,0.0
1577711669133,5074074.0,5599132.0,0.0
1577711669182,5074165.0,5585713.0,0.0
1577711669231,4999753.0,5500506.0,0.0
1577711669280,5027557.0,5483307.0,0.0
1577711669330,4996961.0,5451895.0,0.0
1577711669374,4981367.0,5465936.0,0.0
1577711669428,4952750.0,5492339.0,0.0
1577711669477,4948701.0,5529622.0,0.0
1577711669520,4980317.0,5587678.0,0.0
1577711669574,4975884.0,5579200.0,0.0
1577711669623,4982192.0,5594537.0,0.0
1577711669673,4975284.0,5561814.0,0.0
1577711669722,4929491.0,5500277.0,0.0
1577711669771,4950930.0,5522188.0,0.0
1577711669820,4956978.0,5540537.0,0.0
1577711669868,4975658.0,5558046.0,0.0
1577711669918,4975341.0,5574878.0,0.0
1577711669967,4941521.0,5545362.0,0.0
1577711670019,4932916.0,5507402.0,0.0
1577711670064,5022299.0,5561814.0,0.0
1577711670113,4974494.0,5515891.0,0.0
1577711670162,4979512.0,5540157.0,0.0
1577711670212,4990923.0,5570019.0,0.0
1577711670261,4991069.0,5592803.0,0.0
1577711670304,4963242.0,5568501.0,0.0
1577711670360,5012677.0,5626341.0,0.0
1577711670410,5021395.0,5625226.0,0.0
1577711670459,5013684.0,5604349.0,0.0
1577711670507,4976981.0,5570180.0,0.0
1577711670554,5008144.0,5611358.0,0.0
1577711670599,5014893.0,5623077.0,0.0
1577711670649,4978564.0,5583093.0,0.0
1577711670695,5009432.0,5631706.0,0.0
1577711670748,4970717.0,5552957.0,0.0
1577711670797,5040776.0,5627904.0,0.0
1577711670847,5038910.0,5630901.0,0.0
1577711670902,5063820.0,5670689.0,0.0
1577711670948,5092608.0,5707123.0,0.0
1577711671000,5098441.0,5719095.0,0.0
1577711671047,5116826.0,5709927.0,0.0
1577711671095,5151449.0,5745889.0,0.0
1577711671144,5164090.0,5761538.0,0.0
1577711671194,5085710.0,5622938.0,0.0
1577711671244,5122039.0,5667472.0,0.0
1577711671292,5145344.0,5707053.0,0.0
1577711671340,5098339.0,5651893.0,0.0
1577711671390,5048872.0,5623847.0,0.0
1577711671434,5033697.0,5626570.0,0.0
1577711671489,5034284.0,5603235.0,0.0
1577711671538,5069563.0,5614988.0,0.0
1577711671587,5052615.0,5587367.0,0.0
1577711671635,5096598.0,5632635.0,0.0
1577711671684,5122730.0,5698896.0,0.0
1577711671733,5111976.0,5713981.0,0.0
1577711671783,5111298.0,5714890.0,0.0
1577711671831,5127875.0,5737742.0,0.0
1577711671875,5111931.0,5691255.0,0.0
1577711671924,5065108.0,5609313.0,0.0
1577711671974,5104863.0,5641059.0,0.0
1577711672022,5117844.0,5654523.0,0.0
1577711672074,5106480.0,5650789.0,0.0
1577711672123,5046656.0,5600064.0,0.0
1577711672172,5090064.0,5665139.0,0.0
1577711672220,5049573.0,5586242.0,0.0
1577711672273,5088130.0,5621433.0,0.0
1577711672320,5071553.0,5611943.0,0.0
1577711672374,5069586.0,5614437.0,0.0
1577711672418,5074255.0,5649445.0,0.0
1577711672471,5079253.0,5672689.0,0.0
1577711672522,5085698.0,5681593.0,0.0
1577711672565,5111501.0,5726172.0,0.0
1577711672615,5112068.0,5726183.0,0.0
1577711672666,5060528.0,5623157.0,0.0
1577711672714,5043173.0,5575108.0,0.0
1577711672763,5081742.0,5606763.0,0.0
1577711672813,5082183.0,5611208.0,0.0
1577711672856,5043602.0,5583611.0,0.0
1577711672911,5008956.0,5580302.0,0.0
1577711672963,5021769.0,5577566.0,0.0
1577711673009,5031005.0,5566548.0,0.0
1577711673061,5016476.0,5537263.0,0.0
1577711673109,5044179.0,5552140.0,0.0
1577711673156,5042358.0,5563113.0,0.0
1577711673206,5073204.0,5627166.0,0.0
1577711673253,5046034.0,5600627.0,0.0
1577711673297,5047344.0,5643482.0,0.0
1577711673353,5091996.0,5671091.0,0.0
1577711673397,5012620.0,5529013.0,0.0
1577711673449,5014645.0,5496646.0,0.0
1577711673503,5033323.0,5500599.0,0.0
1577711673548,5043059.0,5516857.0,0.0
1577711673597,4985608.0,5467912.0,0.0
1577711673648,4990266.0,5511630.0,0.0
1577711673695,4987292.0,5497174.0,0.0
1577711673745,5007567.0,5523532.0,0.0
1577711673793,4990333.0,5478298.0,0.0
1577711673839,4973870.0,5452539.0,0.0
1577711673892,4987247.0,5475920.0,0.0
1577711673941,4989474.0,5492153.0,0.0
1577711673990,4997786.0,5524418.0,0.0
1577711674043,5002195.0,5556484.0,0.0
1577711674088,5034443.0,5600869.0,0.0
1577711674137,4992245.0,5518798.0,0.0
1577711674187,4967121.0,5451941.0,0.0
1577711674230,4985721.0,5453091.0,0.0
1577711674280,4983663.0,5441393.0,0.0
1577711674329,4963514.0,5428009.0,0.0
1577711674379,4957758.0,5459949.0,0.0
1577711674428,4965392.0,5434983.0,0.0
1577711674478,5007364.0,5494786.0,0.0
1577711674530,4984636.0,5477367.0,0.0
1577711674577,4980339.0,5470358.0,0.0
1577711674628,4988401.0,5479459.0,0.0
1577711674676,4988062.0,5488559.0,0.0
1577711674727,4978259.0,5497255.0,0.0
1577711674774,5009806.0,5560412.0,0.0
1577711674824,5007284.0,5555600.0,0.0
1577711674872,4980892.0,5517972.0,0.0
1577711674924,4964656.0,5465521.0,0.0
1577711674973,4964057.0,5438695.0,0.0
1577711675020,4974697.0,5432926.0,0.0
1577711675068,4972887.0,5426974.0,0.0
1577711675117,4928111.0,5406224.0,0.0
1577711675167,4980847.0,5451286.0,0.0
1577711675215,5026631.0,5500531.0,0.0
1577711675266,4999889.0,5480526.0,0.0
1577711675315,5001122.0,5485388.0,0.0
1577711675360,4996486.0,5480045.0,0.0
1577711675411,4979277.0,5474334.0,0.0
1577711675463,5026811.0,5535872.0,0.0
1577711675505,5009952.0,5546213.0,0.0
1577711675558,4980768.0,5499094.0,0.0
1577711675608,4943930.0,5467728.0,0.0
1577711675656,4956785.0,5491753.0,0.0
1577711675706,4934467.0,5445495.0,0.0
1577711675751,4894258.0,5401226.0,0.0
1577711675799,4825827.0,5348558.0,0.0
1577711675850,4770344.0,5335106.0,0.0
1577711675902,4834330.0,5401628.0,0.0
1577711675952,4873317.0,5463613.0,0.0
1577711676000,4917562.0,5490200.0,0.0
1577711676049,4935200.0,5518614.0,0.0
1577711676098,4912666.0,5483790.0,0.0
1577711676149,4892314.0,5465453.0,0.0
1577711676195,4877998.0,5478205.0,0.0
1577711676241,4886875.0,5510515.0,0.0
1577711676294,4858030.0,5457938.0,0.0
1577711676343,4860619.0,5447277.0,0.0
1577711676392,4878699.0,5464006.0,0.0
1577711676444,4849131.0,5423849.0,0.0
1577711676484,4806560.0,5357497.0,0.0
1577711676539,4778168.0,5356636.0,0.0
1577711676582,4805168.0,5372444.0,0.0
1577711676630,4843264.0,5415302.0,0.0
1577711676681,4864983.0,5439900.0,0.0
1577711676729,4916916.0,5465959.0,0.0
1577711676780,4917042.0,5483181.0,0.0
1577711676834,4926957.0,5514857.0,0.0
1577711676885,4875522.0,5437499.0,0.0
1577711676933,4889406.0,5451689.0,0.0
1577711676982,4890481.0,5446748.0,0.0
1577711677030,4846451.0,5393379.0,0.0
1577711677080,4840527.0,5406133.0,0.0
1577711677130,4837768.0,5415267.0,0.0
1577711677177,4789520.0,5371629.0,0.0
1577711677230,4769641.0,5368573.0,0.0
1577711677276,4675285.0,5299200.0,0.0
1577711677322,4645514.0,5314871.0,0.0
1577711677375,4679050.0,5342170.0,0.0
1577711677425,4696632.0,5393736.0,0.0
1577711677473,4751652.0,5439991.0,0.0
1577711677521,4779966.0,5466394.0,0.0
1577711677566,4804864.0,5504701.0,0.0
1577711677620,4770852.0,5461212.0,0.0
1577711677663,4765923.0,5469497.0,0.0
1577711677711,4805713.0,5502678.0,0.0
1577711677764,4813332.0,5541272.0,0.0
1577711677812,4798498.0,5495646.0,0.0
1577711677861,4773621.0,5498450.0,0.0
1577711677909,4791803.0,5539881.0,0.0
1577711677965,4753349.0,5496910.0,0.0
1577711678013,4720479.0,5449321.0,0.0
1577711678060,4660766.0,5402846.0,0.0
1577711678104,4662755.0,5425837.0,0.0
1577711678159,4695875.0,5449218.0,0.0
1577711678208,4699515.0,5485468.0,0.0
1577711678256,4758176.0,5527415.0,0.0
1577711678304,4803293.0,5544592.0,0.0
1577711678351,4816091.0,5581945.0,0.0
1577711678407,4774922.0,5535298.0,0.0
1577711678447,4848589.0,5619090.0,0.0
1577711678502,4800646.0,5567479.0,0.0
1577711678552,4838221.0,5587815.0,0.0
1577711678600,4817483.0,5562436.0,0.0
1577711678650,4835811.0,5595939.0,0.0
1577711678698,4829785.0,5602178.0,0.0
1577711678744,4779174.0,5543902.0,0.0
1577711678795,4735132.0,5506068.0,0.0
1577711678847,4674809.0,5484985.0,0.0
1577711678894,4725386.0,5516868.0,0.0
1577711678944,4731798.0,5551682.0,0.0
1577711678993,4755825.0,5566055.0,0.0
1577711679042,4820207.0,5620376.0,0.0
1577711679092,4832193.0,5636325.0,0.0
1577711679140,4852455.0,5639093.0,0.0
1577711679189,4773871.0,5566042.0,0.0
1577711679238,4870796.0,5655558.0,0.0
1577711679282,4816997.0,5608462.0,0.0
1577711679335,4823962.0,5606763.0,0.0
1577711679386,4823318.0,5584346.0,0.0
1577711679434,4825104.0,5587815.0,0.0
1577711679483,4805475.0,5567537.0,0.0
1577711679533,4761839.0,5497635.0,0.0
1577711679579,4702614.0,5441257.0,0.0
1577711679627,4671587.0,5449401.0,0.0
1577711679679,4693308.0,5488960.0,0.0
1577711679725,4714802.0,5534195.0,0.0
1577711679776,4749832.0,5562390.0,0.0
1577711679827,4824153.0,5606406.0,0.0
1577711679875,4835777.0,5618126.0,0.0
1577711679925,4821371.0,5606129.0,0.0
1577711679975,4824301.0,5621640.0,0.0
1577711680023,4830803.0,5622329.0,0.0
1577711680072,4857171.0,5654810.0,0.0
1577711680120,4838085.0,5611542.0,0.0
1577711680168,4821022.0,5584943.0,0.0
1577711680218,4833121.0,5604360.0,0.0
1577711680266,4820717.0,5585220.0,0.0
1577711680317,4777014.0,5520132.0,0.0
1577711680368,4745094.0,5512214.0,0.0
1577711680408,4673261.0,5467280.0,0.0
1577711680466,4685687.0,5506803.0,0.0
1577711680514,4710280.0,5533757.0,0.0
1577711680563,4724323.0,5567686.0,0.0
1577711680612,4787169.0,5608336.0,0.0
1577711680661,4806050.0,5625100.0,0.0
1577711680710,4800138.0,5599593.0,0.0
1577711680759,4797468.0,5618584.0,0.0
1577711680806,4871960.0,5702286.0,0.0
1577711680853,4846711.0,5684374.0,0.0
1577711680906,4866454.0,5687281.0,0.0
1577711680951,4821780.0,5614656.0,0.0
1577711680998,4828066.0,5633257.0,0.0
1577711681054,4780304.0,5554473.0,0.0
1577711681102,4761693.0,5532275.0,0.0
1577711681150,4722334.0,5509906.0,0.0
1577711681200,4677264.0,5471634.0,0.0
1577711681246,4699357.0,5509146.0,0.0
1577711681297,4744462.0,5573373.0,0.0
1577711681349,4781423.0,5590976.0,0.0
1577711681395,4796452.0,5610012.0,0.0
1577711681446,4816284.0,5603602.0,0.0
1577711681494,4821948.0,5628155.0,0.0
1577711681543,4837282.0,5647285.0,0.0
1577711681593,4816351.0,5652019.0,0.0
1577711681642,4843806.0,5667495.0,0.0
1577711681687,4818637.0,5611633.0,0.0
1577711681735,4824561.0,5620998.0,0.0
1577711681786,4821428.0,5610025.0,0.0
1577711681837,4758550.0,5516742.0,0.0
1577711681886,4729864.0,5486732.0,0.0
1577711681935,4655270.0,5447966.0,0.0
1577711681986,4640684.0,5451228.0,0.0
1577711682034,4675342.0,5494773.0,0.0
1577711682082,4707362.0,5549900.0,0.0
1577711682131,4743771.0,5555852.0,0.0
1577711682176,4738842.0,5548269.0,0.0
1577711682230,4773973.0,5566020.0,0.0
1577711682277,4772853.0,5574891.0,0.0
1577711682329,4776427.0,5608980.0,0.0
1577711682377,4838897.0,5647688.0,0.0
1577711682425,4785552.0,5580186.0,0.0
1577711682470,4801042.0,5598858.0,0.0
1577711682519,4826189.0,5621952.0,0.0
1577711682566,4799402.0,5578440.0,0.0
1577711682621,4781990.0,5558449.0,0.0
1577711682674,4752873.0,5547235.0,0.0
1577711682713,4661172.0,5455698.0,0.0
1577711682773,4698114.0,5495188.0,0.0
1577711682817,4690933.0,5497222.0,0.0
1577711682867,4764554.0,5571076.0,0.0
1577711682916,4844619.0,5639438.0,0.0
1577711682964,4829525.0,5643804.0,0.0
1577711683008,4859759.0,5657201.0,0.0
1577711683062,4818421.0,5634060.0,0.0
1577711683110,4897040.0,5702802.0,0.0
1577711683160,4906526.0,5725757.0,0.0
1577711683212,4872616.0,5676686.0,0.0
1577711683258,4862667.0,5677617.0,0.0
1577711683308,4878632.0,5678651.0,0.0
1577711683355,4860688.0,5645148.0,0.0
1577711683406,4839803.0,5641426.0,0.0
1577711683447,4724809.0,5512720.0,0.0
1577711683499,4722876.0,5547924.0,0.0
1577711683550,4743749.0,5550567.0,0.0
1577711683597,4755293.0,5591539.0,0.0
1577711683649,4807984.0,5632796.0,0.0
1577711683695,4831707.0,5645722.0,0.0
1577711683744,4843828.0,5644585.0,0.0
1577711683792,4819449.0,5632210.0,0.0
1577711683843,4916500.0,5736697.0,0.0
1577711683891,4869258.0,5681719.0,0.0
1577711683940,4889622.0,5701906.0,0.0
1577711683991,4877852.0,5681548.0,0.0
1577711684038,4886444.0,5706467.0,0.0
1577711684089,4852579.0,5666128.0,0.0
1577711684136,4850952.0,5661394.0,0.0
1577711684189,4757804.0,5565307.0,0.0
1577711684233,4769304.0,5575671.0,0.0
1577711684284,4748848.0,5572558.0,0.0
1577711684332,4835608.0,5705238.0,0.0
1577711684381,4860326.0,5667220.0,0.0
1577711684430,4910100.0,5744417.0,0.0
1577711684484,4940537.0,5769682.0,0.0
1577711684532,4872492.0,5712396.0,0.0
1577711684576,4878778.0,5732354.0,0.0
1577711684634,4890177.0,5717751.0,0.0
1577711684678,4900171.0,5718577.0,0.0
1577711684726,4904966.0,5720256.0,0.0
1577711684777,4917223.0,5732686.0,0.0
1577711684826,4879841.0,5666933.0,0.0
1577711684873,4876111.0,5658052.0,0.0
1577711684924,4777648.0,5558781.0,0.0
1577711684969,4767347.0,5584460.0,0.0
1577711685022,4791499.0,5596502.0,0.0
1577711685075,4802399.0,5634394.0,0.0
1577711685120,4842573.0,5663118.0,0.0
1577711685170,4901699.0,5721507.0,0.0
1577711685217,4918987.0,5746762.0,0.0
1577711685267,4863932.0,5682822.0,0.0
1577711685315,4888106.0,5714281.0,0.0
1577711685365,4899990.0,5720704.0,0.0
1577711685410,4925568.0,5735847.0,0.0
1577711685463,4916691.0,5705354.0,0.0
1577711685513,4922717.0,5726528.0,0.0
1577711685561,4926053.0,5729711.0,0.0
1577711685614,4890154.0,5679985.0,0.0
1577711685659,4871586.0,5665313.0,0.0
1577711685709,4784296.0,5576361.0,0.0
1577711685757,4778666.0,5590115.0,0.0
1577711685807,4814191.0,5613299.0,0.0
1577711685856,4819269.0,5661716.0,0.0
1577711685905,4894789.0,5722644.0,0.0
1577711685951,4936649.0,5754219.0,0.0
1577711686005,4927817.0,5744716.0,0.0
1577711686055,4874402.0,5700494.0,0.0
1577711686099,4953439.0,5773588.0,0.0
1577711686156,4953563.0,5767902.0,0.0
1577711686199,4977162.0,5795718.0,0.0
1577711686249,4977387.0,5785125.0,0.0
1577711686297,4963141.0,5771383.0,0.0
1577711686348,4939192.0,5736881.0,0.0
1577711686394,4893171.0,5663370.0,0.0
1577711686446,4846892.0,5622709.0,0.0
1577711686493,4811276.0,5594974.0,0.0
1577711686543,4846315.0,5633670.0,0.0
1577711686595,4879853.0,5680788.0,0.0
1577711686635,4899256.0,5706985.0,0.0
1577711686684,4937858.0,5744590.0,0.0
1577711686734,4967799.0,5781322.0,0.0
1577711686784,4936706.0,5740626.0,0.0
1577711686833,4951901.0,5767616.0,0.0
1577711686881,4943207.0,5756378.0,0.0
1577711686932,4973815.0,5782620.0,0.0
1577711686986,4962100.0,5749508.0,0.0
1577711687034,4975284.0,5767120.0,0.0
1577711687083,4966363.0,5762169.0,0.0
1577711687135,4932158.0,5698068.0,0.0
1577711687180,4880633.0,5626489.0,0.0
1577711687230,4850679.0,5606003.0,0.0
1577711687278,4850669.0,5624295.0,0.0
1577711687329,4907623.0,5690749.0,0.0
1577711687376,4965583.0,5734272.0,0.0
1577711687426,4967369.0,5751896.0,0.0
1577711687474,5008199.0,5815997.0,0.0
1577711687519,4948463.0,5736569.0,0.0
1577711687576,5022210.0,5804989.0,0.0
1577711687622,4973870.0,5759640.0,0.0
1577711687672,4987824.0,5754471.0,0.0
1577711687719,4957352.0,5702183.0,0.0
1577711687769,4976337.0,5748864.0,0.0
1577711687817,4957543.0,5730665.0,0.0
1577711687871,4939237.0,5705686.0,0.0
1577711687911,4916929.0,5676595.0,0.0
1577711687966,4865243.0,5628143.0,0.0
1577711688015,4881458.0,5661681.0,0.0
1577711688063,4921293.0,5716946.0,0.0
1577711688112,4946881.0,5736536.0,0.0
1577711688161,4990403.0,5779288.0,0.0
1577711688211,5031163.0,5833761.0,0.0
1577711688260,4971463.0,5778818.0,0.0
1577711688308,4958776.0,5766936.0,0.0
1577711688350,4995015.0,5794512.0,0.0
1577711688407,4973295.0,5750255.0,0.0
1577711688455,4966566.0,5723449.0,0.0
1577711688505,4976902.0,5728171.0,0.0
1577711688558,4956300.0,5715590.0,0.0
1577711688602,4963525.0,5722679.0,0.0
1577711688652,4905577.0,5642677.0,0.0
1577711688694,4834184.0,5567099.0,0.0
1577711688750,4843432.0,5599397.0,0.0
1577711688792,4875125.0,5626789.0,0.0
1577711688847,4902105.0,5680650.0,0.0
1577711688891,4929129.0,5709270.0,0.0
1577711688947,5000454.0,5784377.0,0.0
1577711689000,4970016.0,5766730.0,0.0
1577711689044,4937597.0,5718761.0,0.0
1577711689093,5050217.0,5818169.0,0.0
1577711689135,5000003.0,5777690.0,0.0
1577711689185,5019641.0,5776691.0,0.0
1577711689233,5002975.0,5731216.0,0.0
1577711689282,5019042.0,5749565.0,0.0
1577711689331,4996937.0,5721116.0,0.0
1577711689383,4963242.0,5657707.0,0.0
1577711689433,4933199.0,5610347.0,0.0
1577711689482,4859410.0,5548385.0,0.0
1577711689537,4882115.0,5571018.0,0.0
1577711689578,4952681.0,5650859.0,0.0
1577711689632,4991668.0,5682593.0,0.0
1577711689681,4980057.0,5666989.0,0.0
1577711689731,5014101.0,5740626.0,0.0
1577711689779,5007047.0,5728941.0,0.0
1577711689828,4966274.0,5670736.0,0.0
1577711689875,5033675.0,5741545.0,0.0
1577711689926,5050668.0,5775163.0,0.0
1577711689977,5021021.0,5702238.0,0.0
1577711690025,4994948.0,5674136.0,0.0
1577711690073,4990051.0,5680111.0,0.0
1577711690122,4972491.0,5631739.0,0.0
1577711690171,4919755.0,5574579.0,0.0
1577711690221,4858437.0,5524186.0,0.0
1577711690270,4836807.0,5518166.0,0.0
1577711690314,4879095.0,5552980.0,0.0
1577711690368,4920456.0,5616125.0,0.0
1577711690417,4927398.0,5646067.0,0.0
1577711690466,4975928.0,5699482.0,0.0
1577711690514,4978395.0,5690279.0,0.0
1577711690564,4896089.0,5612265.0,0.0
1577711690610,4955621.0,5687120.0,0.0
1577711690662,4969404.0,5655661.0,0.0
1577711690710,4952614.0,5617781.0,0.0
1577711690760,4938514.0,5595055.0,0.0
1577711690809,4938095.0,5606313.0,0.0
1577711690855,4898125.0,5543122.0,0.0
1577711690910,4838672.0,5460593.0,0.0
1577711690960,4829909.0,5449930.0,0.0
1577711691007,4810122.0,5406053.0,0.0
1577711691054,4888344.0,5490661.0,0.0
1577711691103,4861263.0,5462005.0,0.0
1577711691148,4851900.0,5463085.0,0.0
1577711691201,4859207.0,5487238.0,0.0
1577711691250,4843058.0,5470071.0,0.0
1577711691294,4806198.0,5431031.0,0.0
1577711691348,4843715.0,5477770.0,0.0
1577711691399,4832601.0,5490718.0,0.0
1577711691447,4841057.0,5492729.0,0.0
1577711691495,4784014.0,5408441.0,0.0
1577711691545,4791432.0,5422311.0,0.0
1577711691587,4784772.0,5422046.0,0.0
1577711691642,4721712.0,5330588.0,0.0
1577711691693,4676018.0,5296363.0,0.0
1577711691736,4613028.0,5244085.0,0.0
1577711691784,4625737.0,5271533.0,0.0
1577711691836,4676573.0,5329992.0,0.0
1577711691884,4700229.0,5369882.0,0.0
1577711691937,4722413.0,5406765.0,0.0
1577711691982,4770332.0,5461363.0,0.0
1577711692031,4765572.0,5441463.0,0.0
1577711692080,4743139.0,5415037.0,0.0
1577711692129,4796145.0,5486294.0,0.0
1577711692180,4788219.0,5488295.0,0.0
1577711692231,4766035.0,5435408.0,0.0
1577711692277,4708640.0,5353891.0,0.0
1577711692329,4689700.0,5333037.0,0.0
1577711692379,4619924.0,5248784.0,0.0
1577711692424,4595287.0,5209284.0,0.0
1577711692474,4517924.0,5126420.0,0.0
1577711692521,4563671.0,5187740.0,0.0
1577711692574,4559002.0,5166290.0,0.0
1577711692623,4666081.0,5272877.0,0.0
1577711692672,4680157.0,5278897.0,0.0
1577711692716,4649098.0,5276290.0,0.0
1577711692772,4632261.0,5276267.0,0.0
1577711692818,4633244.0,5285768.0,0.0
1577711692867,4672028.0,5343768.0,0.0
1577711692917,4671496.0,5334610.0,0.0
1577711692967,4640481.0,5292789.0,0.0
1577711693014,4565674.0,5211617.0,0.0
1577711693065,4558606.0,5218314.0,0.0
1577711693112,4523227.0,5163383.0,0.0
1577711693161,4496327.0,5130120.0,0.0
1577711693212,4435709.0,5071570.0,0.0
1577711693256,4473057.0,5088367.0,0.0
1577711693310,4523091.0,5132269.0,0.0
1577711693359,4536580.0,5167611.0,0.0
1577711693409,4541045.0,5178836.0,0.0
1577711693456,4548431.0,5181524.0,0.0
1577711693505,4540436.0,5197369.0,0.0
1577711693553,4510167.0,5176619.0,0.0
1577711693597,4515854.0,5207618.0,0.0
1577711693652,4569392.0,5272555.0,0.0
1577711693698,4548114.0,5252151.0,0.0
1577711693752,4474142.0,5148515.0,0.0
1577711693803,4458934.0,5143690.0,0.0
1577711693849,4422164.0,5100684.0,0.0
1577711693897,4353733.0,5011342.0,0.0
1577711693947,4277138.0,4945564.0,0.0
1577711693999,4233809.0,4945773.0,0.0
1577711694046,4287632.0,4995315.0,0.0
1577711694094,4328122.0,5074270.0,0.0
1577711694144,4379038.0,5135095.0,0.0
1577711694192,4471598.0,5195427.0,0.0
1577711694239,4458030.0,5193922.0,0.0
1577711694287,4393069.0,5116459.0,0.0
1577711694343,4496802.0,5214108.0,0.0
1577711694390,4456943.0,5203792.0,0.0
1577711694437,4441656.0,5156731.0,0.0
1577711694488,4404049.0,5114667.0,0.0
1577711694536,4386738.0,5111898.0,0.0
1577711694582,4361366.0,5090368.0,0.0
1577711694634,4299889.0,5015882.0,0.0
1577711694682,4266871.0,4990707.0,0.0
1577711694731,4233266.0,4994062.0,0.0
1577711694781,4290616.0,5046788.0,0.0
1577711694830,4377443.0,5145643.0,0.0
1577711694881,4441691.0,5195691.0,0.0
1577711694928,4494234.0,5222532.0,0.0
1577711694973,4479197.0,5219625.0,0.0
1577711695026,4390855.0,5125997.0,0.0
1577711695075,4450352.0,5205194.0,0.0
1577711695125,4438570.0,5206387.0,0.0
1577711695173,4447977.0,5185017.0,0.0
1577711695217,4401042.0,5119310.0,0.0
1577711695265,4415945.0,5141186.0,0.0
1577711695321,4410981.0,5136072.0,0.0
1577711695370,4355011.0,5052244.0,0.0
1577711695418,4313027.0,5010182.0,0.0
1577711695469,4232102.0,4951322.0,0.0
1577711695516,4232769.0,4986089.0,0.0
1577711695561,4290718.0,5041193.0,0.0
1577711695610,4334218.0,5102189.0,0.0
1577711695662,4374788.0,5148618.0,0.0
1577711695710,4428462.0,5185500.0,0.0
1577711695757,4426912.0,5151479.0,0.0
1577711695807,4367798.0,5109117.0,0.0
1577711695863,4467403.0,5206916.0,0.0
1577711695910,4450127.0,5216844.0,0.0
1577711695958,4416579.0,5133316.0,0.0
1577711696010,4415390.0,5131144.0,0.0
1577711696056,4419732.0,5146873.0,0.0
1577711696101,4403325.0,5110486.0,0.0
1577711696154,4397616.0,5064068.0,0.0
1577711696198,4379603.0,5034287.0,0.0
1577711696251,4449956.0,5056175.0,0.0
1577711696305,4552025.0,5129833.0,0.0
1577711696351,4576166.0,5175494.0,0.0
1577711696405,4559284.0,5187154.0,0.0
1577711696452,4559770.0,5201424.0,0.0
1577711696498,4512869.0,5137325.0,0.0
1577711696549,4462439.0,5070307.0,0.0
1577711696592,4551393.0,5181237.0,0.0
1577711696645,4564475.0,5216061.0,0.0
1577711696695,4544245.0,5182868.0,0.0
1577711696741,4478315.0,5095366.0,0.0
1577711696793,4473476.0,5109739.0,0.0
1577711696846,4439836.0,5031209.0,0.0
1577711696892,4384363.0,4929019.0,0.0
1577711696941,4337111.0,4893425.0,0.0
1577711696990,4310178.0,4863267.0,0.0
1577711697038,4306797.0,4875319.0,0.0
1577711697089,4357170.0,4950011.0,0.0
1577711697136,4416883.0,5023349.0,0.0
1577711697182,4429614.0,5023739.0,0.0
1577711697234,4438389.0,5011709.0,0.0
1577711697279,4395694.0,4975070.0,0.0
1577711697333,4408311.0,4997842.0,0.0
1577711697383,4499390.0,5079752.0,0.0
1577711697432,4521281.0,5114634.0,0.0
1577711697480,4506028.0,5096813.0,0.0
1577711697528,4470467.0,5050671.0,0.0
1577711697577,4496869.0,5065090.0,0.0
1577711697628,4475759.0,5015203.0,0.0
1577711697677,4427568.0,4966305.0,0.0
1577711697719,4334285.0,4905697.0,0.0
1577711697773,4321021.0,4894082.0,0.0
1577711697824,4317821.0,4944933.0,0.0
1577711697874,4354434.0,5002483.0,0.0
1577711697924,4411432.0,5034896.0,0.0
1577711697964,4407226.0,5008045.0,0.0
1577711698014,4430994.0,5013318.0,0.0
1577711698063,4395026.0,4997384.0,0.0
1577711698110,4450793.0,5084760.0,0.0
1577711698164,4469959.0,5091171.0,0.0
1577711698211,4506628.0,5160648.0,0.0
1577711698260,4483200.0,5129352.0,0.0
1577711698310,4459138.0,5099352.0,0.0
1577711698361,4446067.0,5058012.0,0.0
1577711698408,4426528.0,5031058.0,0.0
1577711698457,4397830.0,5013974.0,0.0
1577711698510,4319687.0,4975921.0,0.0
1577711698558,4322265.0,4972612.0,0.0
1577711698608,4372480.0,5010723.0,0.0
1577711698656,4417619.0,5063642.0,0.0
1577711698703,4432056.0,5090838.0,0.0
1577711698754,4453654.0,5100925.0,0.0
1577711698806,4492324.0,5142540.0,0.0
1577711698853,4488695.0,5154904.0,0.0
1577711698902,4486150.0,5184189.0,0.0
1577711698945,4543794.0,5217717.0,0.0
1577711699003,4541838.0,5236467.0,0.0
1577711699051,4524844.0,5234066.0,0.0
1577711699099,4508686.0,5187753.0,0.0
1577711699149,4526405.0,5197138.0,0.0
1577711699196,4549414.0,5222497.0,0.0
1577711699242,4542234.0,5231516.0,0.0
1577711699294,4458630.0,5176780.0,0.0
1577711699337,4437564.0,5171115.0,0.0
1577711699389,4431774.0,5166622.0,0.0
1577711699437,4448995.0,5210087.0,0.0
1577711699488,4488480.0,5213235.0,0.0
1577711699534,4525409.0,5239271.0,0.0
1577711699585,4557204.0,5282068.0,0.0
1577711699636,4553461.0,5303911.0,0.0
1577711699683,4590425.0,5338851.0,0.0
1577711699734,4671587.0,5392105.0,0.0
1577711699784,4687768.0,5416737.0,0.0
1577711699834,4661705.0,5372366.0,0.0
1577711699883,4642324.0,5327349.0,0.0
1577711699933,4652999.0,5330923.0,0.0
1577711699981,4651268.0,5333795.0,0.0
1577711700025,4635867.0,5318651.0,0.0
1577711700073,4554128.0,5253598.0,0.0
1577711700125,4552805.0,5229745.0,0.0
1577711700170,4612067.0,5272532.0,0.0
1577711700222,4676608.0,5327442.0,0.0
1577711700268,4667664.0,5305796.0,0.0
1577711700327,4706629.0,5366494.0,0.0
1577711700374,4728846.0,5416681.0,0.0
1577711700422,4706039.0,5387726.0,0.0
1577711700473,4813876.0,5474403.0,0.0
1577711700516,4793579.0,5460500.0,0.0
1577711700569,4767697.0,5388818.0,0.0
1577711700619,4702285.0,5297304.0,0.0
1577711700664,4709274.0,5316711.0,0.0
1577711700712,4718331.0,5323028.0,0.0
1577711700764,4725024.0,5315206.0,0.0
1577711700811,4655577.0,5261204.0,0.0
1577711700861,4680192.0,5272177.0,0.0
1577711700913,4660880.0,5234743.0,0.0
1577711700963,4744687.0,5315251.0,0.0
1577711701006,4756197.0,5312734.0,0.0
1577711701060,4750262.0,5310678.0,0.0
1577711701105,4791318.0,5373330.0,0.0
1577711701153,4804445.0,5400307.0,0.0
1577711701205,4717561.0,5336691.0,0.0
1577711701249,4795761.0,5437004.0,0.0
1577711701305,4728417.0,5367816.0,0.0
1577711701355,4751833.0,5388783.0,0.0
1577711701404,4707250.0,5324143.0,0.0
1577711701453,4690096.0,5308632.0,0.0
1577711701502,4700137.0,5318364.0,0.0
1577711701552,4676211.0,5301854.0,0.0
1577711701595,4655847.0,5292824.0,0.0
1577711701649,4620015.0,5271649.0,0.0
1577711701696,4523713.0,5188098.0,0.0
1577711701749,4494902.0,5119285.0,0.0
1577711701795,4463061.0,5058070.0,0.0
1577711701845,4457669.0,5074535.0,0.0
1577711701894,4447831.0,5086230.0,0.0
1577711701943,4427908.0,5080200.0,0.0
1577711701991,4391873.0,5047741.0,0.0
1577711702041,4310416.0,4966201.0,0.0
1577711702088,4233075.0,4881269.0,0.0
1577711702137,4188164.0,4856464.0,0.0
1577711702188,4158063.0,4842287.0,0.0
1577711702236,4141533.0,4832187.0,0.0
1577711702286,4129072.0,4815504.0,0.0
1577711702335,4119574.0,4807013.0,0.0
1577711702385,4092302.0,4766284.0,0.0
1577711702433,4014283.0,4671921.0,0.0
1577711702481,3949740.0,4601639.0,0.0
1577711702532,3908595.0,4564608.0,0.0
1577711702580,3884489.0,4561542.0,0.0
1577711702633,3880949.0,4562299.0,0.0
1577711702677,3853744.0,4544353.0,0.0
1577711702732,3894981.0,4607291.0,0.0
1577711702777,3948227.0,4640772.0,0.0
1577711702825,3915243.0,4623137.0,0.0
1577711702870,3948972.0,4670610.0,0.0
1577711702923,3977725.0,4711880.0,0.0
1577711702967,4011229.0,4756300.0,0.0
1577711703022,4046768.0,4786332.0,0.0
1577711703072,4098011.0,4830786.0,0.0
1577711703118,4121768.0,4837150.0,0.0
1577711703172,4139745.0,4848732.0,0.0
1577711703217,4181457.0,4864289.0,0.0
1577711703267,4230745.0,4906260.0,0.0
1577711703315,4303427.0,4973830.0,0.0
1577711703364,4373814.0,5039434.0,0.0
1577711703407,4432024.0,5096823.0,0.0
1577711703462,4481255.0,5160119.0,0.0
1577711703508,4507351.0,5188775.0,0.0
1577711703560,4554422.0,5250830.0,0.0
1577711703613,4618829.0,5345422.0,0.0
1577711703657,4671394.0,5417657.0,0.0
1577711703708,4722807.0,5477999.0,0.0
1577711703756,4758426.0,5518614.0,0.0
1577711703806,4785529.0,5541834.0,0.0
1577711703854,4808990.0,5557231.0,0.0
1577711703903,4835506.0,5595813.0,0.0
1577711703951,4873102.0,5644436.0,0.0
1577711704001,4910935.0,5689395.0,0.0
1577711704053,4955249.0,5723185.0,0.0
1577711704099,4971656.0,5794052.0,0.0
1577711704154,4984092.0,5830139.0,0.0
1577711704196,4998871.0,5857015.0,0.0
1577711704247,4987757.0,5841366.0,0.0
1577711704313,4893127.0,5748197.0,0.0
1577711704359,4859895.0,5731181.0,0.0
1577711704390,4882115.0,5729550.0,0.0
1577711704439,4929389.0,5732250.0,0.0
1577711704489,4943002.0,5746266.0,0.0
1577711704538,4944247.0,5761721.0,0.0
1577711704590,4926336.0,5786617.0,0.0
1577711704636,4906979.0,5821122.0,0.0
1577711704685,4779897.0,5830497.0,0.0
1577711704733,4680836.0,5822833.0,0.0
1577711704785,4672221.0,5853764.0,0.0
1577711704832,4679897.0,5878408.0,0.0
1577711704882,4694641.0,5880258.0,0.0
1577711704930,4708811.0,5882855.0,0.0
1577711704979,4735528.0,5905742.0,0.0
1577711705029,4759048.0,5918540.0,0.0
1577711705077,4776923.0,5925584.0,0.0
1577711705129,4810550.0,5947792.0,0.0
1577711705174,4845265.0,5980998.0,0.0
1577711705225,4872651.0,5998461.0,0.0
1577711705274,4878236.0,5990775.0,0.0
1577711705321,4874278.0,5986741.0,0.0
1577711705375,4872334.0,5988568.0,0.0
1577711705423,4862315.0,5965452.0,0.0
1577711705469,4861557.0,5955342.0,0.0
1577711705517,4874300.0,5968968.0,0.0
1577711705572,4878699.0,5972541.0,0.0
1577711705622,4881154.0,5955823.0,0.0
1577711705669,4883923.0,5939061.0,0.0
1577711705720,4886206.0,5937808.0,0.0
1577711705767,4964091.0,6032825.0,0.0
1577711705811,5043748.0,6135966.0,0.0
1577711705866,5091815.0,6151880.0,0.0
1577711705909,5106740.0,6133072.0,0.0
1577711705961,5113888.0,6138576.0,0.0
1577711706011,5102693.0,6097432.0,0.0
1577711706059,5098827.0,6083001.0,0.0
1577711706108,5151642.0,6154683.0,0.0
1577711706161,5120818.0,6106427.0,0.0
1577711706209,5117041.0,6068742.0,0.0
1577711706257,5121485.0,6071075.0,0.0
1577711706311,5110121.0,6044110.0,0.0
1577711706357,5097774.0,6012042.0,0.0
1577711706409,5091025.0,5982410.0,0.0
1577711706454,5061467.0,5876248.0,0.0
1577711706499,4998452.0,5705847.0,0.0
1577711706556,4934093.0,5580876.0,0.0
1577711706596,4893964.0,5540170.0,0.0
1577711706645,4870184.0,5524899.0,0.0
1577711706694,4868465.0,5521602.0,0.0
1577711706746,4858573.0,5503149.0,0.0
1577711706794,4864339.0,5491361.0,0.0
1577711706843,4858867.0,5478540.0,0.0
1577711706897,4826912.0,5468405.0,0.0
1577711706948,4816227.0,5500725.0,0.0
1577711706996,4789475.0,5483813.0,0.0
1577711707044,4839655.0,5539377.0,0.0
1577711707096,4805701.0,5488421.0,0.0
1577711707142,4767900.0,5447909.0,0.0
1577711707190,4781312.0,5459375.0,0.0
1577711707231,4726731.0,5397033.0,0.0
1577711707283,4685133.0,5349018.0,0.0
1577711707337,4694822.0,5362818.0,0.0
1577711707389,4711795.0,5372422.0,0.0
1577711707430,4741554.0,5430835.0,0.0
1577711707486,4763231.0,5451792.0,0.0
1577711707533,4799154.0,5486284.0,0.0
1577711707584,4833188.0,5530989.0,0.0
1577711707633,4779162.0,5477747.0,0.0
1577711707683,4804841.0,5502472.0,0.0
1577711707728,4763434.0,5487306.0,0.0
1577711707776,4764170.0,5449218.0,0.0
1577711707830,4769393.0,5452527.0,0.0
1577711707871,4771848.0,5461099.0,0.0
1577711707927,4767618.0,5458237.0,0.0
1577711707975,4749121.0,5435063.0,0.0
1577711708028,4721903.0,5409498.0,0.0
1577711708076,4653157.0,5331313.0,0.0
1577711708124,4646530.0,5336920.0,0.0
1577711708172,4684838.0,5333334.0,0.0
1577711708221,4684070.0,5371548.0,0.0
1577711708268,4701314.0,5394458.0,0.0
1577711708320,4745886.0,5434442.0,0.0
1577711708371,4771734.0,5468073.0,0.0
1577711708412,4771937.0,5483986.0,0.0
1577711708468,4730723.0,5454319.0,0.0
1577711708514,4758889.0,5480964.0,0.0
1577711708566,4819744.0,5523268.0,0.0
1577711708612,4796034.0,5495246.0,0.0
1577711708664,4775680.0,5460707.0,0.0
1577711708712,4748452.0,5416681.0,0.0
1577711708755,4718104.0,5385038.0,0.0
1577711708811,4717358.0,5385418.0,0.0
1577711708852,4686354.0,5363356.0,0.0
1577711708911,4645174.0,5326121.0,0.0
1577711708958,4680836.0,5387348.0,0.0
1577711709010,4726901.0,5419621.0,0.0
1577711709054,4682544.0,5376730.0,0.0
1577711709108,4671711.0,5354246.0,0.0
1577711709153,4684420.0,5393172.0,0.0
1577711709202,4676382.0,5403571.0,0.0
1577711709249,4694574.0,5432765.0,0.0
1577711709296,4729797.0,5471186.0,0.0
1577711709350,4768410.0,5510779.0,0.0
1577711709394,4729106.0,5464006.0,0.0
1577711709448,4664905.0,5370652.0,0.0
1577711709497,4666284.0,5381821.0,0.0
1577711709549,4629717.0,5345412.0,0.0
1577711709600,4618252.0,5327649.0,0.0
1577711709646,4617323.0,5328509.0,0.0
1577711709695,4575589.0,5267053.0,0.0
1577711709744,4625489.0,5327545.0,0.0
1577711709793,4738944.0,5411164.0,0.0
1577711709840,4727387.0,5413510.0,0.0
1577711709892,4703744.0,5375938.0,0.0
1577711709931,4688491.0,5363885.0,0.0
1577711709989,4672763.0,5364219.0,0.0
1577711710038,4669777.0,5382119.0,0.0
1577711710088,4640776.0,5358129.0,0.0
1577711710136,4664927.0,5391161.0,0.0
1577711710185,4593816.0,5300936.0,0.0
1577711710232,4498553.0,5182272.0,0.0
1577711710278,4484646.0,5172207.0,0.0
1577711710328,4473612.0,5162498.0,0.0
1577711710379,4472832.0,5162809.0,0.0
1577711710427,4449991.0,5138601.0,0.0
1577711710473,4385924.0,5098927.0,0.0
1577711710525,4418184.0,5174044.0,0.0
1577711710576,4373859.0,5078602.0,0.0
1577711710627,4334782.0,5044800.0,0.0
1577711710676,4286309.0,5005254.0,0.0
1577711710723,4246948.0,5003243.0,0.0
1577711710775,4214792.0,5006724.0,0.0
1577711710825,4196077.0,5015512.0,0.0
1577711710872,4157102.0,4905765.0,0.0
1577711710922,4136332.0,4895564.0,0.0
1577711710963,4104084.0,4879822.0,0.0
1577711711013,4107475.0,4892116.0,0.0
1577711711064,4101573.0,4897597.0,0.0
1577711711112,4123158.0,4901894.0,0.0
1577711711161,4099041.0,4870540.0,0.0
1577711711210,4051009.0,4820422.0,0.0
1577711711255,3979739.0,4744338.0,0.0
1577711711313,3874685.0,4620471.0,0.0
1577711711355,3793962.0,4550385.0,0.0
1577711711409,3782363.0,4538343.0,0.0
1577711711455,3784171.0,4552854.0,0.0
1577711711509,3791351.0,4586714.0,0.0
1577711711558,3802613.0,4610543.0,0.0
1577711711601,3798440.0,4617253.0,0.0
1577711711657,3741374.0,4564137.0,0.0
1577711711702,3678925.0,4492455.0,0.0
1577711711755,3638863.0,4450035.0,0.0
1577711711803,3609862.0,4431756.0,0.0
1577711711855,3591486.0,4439236.0,0.0
1577711711896,3518762.0,4448334.0,0.0
1577711711951,3508402.0,4453355.0,0.0
1577711711998,3503626.0,4452826.0,0.0
1577711712050,3489383.0,4435121.0,0.0
1577711712098,3467755.0,4409569.0,0.0
1577711712147,3457586.0,4393922.0,0.0
1577711712197,3454717.0,4384350.0,0.0
1577711712242,3436407.0,4358280.0,0.0
1577711712295,3419219.0,4334922.0,0.0
1577711712335,3411451.0,4326478.0,0.0
1577711712395,3373318.0,4277636.0,0.0
1577711712437,3344979.0,4225703.0,0.0
1577711712489,3382255.0,4243592.0,0.0
1577711712537,3424054.0,4278705.0,0.0
1577711712591,3498814.0,4347468.0,0.0
1577711712637,3538397.0,4405111.0,0.0
1577711712688,3511722.0,4399262.0,0.0
1577711712735,3505403.0,4403780.0,0.0
1577711712780,3468440.0,4329523.0,0.0
1577711712833,3434032.0,4259495.0,0.0
1577711712876,3439642.0,4242811.0,0.0
1577711712924,3444339.0,4244477.0,0.0
1577711712976,3482414.0,4301177.0,0.0
1577711713022,3755940.0,4455494.0,0.0
1577711713075,3972563.0,4646369.0,0.0
1577711713120,4053877.0,4728024.0,0.0
1577711713169,4155995.0,4920311.0,0.0
1577711713218,4207530.0,4945036.0,0.0
1577711713266,4261347.0,4993372.0,0.0
1577711713315,4316202.0,5028244.0,0.0
1577711713366,4383179.0,5069974.0,0.0
1577711713415,4440523.0,5118218.0,0.0
1577711713466,4487862.0,5160235.0,0.0
1577711713515,4500953.0,5168656.0,0.0
1577711713564,4475180.0,5149836.0,0.0
1577711713612,4433751.0,5126123.0,0.0
1577711713664,4379363.0,5112691.0,0.0
1577711713712,4336487.0,5109198.0,0.0
1577711713760,4268143.0,5089265.0,0.0
1577711713811,4194389.0,5066803.0,0.0
1577711713858,4132624.0,5045431.0,0.0
1577711713905,4085571.0,5037735.0,0.0
1577711713957,4052888.0,5033265.0,0.0
1577711714004,4022089.0,5026405.0,0.0
1577711714057,3998025.0,5021671.0,0.0
1577711714104,3981527.0,5021615.0,0.0
1577711714158,3966626.0,5016008.0,0.0
1577711714209,3953562.0,5017432.0,0.0
1577711714256,3942241.0,5013997.0,0.0
1577711714299,3935227.0,5017397.0,0.0
1577711714351,3924392.0,5004806.0,0.0
1577711714397,3923187.0,5000140.0,0.0
1577711714454,3926290.0,4996750.0,0.0
1577711714501,3923447.0,5003943.0,0.0
1577711714550,3920040.0,5005357.0,0.0
1577711714600,3926749.0,5016604.0,0.0
1577711714649,3931621.0,5019821.0,0.0
1577711714698,3930737.0,5025498.0,0.0
1577711714746,3937881.0,5019879.0,0.0
1577711714789,3937239.0,5017765.0,0.0
1577711714838,3941461.0,5025899.0,0.0
1577711714895,3943680.0,5030794.0,0.0
1577711714938,3948499.0,5040594.0,0.0
1577711714994,3951524.0,5041721.0,0.0
1577711715043,3944200.0,5021396.0,0.0
1577711715090,3937324.0,5006930.0,0.0
1577711715140,3940246.0,5008113.0,0.0
1577711715186,3942345.0,5019811.0,0.0
1577711715238,3947060.0,5025670.0,0.0
1577711715282,3951083.0,5032966.0,0.0
1577711715334,3956977.0,5041216.0,0.0
1577711715379,3958286.0,5051509.0,0.0
1577711715435,3960289.0,5042353.0,0.0
1577711715482,3961120.0,5037504.0,0.0
1577711715532,3967173.0,5049682.0,0.0
1577711715580,3972693.0,5060700.0,0.0
1577711715627,3977591.0,5068998.0,0.0
1577711715679,3982256.0,5081026.0,0.0
1577711715721,3985271.0,5089275.0,0.0
1577711715777,3988878.0,5095031.0,0.0
1577711715828,3992563.0,5093355.0,0.0
1577711715877,3990178.0,5085324.0,0.0
1577711715921,3999065.0,5093516.0,0.0
1577711715974,4002080.0,5100155.0,0.0
1577711716021,4009423.0,5111702.0,0.0
1577711716070,4014053.0,5117309.0,0.0
1577711716120,4023163.0,5128811.0,0.0
1577711716170,4020605.0,5117080.0,0.0
1577711716218,4021378.0,5111485.0,0.0
1577711716259,4025581.0,5109830.0,0.0
1577711716318,4032518.0,5122330.0,0.0
1577711716360,4034052.0,5132797.0,0.0
1577711716416,4037814.0,5144470.0,0.0
1577711716459,4048398.0,5156133.0,0.0
1577711716514,4053010.0,5164050.0,0.0
1577711716563,4054578.0,5148515.0,0.0
1577711716606,4056884.0,5144241.0,0.0
1577711716659,4062242.0,5154008.0,0.0
1577711716703,4065891.0,5166819.0,0.0
1577711716751,4073356.0,5175607.0,0.0
1577711716798,4077639.0,5186902.0,0.0
1577711716851,4083281.0,5197966.0,0.0
1577711716901,4086688.0,5206251.0,0.0
1577711716949,4089272.0,5196300.0,0.0
1577711716999,4091170.0,5194095.0,0.0
1577711717051,4096509.0,5203953.0,0.0
1577711717102,4103757.0,5210743.0,0.0
1577711717149,4110181.0,5221875.0,0.0
1577711717200,4113007.0,5228713.0,0.0
1577711717242,4119830.0,5233469.0,0.0
1577711717298,4122006.0,5234698.0,0.0
1577711717342,4120385.0,5214144.0,0.0
1577711717395,4126817.0,5215452.0,0.0
1577711717442,4133751.0,5223876.0,0.0
1577711717495,4137782.0,5234962.0,0.0
1577711717543,4142724.0,5246819.0,0.0
1577711717590,4151409.0,5256183.0,0.0
1577711717640,4153203.0,5259113.0,0.0
1577711717687,4148965.0,5237846.0,0.0
1577711717738,4150239.0,5224037.0,0.0
1577711717781,4154418.0,5233721.0,0.0
1577711717835,4158240.0,5244672.0,0.0
1577711717882,4167411.0,5255942.0,0.0
1577711717936,4173316.0,5268143.0,0.0
1577711717982,4176896.0,5277198.0,0.0
1577711718028,4179679.0,5283183.0,0.0
1577711718083,4184326.0,5279347.0,0.0
1577711718129,4184185.0,5270843.0,0.0
1577711718180,4186613.0,5274095.0,0.0
1577711718224,4192353.0,5283460.0,0.0
1577711718278,4197554.0,5291445.0,0.0
1577711718328,4201732.0,5300327.0,0.0
1577711718375,4208780.0,5309598.0,0.0
1577711718424,4214718.0,5314159.0,0.0
1577711718475,4215637.0,5307965.0,0.0
1577711718521,4215446.0,5305990.0,0.0
1577711718568,4218315.0,5305725.0,0.0
1577711718615,4221905.0,5311114.0,0.0
1577711718667,4227096.0,5322950.0,0.0
1577711718714,4234778.0,5331336.0,0.0
1577711718761,4239234.0,5338564.0,0.0
1577711718817,4239093.0,5334622.0,0.0
1577711718869,4237161.0,5311723.0,0.0
1577711718916,4238539.0,5307897.0,0.0
1577711718965,4243923.0,5317768.0,0.0
1577711719013,4247312.0,5326257.0,0.0
1577711719065,4255737.0,5340205.0,0.0
1577711719115,4260410.0,5347823.0,0.0
1577711719162,4265967.0,5359646.0,0.0
1577711719203,4265022.0,5340436.0,0.0
1577711719261,4263271.0,5329463.0,0.0
1577711719303,4264372.0,5331509.0,0.0
1577711719356,4273700.0,5341229.0,0.0
1577711719404,4278538.0,5353178.0,0.0
1577711719457,4284076.0,5364126.0,0.0
1577711719504,4289097.0,5376066.0,0.0
1577711719555,4291783.0,5383488.0,0.0
1577711719604,4291419.0,5376650.0,0.0
1577711719652,4292242.0,5364622.0,0.0
1577711719703,4298128.0,5370539.0,0.0
1577711719744,4302384.0,5377903.0,0.0
1577711719793,4303902.0,5384072.0,0.0
1577711719845,4308358.0,5393862.0,0.0
1577711719900,4315119.0,5404007.0,0.0
1577711719946,4317964.0,5406984.0,0.0
1577711719997,4311773.0,5390622.0,0.0
1577711720049,4315457.0,5376778.0,0.0
1577711720095,4317407.0,5374158.0,0.0
1577711720143,4325506.0,5389485.0,0.0
1577711720192,4329301.0,5397941.0,0.0
1577711720235,4333385.0,5409337.0,0.0
1577711720287,4339764.0,5416737.0,0.0
1577711720339,4337017.0,5411648.0,0.0
1577711720384,4334051.0,5378741.0,0.0
1577711720438,4336028.0,5375087.0,0.0
1577711720486,4343753.0,5387152.0,0.0
1577711720536,4345937.0,5396791.0,0.0
1577711720579,4354113.0,5410475.0,0.0
1577711720636,4358308.0,5426539.0,0.0
1577711720684,4363534.0,5432512.0,0.0
1577711720726,4360752.0,5420965.0,0.0
1577711720780,4357432.0,5396942.0,0.0
1577711720827,4361264.0,5396401.0,0.0
1577711720882,4365112.0,5405846.0,0.0
1577711720925,4370245.0,5420977.0,0.0
1577711720976,4373286.0,5433891.0,0.0
1577711721031,4381990.0,5442370.0,0.0
1577711721074,4383776.0,5448873.0,0.0
1577711721125,4384633.0,5449494.0,0.0
1577711721171,4387069.0,5428963.0,0.0
1577711721223,4386637.0,5429675.0,0.0
1577711721265,4391042.0,5433984.0,0.0
1577711721323,4397448.0,5446794.0,0.0
1577711721369,4398218.0,5455366.0,0.0
1577711721418,4403819.0,5463774.0,0.0
1577711721468,4407476.0,5469991.0,0.0
1577711721511,4396225.0,5426217.0,0.0
1577711721568,4393772.0,5409476.0,0.0
1577711721610,4397437.0,5413049.0,0.0
1577711721665,4405786.0,5424000.0,0.0
1577711721714,4413891.0,5439752.0,0.0
1577711721763,4417497.0,5451699.0,0.0
1577711721811,4423505.0,5463729.0,0.0
1577711721860,4423393.0,5464454.0,0.0
1577711721907,4416812.0,5424367.0,0.0
1577711721959,4419474.0,5413578.0,0.0
1577711722007,4422101.0,5418403.0,0.0
1577711722051,4445862.0,5433133.0,0.0
1577711722110,4455033.0,5450941.0,0.0
1577711722153,4457782.0,5455089.0,0.0
1577711722212,4460139.0,5461925.0,0.0
1577711722246,4466468.0,5471886.0,0.0
1577711722297,4465531.0,5473255.0,0.0
1577711722348,4464162.0,5466774.0,0.0
1577711722394,4471521.0,5468820.0,0.0
1577711722446,4475587.0,5478011.0,0.0
1577711722491,4479193.0,5481630.0,0.0
1577711722540,4492655.0,5479033.0,0.0
1577711722591,4504074.0,5478988.0,0.0
1577711722641,4500362.0,5460490.0,0.0
1577711722690,4513678.0,5460628.0,0.0
1577711722738,4515965.0,5448908.0,0.0
1577711722786,4537482.0,5459697.0,0.0
1577711722842,4543126.0,5452411.0,0.0
1577711722888,4554500.0,5459133.0,0.0
1577711722940,4574793.0,5463993.0,0.0
1577711722988,4595831.0,5470748.0,0.0
1577711723030,4637285.0,5481021.0,0.0
1577711723088,4667904.0,5490351.0,0.0
1577711723128,4679296.0,5500174.0,0.0
1577711723185,4696086.0,5509539.0,0.0
1577711723227,4683587.0,5507057.0,0.0
1577711723284,4670244.0,5510203.0,0.0
1577711723327,4666014.0,5526864.0,0.0
1577711723382,4687703.0,5552819.0,0.0
1577711723427,4708569.0,5583876.0,0.0
1577711723474,4760435.0,5616516.0,0.0
1577711723523,4797927.0,5637369.0,0.0
1577711723570,4790022.0,5640644.0,0.0
1577711723620,4775206.0,5632706.0,0.0
1577711723671,4762802.0,5622973.0,0.0
1577711723719,4740679.0,5616712.0,0.0
1577711723767,4724207.0,5610496.0,0.0
1577711723823,4708890.0,5607531.0,0.0
1577711723872,4691275.0,5609509.0,0.0
1577711723914,4677085.0,5612944.0,0.0
1577711723974,4669681.0,5613241.0,0.0
1577711724013,4713425.0,5633453.0,0.0
1577711724069,4766563.0,5636254.0,0.0
1577711724114,4805166.0,5604143.0,0.0
1577711724166,4834163.0,5586322.0,0.0
1577711724210,4858514.0,5599764.0,0.0
1577711724264,4817103.0,5557093.0,0.0
1577711724310,4774651.0,5481009.0,0.0
1577711724363,4713016.0,5437613.0,0.0
1577711724410,4667765.0,5381235.0,0.0
1577711724457,4638933.0,5335657.0,0.0
1577711724503,4619680.0,5322937.0,0.0
1577711724549,4629268.0,5330520.0,0.0
1577711724602,4627265.0,5291581.0,0.0
1577711724649,4636600.0,5307230.0,0.0
1577711724701,4633090.0,5336931.0,0.0
1577711724748,4642287.0,5389437.0,0.0
1577711724805,4758995.0,5475392.0,0.0
1577711724852,4815664.0,5479343.0,0.0
1577711724893,4897550.0,5501402.0,0.0
1577711724951,4938691.0,5539961.0,0.0
1577711724996,4904147.0,5492523.0,0.0
1577711725049,4854257.0,5459868.0,0.0
1577711725092,4820571.0,5461179.0,0.0
1577711725149,4847565.0,5497864.0,0.0
1577711725189,4864660.0,5523693.0,0.0
1577711725246,4958023.0,5653824.0,0.0
1577711725290,5018817.0,5756492.0,0.0
1577711725343,5003160.0,5764261.0,0.0
1577711725391,4963874.0,5689728.0,0.0
1577711725441,4977562.0,5647665.0,0.0
1577711725491,4983830.0,5662544.0,0.0
1577711725541,4961361.0,5668758.0,0.0
1577711725587,4933898.0,5644298.0,0.0
1577711725639,4895364.0,5548601.0,0.0
1577711725688,4890372.0,5563780.0,0.0
1577711725732,4901510.0,5625329.0,0.0
1577711725787,4904890.0,5659406.0,0.0
1577711725828,4886001.0,5648491.0,0.0
1577711725885,4871352.0,5628546.0,0.0
1577711725928,4860550.0,5592974.0,0.0
1577711725983,4853278.0,5573212.0,0.0
1577711726033,4852644.0,5564618.0,0.0
1577711726078,4846585.0,5553738.0,0.0
1577711726127,4841063.0,5542420.0,0.0
1577711726177,4835212.0,5531218.0,0.0
1577711726229,4836729.0,5521050.0,0.0
1577711726273,4844895.0,5494164.0,0.0
1577711726327,4861730.0,5459524.0,0.0
1577711726367,4882058.0,5452987.0,0.0
1577711726424,4893163.0,5466855.0,0.0
1577711726475,4909277.0,5492820.0,0.0
1577711726516,4923312.0,5504367.0,0.0
1577711726568,4952397.0,5568765.0,0.0
1577711726613,4975360.0,5624949.0,0.0
1577711726668,4993158.0,5678249.0,0.0
1577711726717,4999503.0,5700723.0,0.0
1577711726767,5006776.0,5730836.0,0.0
1577711726809,5008587.0,5738741.0,0.0
1577711726866,4995358.0,5706582.0,0.0
1577711726911,4983119.0,5657339.0,0.0
1577711726964,4977180.0,5643230.0,0.0
1577711727014,4981115.0,5647940.0,0.0
1577711727061,4984236.0,5654949.0,0.0
1577711727107,4986327.0,5682190.0,0.0
1577711727157,4984791.0,5698597.0,0.0
1577711727210,4988867.0,5722151.0,0.0
1577711727250,4999163.0,5745657.0,0.0
1577711727308,5011951.0,5767845.0,0.0
1577711727349,5001305.0,5758767.0,0.0
1577711727405,4987895.0,5689818.0,0.0
1577711727455,4980205.0,5641758.0,0.0
1577711727503,4971572.0,5610944.0,0.0
1577711727552,4953949.0,5592307.0,0.0
1577711727599,4933065.0,5570283.0,0.0
1577711727647,4900660.0,5522050.0,0.0
1577711727697,4850200.0,5460742.0,0.0
1577711727751,4803120.0,5416887.0,0.0
1577711727794,4779073.0,5402811.0,0.0
1577711727847,4763452.0,5393275.0,0.0
1577711727895,4740591.0,5377282.0,0.0
1577711727944,4717116.0,5361174.0,0.0
1577711727991,4698670.0,5354097.0,0.0
1577711728042,4659321.0,5312563.0,0.0
1577711728091,4605324.0,5256183.0,0.0
1577711728138,4567304.0,5223979.0,0.0
1577711728188,4545294.0,5207283.0,0.0
1577711728233,4532480.0,5200573.0,0.0
1577711728285,4519253.0,5188855.0,0.0
1577711728333,4498698.0,5176136.0,0.0
1577711728386,4480753.0,5162017.0,0.0
1577711728436,4433631.0,5116700.0,0.0
1577711728484,4400083.0,5086552.0,0.0
1577711728533,4381834.0,5082853.0,0.0
1577711728583,4373174.0,5086174.0,0.0
1577711728626,4355525.0,5081589.0,0.0
1577711728678,4343405.0,5079613.0,0.0
1577711728728,4331392.0,5086253.0,0.0
1577711728770,4321942.0,5084174.0,0.0
1577711728829,4287969.0,5045776.0,0.0
1577711728878,4248352.0,5012112.0,0.0
1577711728925,4223360.0,4997877.0,0.0
1577711728974,4211449.0,4996946.0,0.0
1577711729024,4204428.0,5000462.0,0.0
1577711729072,4195084.0,5003932.0,0.0
1577711729123,4187601.0,5004116.0,0.0
1577711729167,4173801.0,5006172.0,0.0
1577711729217,4138727.0,4970624.0,0.0
1577711729268,4099640.0,4939350.0,0.0
1577711729312,4070296.0,4918784.0,0.0
1577711729367,4049733.0,4910350.0,0.0
1577711729415,4039444.0,4918381.0,0.0
1577711729465,4029370.0,4924977.0,0.0
1577711729509,4026977.0,4929628.0,0.0
1577711729557,4024827.0,4929709.0,0.0
1577711729608,4003269.0,4903227.0,0.0
1577711729655,3973839.0,4879006.0,0.0
1577711729705,3958962.0,4873135.0,0.0
1577711729754,3948283.0,4880247.0,0.0
1577711729809,3936310.0,4885130.0,0.0
1577711729854,3930833.0,4885371.0,0.0
1577711729906,3924817.0,4873009.0,0.0
1577711729955,3882617.0,4811794.0,0.0
1577711730003,3816681.0,4737767.0,0.0
1577711730051,3779874.0,4706813.0,0.0
1577711730100,3771127.0,4695289.0,0.0
1577711730150,3770374.0,4695944.0,0.0
1577711730192,3775410.0,4712456.0,0.0
1577711730248,3779986.0,4730275.0,0.0
1577711730296,3776546.0,4739294.0,0.0
1577711730348,3749351.0,4711157.0,0.0
1577711730399,3696073.0,4641129.0,0.0
1577711730446,3663313.0,4608338.0,0.0
1577711730492,3652236.0,4605248.0,0.0
1577711730543,3652833.0,4605912.0,0.0
1577711730592,3650813.0,4607890.0,0.0
1577711730642,3641858.0,4607488.0,0.0
1577711730686,3634966.0,4608499.0,0.0
1577711730735,3622058.0,4598858.0,0.0
1577711730779,3586474.0,4557565.0,0.0
1577711730835,3562209.0,4532426.0,0.0
1577711730880,3548314.0,4511137.0,0.0
1577711730930,3545374.0,4511756.0,0.0
1577711730977,3542497.0,4515674.0,0.0
1577711731034,3546544.0,4521178.0,0.0
1577711731077,3548712.0,4531472.0,0.0
1577711731130,3527891.0,4500096.0,0.0
1577711731173,3493032.0,4441544.0,0.0
1577711731229,3470685.0,4406777.0,0.0
1577711731280,3439355.0,4364989.0,0.0
1577711731328,3421090.0,4352937.0,0.0
1577711731377,3430349.0,4374573.0,0.0
1577711731426,3454752.0,4413741.0,0.0
1577711731476,3458133.0,4421875.0,0.0
1577711731518,3420310.0,4365254.0,0.0
1577711731573,3391305.0,4327880.0,0.0
1577711731614,3381560.0,4319688.0,0.0
1577711731668,3377999.0,4326697.0,0.0
1577711731714,3379228.0,4334406.0,0.0
1577711731769,3385955.0,4347745.0,0.0
1577711731816,3396028.0,4363164.0,0.0
1577711731864,3399921.0,4369552.0,0.0
1577711731916,3357714.0,4307806.0,0.0
1577711731959,3319657.0,4259034.0,0.0
1577711732014,3300004.0,4235734.0,0.0
1577711732057,3299128.0,4237446.0,0.0
1577711732106,3301174.0,4250820.0,0.0
1577711732153,3305874.0,4266101.0,0.0
1577711732207,3316579.0,4268032.0,0.0
1577711732256,3311144.0,4259734.0,0.0
1577711732309,3271251.0,4198748.0,0.0
1577711732357,3243207.0,4156329.0,0.0
1577711732404,3235829.0,4142003.0,0.0
1577711732455,3243320.0,4154526.0,0.0
1577711732498,3252041.0,4165578.0,0.0
1577711732554,3264749.0,4184227.0,0.0
1577711732595,3280318.0,4201391.0,0.0
1577711732648,3271381.0,4185054.0,0.0
1577711732697,3208003.0,4100628.0,0.0
1577711732748,3169322.0,4068366.0,0.0
1577711732798,3161425.0,4057360.0,0.0
1577711732848,3166185.0,4069068.0,0.0
1577711732896,3170771.0,4080373.0,0.0
1577711732943,3175877.0,4095262.0,0.0
1577711732995,3183835.0,4114727.0,0.0
1577711733036,3165362.0,4083522.0,0.0
1577711733094,3120457.0,4025028.0,0.0
1577711733136,3100094.0,3993523.0,0.0
1577711733187,3100145.0,3996259.0,0.0
1577711733237,3096279.0,3999269.0,0.0
1577711733290,3107472.0,4014331.0,0.0
1577711733338,3121359.0,4027670.0,0.0
1577711733381,3131769.0,4037632.0,0.0
1577711733435,3123283.0,4016146.0,0.0
1577711733477,3090289.0,3970004.0,0.0
1577711733534,3076992.0,3949140.0,0.0
1577711733575,3078796.0,3951818.0,0.0
1577711733626,3091096.0,3968499.0,0.0
1577711733677,3105070.0,3990352.0,0.0
1577711733728,3117267.0,4004577.0,0.0
1577711733778,3128397.0,4019868.0,0.0
1577711733823,3125313.0,4010747.0,0.0
1577711733877,3106588.0,3983481.0,0.0
1577711733923,3104837.0,3978840.0,0.0
1577711733975,3113860.0,3991064.0,0.0
1577711734016,3128078.0,4008357.0,0.0
1577711734075,3138497.0,4027509.0,0.0
1577711734116,3147251.0,4034128.0,0.0
1577711734173,3148734.0,4038575.0,0.0
1577711734217,3116643.0,3983665.0,0.0
1577711734268,3081734.0,3935019.0,0.0
1577711734310,3071695.0,3923678.0,0.0
1577711734366,3080494.0,3933640.0,0.0
1577711734411,3093739.0,3951863.0,0.0
1577711734461,3108815.0,3977139.0,0.0
1577711734508,3121003.0,3990790.0,0.0
1577711734557,3128086.0,3996442.0,0.0
1577711734607,3090809.0,3942569.0,0.0
1577711734656,3063356.0,3905515.0,0.0
1577711734703,3060114.0,3900482.0,0.0
1577711734755,3072579.0,3918635.0,0.0
1577711734804,3086354.0,3943545.0,0.0
1577711734853,3103112.0,3959675.0,0.0
1577711734903,3111883.0,3972463.0,0.0
1577711734957,3123646.0,3987435.0,0.0
1577711734996,3101880.0,3946268.0,0.0
1577711735057,3087108.0,3920668.0,0.0
1577711735097,3089483.0,3925541.0,0.0
1577711735155,3101551.0,3944004.0,0.0
1577711735200,3120595.0,3965799.0,0.0
1577711735249,3136814.0,3987676.0,0.0
1577711735300,3153615.0,4006278.0,0.0
1577711735347,3163836.0,4019707.0,0.0
1577711735397,3151266.0,3998338.0,0.0
1577711735441,3138401.0,3977071.0,0.0
1577711735496,3141140.0,3979127.0,0.0
1577711735538,3153710.0,3996017.0,0.0
1577711735595,3166323.0,4018560.0,0.0
1577711735643,3184952.0,4038759.0,0.0
1577711735693,3196231.0,4054786.0,0.0
1577711735740,3196621.0,4055568.0,0.0
1577711735790,3165196.0,3998016.0,0.0
1577711735834,3140195.0,3967661.0,0.0
1577711735883,3140386.0,3975463.0,0.0
1577711735931,3152314.0,3989675.0,0.0
1577711735982,3165986.0,4012091.0,0.0
1577711736037,3180515.0,4027912.0,0.0
1577711736078,3189382.0,4043307.0,0.0
1577711736134,3188681.0,4034679.0,0.0
1577711736181,3151603.0,3978599.0,0.0
1577711736233,3136772.0,3960284.0,0.0
1577711736280,3136676.0,3963204.0,0.0
1577711736331,3151152.0,3983620.0,0.0
1577711736379,3169298.0,4004486.0,0.0
1577711736425,3180359.0,4022753.0,0.0
1577711736477,3191419.0,4034403.0,0.0
1577711736519,3196422.0,4034979.0,0.0
1577711736577,3172140.0,3996971.0,0.0
1577711736619,3160246.0,3983700.0,0.0
1577711736674,3167286.0,3991673.0,0.0
1577711736720,3178867.0,4011057.0,0.0
1577711736772,3192903.0,4034599.0,0.0
1577711736820,3208246.0,4055855.0,0.0
1577711736868,3221595.0,4072008.0,0.0
1577711736919,3230057.0,4080557.0,0.0
1577711736961,3212684.0,4051844.0,0.0
1577711737017,3201726.0,4039355.0,0.0
1577711737062,3208533.0,4045559.0,0.0
1577711737116,3219949.0,4061047.0,0.0
1577711737161,3235354.0,4083268.0,0.0
1577711737210,3247004.0,4102790.0,0.0
1577711737263,3256504.0,4115887.0,0.0
1577711737312,3264558.0,4119219.0,0.0
1577711737360,3238881.0,4077373.0,0.0
1577711737410,3223728.0,4058359.0,0.0
1577711737459,3227205.0,4062645.0,0.0
1577711737500,3236870.0,4076812.0,0.0
1577711737558,3250324.0,4096286.0,0.0
1577711737599,3260336.0,4112119.0,0.0
