time,value,value2,value3
1579356811899,4910876.0,6213326.0,0.0
1579356811938,4902599.0,6200152.0,0.0
1579356811991,4887031.0,6214690.0,0.0
1579356812039,4869221.0,6211226.0,0.0
1579356812096,4861141.0,6204246.0,0.0
1579356812139,4849985.0,6212892.0,0.0
1579356812297,4851053.0,6221921.0,0.0
1579356812297,4867293.0,6210501.0,0.0
1579356812300,4877507.0,6199211.0,0.0
1579356812337,4868404.0,6188682.0,0.0
1579356812378,4854747.0,6187875.0,0.0
1579356812426,4853725.0,6166551.0,0.0
1579356812478,4848729.0,6139049.0,0.0
1579356812524,4835620.0,6114781.0,0.0
1579356812576,4817692.0,6072860.0,0.0
1579356812623,4802592.0,6082351.0,0.0
1579356812674,4779912.0,6112909.0,0.0
1579356812721,4775777.0,6244234.0,0.0
1579356812770,4795650.0,6292323.0,0.0
1579356812818,4807111.0,6314394.0,0.0
1579356812867,4820482.0,6306607.0,0.0
1579356812919,4820813.0,6239114.0,0.0
1579356812964,4812877.0,6214738.0,0.0
1579356813017,4813586.0,6217793.0,0.0
1579356813062,4813775.0,6213265.0,0.0
1579356813111,4811479.0,6199502.0,0.0
1579356813166,4807854.0,6154986.0,0.0
1579356813208,4797515.0,6126359.0,0.0
1579356813259,4785733.0,6256791.0,0.0
1579356813307,4776962.0,6374486.0,0.0
1579356813357,4785938.0,6447700.0,0.0
1579356813401,4804276.0,6502684.0,0.0
1579356813457,4833036.0,6581308.0,0.0
1579356813500,4821942.0,6490187.0,0.0
1579356813550,4805424.0,6411370.0,0.0
1579356813600,4817666.0,6492893.0,0.0
1579356813650,4835027.0,6495271.0,0.0
1579356813698,4833952.0,6452119.0,0.0
1579356813746,4831162.0,6413750.0,0.0
1579356813795,4821298.0,6384700.0,0.0
1579356813846,4815567.0,6358380.0,0.0
1579356813896,4797651.0,6409608.0,0.0
1579356813939,4804573.0,6400177.0,0.0
1579356813992,4819342.0,6519261.0,0.0
1579356814041,4853914.0,6498627.0,0.0
1579356814090,4857994.0,6412240.0,0.0
1579356814137,4850470.0,6344469.0,0.0
1579356814184,4870558.0,6462733.0,0.0
1579356814241,4906510.0,6629590.0,0.0
1579356814286,4911236.0,6543010.0,0.0
1579356814328,4906491.0,6498603.0,0.0
1579356814379,4904133.0,6486083.0,0.0
1579356814427,4903361.0,6488328.0,0.0
1579356814479,4911872.0,6500449.0,0.0
1579356814525,4905378.0,6619509.0,0.0
1579356814579,4928516.0,6764888.0,0.0
1579356814627,4942882.0,6759975.0,0.0
1579356814678,4949634.0,6762847.0,0.0
1579356814728,4946048.0,6744797.0,0.0
1579356814773,4937851.0,6700958.0,0.0
1579356814818,4933404.0,6676050.0,0.0
1579356814871,4926014.0,6648643.0,0.0
1579356814917,4926929.0,6711751.0,0.0
1579356814967,4941322.0,6755978.0,0.0
1579356815017,4940344.0,6720613.0,0.0
1579356815064,4935296.0,6718199.0,0.0
1579356815114,4940407.0,6723221.0,0.0
1579356815163,4941214.0,6689922.0,0.0
1579356815208,4936846.0,6663794.0,0.0
1579356815263,4933233.0,6647291.0,0.0
1579356815302,4935726.0,6637329.0,0.0
1579356815364,4930578.0,6626583.0,0.0
1579356815405,4928686.0,6619268.0,0.0
1579356815456,4927683.0,6602268.0,0.0
1579356815499,4926703.0,6590483.0,0.0
1579356815546,4925216.0,6576564.0,0.0
1579356815604,4920695.0,6563922.0,0.0
1579356815653,4916589.0,6554166.0,0.0
1579356815706,4915951.0,6537432.0,0.0
1579356815746,4911664.0,6522919.0,0.0
1579356815796,4906447.0,6508045.0,0.0
1579356815841,4904858.0,6493472.0,0.0
1579356815894,4904876.0,6482388.0,0.0
1579356815937,4901235.0,6472487.0,0.0
1579356815987,4904248.0,6462780.0,0.0
1579356816043,4899980.0,6442678.0,0.0
1579356816089,4896717.0,6417214.0,0.0
1579356816139,4890026.0,6394298.0,0.0
1579356816182,4886314.0,6384338.0,0.0
1579356816237,4879587.0,6370863.0,0.0
1579356816279,4876064.0,6366600.0,0.0
1579356816333,4870038.0,6349938.0,0.0
1579356816383,4867939.0,6343009.0,0.0
1579356816430,4867033.0,6333893.0,0.0
1579356816484,4859115.0,6324197.0,0.0
1579356816527,4859168.0,6322991.0,0.0
1579356816577,4856003.0,6318257.0,0.0
1579356816620,4853402.0,6302960.0,0.0
1579356816677,4844255.0,6280237.0,0.0
1579356816721,4839035.0,6265170.0,0.0
1579356816772,4828651.0,6254279.0,0.0
1579356816823,4820563.0,6254401.0,0.0
1579356816864,4817217.0,6247821.0,0.0
1579356816914,4814169.0,6241301.0,0.0
1579356816960,4810187.0,6235602.0,0.0
1579356817010,4804358.0,6236507.0,0.0
1579356817060,4802564.0,6236580.0,0.0
1579356817109,4796960.0,6230844.0,0.0
1579356817161,4797094.0,6225930.0,0.0
1579356817207,4790215.0,6208689.0,0.0
1579356817254,4778656.0,6188394.0,0.0
1579356817301,4771957.0,6175268.0,0.0
1579356817350,4762372.0,6169074.0,0.0
1579356817405,4755547.0,6168448.0,0.0
1579356817455,4752873.0,6163050.0,0.0
1579356817498,4749645.0,6159019.0,0.0
1579356817547,4743001.0,6157099.0,0.0
1579356817603,4738446.0,6155541.0,0.0
1579356817653,4735656.0,6158559.0,0.0
1579356817702,4733074.0,6156990.0,0.0
1579356817747,4730392.0,6153452.0,0.0
1579356817798,4720824.0,6134050.0,0.0
1579356817846,4709353.0,6120975.0,0.0
1579356817894,4700314.0,6107958.0,0.0
1579356817941,4691114.0,6100798.0,0.0
1579356817992,4682558.0,6099616.0,0.0
1579356818044,4680289.0,6099013.0,0.0
1579356818090,4675232.0,6094049.0,0.0
1579356818139,4667609.0,6087638.0,0.0
1579356818193,4665447.0,6088677.0,0.0
1579356818239,4658247.0,6087035.0,0.0
1579356818281,4653316.0,6086419.0,0.0
1579356818334,4649709.0,6080381.0,0.0
1579356818385,4642787.0,6062537.0,0.0
1579356818431,4624000.0,6039658.0,0.0
1579356818481,4615578.0,6026715.0,0.0
1579356818528,4603670.0,6022295.0,0.0
1579356818580,4597231.0,6017841.0,0.0
1579356818626,4591670.0,6012504.0,0.0
1579356818678,4581475.0,6006877.0,0.0
1579356818724,4572696.0,6003629.0,0.0
1579356818772,4565154.0,5997520.0,0.0
1579356818825,4558679.0,5999694.0,0.0
1579356818870,4552240.0,6002735.0,0.0
1579356818920,4546411.0,5997387.0,0.0
1579356818961,4531559.0,5977780.0,0.0
1579356819011,4506900.0,5951967.0,0.0
1579356819061,4488417.0,5937284.0,0.0
1579356819111,4480085.0,5936366.0,0.0
1579356819162,4474804.0,5936284.0,0.0
1579356819208,4464930.0,5941245.0,0.0
1579356819258,4454932.0,5939228.0,0.0
1579356819303,4449174.0,5932058.0,0.0
1579356819359,4438448.0,5916869.0,0.0
1579356819403,4437203.0,5911990.0,0.0
1579356819456,4435840.0,5914864.0,0.0
1579356819505,4439147.0,5909877.0,0.0
1579356819548,4447299.0,5914574.0,0.0
1579356819602,4455873.0,5958499.0,0.0
1579356819650,4475422.0,6036289.0,0.0
1579356819701,4491806.0,6096236.0,0.0
1579356819747,4497196.0,6132299.0,0.0
1579356819798,4505931.0,6162169.0,0.0
1579356819842,4512343.0,6175728.0,0.0
1579356819895,4525301.0,6191581.0,0.0
1579356819947,4541066.0,6200589.0,0.0
1579356819987,4566005.0,6204368.0,0.0
1579356820042,4588192.0,6212480.0,0.0
1579356820090,4595474.0,6203897.0,0.0
1579356820138,4600773.0,6204693.0,0.0
1579356820182,4598334.0,6198161.0,0.0
1579356820231,4591859.0,6195421.0,0.0
1579356820286,4587617.0,6210573.0,0.0
1579356820333,4584407.0,6209536.0,0.0
1579356820383,4579994.0,6209340.0,0.0
1579356820431,4576004.0,6189142.0,0.0
1579356820480,4574632.0,6171515.0,0.0
1579356820526,4573448.0,6159405.0,0.0
1579356820578,4570282.0,6153042.0,0.0
1579356820624,4571493.0,6151220.0,0.0
1579356820673,4564175.0,6138890.0,0.0
1579356820724,4559378.0,6119706.0,0.0
1579356820773,4539918.0,6099542.0,0.0
1579356820822,4527327.0,6083714.0,0.0
1579356820867,4515992.0,6071556.0,0.0
1579356820918,4518808.0,6061329.0,0.0
1579356820966,4525714.0,6056923.0,0.0
1579356821016,4538321.0,6059326.0,0.0
1579356821068,4589779.0,6093253.0,0.0
1579356821113,4608278.0,6131863.0,0.0
1579356821169,4614412.0,6279864.0,0.0
1579356821211,4715148.0,6102901.0,0.0
1579356821260,4645971.0,5847517.0,0.0
1579356821302,4471432.0,5579528.0,0.0
1579356821359,4242397.0,5473583.0,0.0
1579356821410,4107755.0,5246850.0,0.0
1579356821455,4053699.0,6235264.0,0.0
1579356821503,4097487.0,6512778.0,0.0
1579356821547,4242647.0,6753236.0,0.0
1579356821601,4250674.0,6684272.0,0.0
1579356821650,4265595.0,6946538.0,0.0
1579356821704,4254045.0,6945536.0,0.0
1579356821750,4236450.0,6933931.0,0.0
1579356821795,4210874.0,6918102.0,0.0
1579356821843,4189271.0,6897542.0,0.0
1579356821893,4172779.0,6912104.0,0.0
1579356821943,4160414.0,6939921.0,0.0
1579356821986,4135834.0,6900935.0,0.0
1579356822033,4120624.0,6877307.0,0.0
1579356822084,4104196.0,6849271.0,0.0
1579356822134,4093720.0,6822551.0,0.0
1579356822186,4090644.0,6809246.0,0.0
1579356822234,4095101.0,6801037.0,0.0
1579356822283,4085658.0,6820499.0,0.0
1579356822332,4073140.0,6829131.0,0.0
1579356822376,4077614.0,6829602.0,0.0
1579356822424,4074396.0,6833104.0,0.0
1579356822479,4074441.0,6821406.0,0.0
1579356822529,4065168.0,6815548.0,0.0
1579356822576,4058577.0,6803427.0,0.0
1579356822624,4055877.0,6801243.0,0.0
1579356822667,4047305.0,6783132.0,0.0
1579356822722,4038938.0,6780138.0,0.0
1579356822766,4024096.0,6768909.0,0.0
1579356822820,4008608.0,6761133.0,0.0
1579356822868,3988475.0,6739510.0,0.0
1579356822917,3970253.0,6724369.0,0.0
1579356822965,3964155.0,6729452.0,0.0
1579356823014,3964442.0,6729513.0,0.0
1579356823063,3965267.0,6734704.0,0.0
1579356823113,3954586.0,6728365.0,0.0
1579356823170,3940902.0,6717752.0,0.0
1579356823205,3938732.0,6707213.0,0.0
1579356823261,3934140.0,6705377.0,0.0
1579356823310,3928259.0,6716340.0,0.0
1579356823357,4503141.0,8164905.0,0.0
1579356823405,3906314.0,7712529.0,0.0
1579356823454,4034076.0,6808124.0,0.0
1579356823503,4199944.0,6911474.0,0.0
1579356823547,4177093.0,6846132.0,0.0
1579356823601,4151178.0,6741200.0,0.0
1579356823652,4123207.0,6609379.0,0.0
1579356823701,4107971.0,6490537.0,0.0
1579356823747,4097003.0,6405924.0,0.0
1579356823797,4091030.0,6345992.0,0.0
1579356823844,4108895.0,6298253.0,0.0
1579356823893,4128453.0,6282736.0,0.0
1579356823942,4139662.0,6238487.0,0.0
1579356823984,4154611.0,6230157.0,0.0
1579356824040,4144828.0,6159574.0,0.0
1579356824090,4144128.0,6020013.0,0.0
1579356824138,4146998.0,5950735.0,0.0
1579356824187,4164297.0,5900327.0,0.0
1579356824237,4202975.0,5894400.0,0.0
1579356824283,4194992.0,5856911.0,0.0
1579356824332,4203666.0,5835648.0,0.0
1579356824381,4219995.0,5812877.0,0.0
1579356824428,4253543.0,5798679.0,0.0
1579356824480,4278564.0,5792208.0,0.0
1579356824530,4284911.0,5783877.0,0.0
1579356824577,4301889.0,5756179.0,0.0
1579356824626,4308855.0,5731646.0,0.0
1579356824669,4325410.0,5728483.0,0.0
1579356824729,4332710.0,5724376.0,0.0
1579356824768,4301618.0,5677700.0,0.0
1579356824821,4284078.0,5639547.0,0.0
1579356824872,4266008.0,5594574.0,0.0
1579356824918,4271191.0,5581437.0,0.0
1579356824967,4273720.0,5578237.0,0.0
1579356825017,4261739.0,5554802.0,0.0
1579356825065,4253005.0,5540072.0,0.0
1579356825114,4242468.0,5520236.0,0.0
1579356825174,4228603.0,5497187.0,0.0
1579356825209,4225582.0,5464105.0,0.0
1579356825263,4219564.0,5440260.0,0.0
1579356825312,4218049.0,5411742.0,0.0
1579356825360,4219816.0,5388548.0,0.0
1579356825406,4222677.0,5365716.0,0.0
1579356825456,4225564.0,5347883.0,0.0
1579356825504,4237214.0,5335048.0,0.0
1579356825547,4260951.0,5351506.0,0.0
1579356825601,4283190.0,5410570.0,0.0
1579356825654,4282877.0,5439583.0,0.0
1579356825700,4313421.0,5572575.0,0.0
1579356825748,4582721.0,6273911.0,0.0
1579356825798,4423921.0,6562811.0,0.0
1579356825838,3946579.0,5771005.0,0.0
1579356825893,4868648.0,5050689.0,0.0
1579356825938,4665502.0,4898260.0,0.0
1579356825989,4562338.0,4465091.0,0.0
1579356826041,4271219.0,4614890.0,0.0
1579356826088,4615023.0,4917818.0,0.0
1579356826138,4789373.0,5005884.0,0.0
1579356826194,4812259.0,5003070.0,0.0
1579356826239,4852666.0,5015966.0,0.0
1579356826284,4871157.0,5028594.0,0.0
1579356826327,4867025.0,5025624.0,0.0
1579356826381,4860846.0,5012139.0,0.0
1579356826431,4852837.0,4998725.0,0.0
1579356826479,4852469.0,4992132.0,0.0
1579356826527,4886359.0,5055253.0,0.0
1579356826578,4851752.0,5043072.0,0.0
1579356826624,4882171.0,5072169.0,0.0
1579356826671,4840730.0,5047549.0,0.0
1579356826725,4856899.0,5095217.0,0.0
1579356826775,4768424.0,5077130.0,0.0
1579356826822,4763286.0,5113339.0,0.0
1579356826870,4793004.0,5094951.0,0.0
1579356826919,4756855.0,5042165.0,0.0
1579356826966,4761959.0,5023644.0,0.0
1579356827017,4746292.0,5036912.0,0.0
1579356827064,4759771.0,5042384.0,0.0
1579356827109,4716708.0,5054142.0,0.0
1579356827168,4798833.0,5185963.0,0.0
1579356827217,4830732.0,5158302.0,0.0
1579356827262,4934040.0,5304660.0,0.0
1579356827308,4868433.0,5247659.0,0.0
1579356827359,5560210.0,6392053.0,0.0
1579356827401,5924801.0,6366806.0,0.0
1579356827457,5896714.0,6326879.0,0.0
1579356827503,5978469.0,6307065.0,0.0
1579356827556,5989396.0,6302008.0,0.0
1579356827602,5953525.0,6248400.0,0.0
1579356827653,5916989.0,6208906.0,0.0
1579356827705,5890586.0,6184530.0,0.0
1579356827749,5873938.0,6153404.0,0.0
1579356827794,5839366.0,6085128.0,0.0
1579356827846,5782517.0,6008001.0,0.0
1579356827893,5697862.0,5937865.0,0.0
1579356827943,5608887.0,5859735.0,0.0
1579356827991,5529046.0,5782512.0,0.0
1579356828040,5473886.0,5720103.0,0.0
1579356828088,5432914.0,5684631.0,0.0
1579356828139,5401847.0,5648893.0,0.0
1579356828195,5358922.0,5605668.0,0.0
1579356828235,5311838.0,5556421.0,0.0
1579356828284,5272741.0,5515454.0,0.0
1579356828335,5236570.0,5475853.0,0.0
1579356828382,5215211.0,5449458.0,0.0
1579356828430,5195887.0,5434235.0,0.0
1579356828481,5180054.0,5410425.0,0.0
1579356828527,5161015.0,5386506.0,0.0
1579356828577,5130328.0,5348777.0,0.0
1579356828625,5090390.0,5302679.0,0.0
1579356828676,5056014.0,5268933.0,0.0
1579356828725,5043214.0,5254820.0,0.0
1579356828773,5037217.0,5242565.0,0.0
1579356828820,5016788.0,5222135.0,0.0
1579356828870,5002886.0,5203505.0,0.0
1579356828919,4990856.0,5187944.0,0.0
1579356828968,4986192.0,5180481.0,0.0
1579356829012,4981217.0,5171753.0,0.0
1579356829064,4977965.0,5163313.0,0.0
1579356829118,4978493.0,5157432.0,0.0
1579356829169,4962628.0,5138429.0,0.0
1579356829211,4928619.0,5103294.0,0.0
1579356829260,4909683.0,5074089.0,0.0
1579356829307,4900998.0,5064417.0,0.0
1579356829351,4902342.0,5067459.0,0.0
1579356829405,4896035.0,5062063.0,0.0
1579356829458,4885900.0,5054867.0,0.0
1579356829504,4877685.0,5038930.0,0.0
1579356829553,4874640.0,5033678.0,0.0
1579356829601,4872813.0,5039184.0,0.0
1579356829652,4901584.0,5073351.0,0.0
1579356829703,4902905.0,5078230.0,0.0
1579356829748,4890634.0,5063801.0,0.0
1579356829794,4856924.0,5018465.0,0.0
1579356829844,4822709.0,5028171.0,0.0
1579356829893,4809564.0,5077178.0,0.0
1579356829943,4807772.0,5160185.0,0.0
1579356829991,4889979.0,5176450.0,0.0
1579356830041,4889990.0,5122733.0,0.0
1579356830087,4834118.0,5092488.0,0.0
1579356830139,4806290.0,5079207.0,0.0
1579356830192,4777761.0,5057269.0,0.0
1579356830238,4765733.0,5049519.0,0.0
1579356830283,4763123.0,5047742.0,0.0
1579356830331,4768144.0,5048057.0,0.0
1579356830381,4759688.0,5044568.0,0.0
1579356830430,4724828.0,5010087.0,0.0
1579356830476,4688982.0,4967742.0,0.0
1579356830526,4668290.0,4939661.0,0.0
1579356830578,4659569.0,4927839.0,0.0
1579356830625,4659212.0,4922213.0,0.0
1579356830677,4651837.0,4910344.0,0.0
1579356830725,4636672.0,4893598.0,0.0
1579356830772,4629305.0,4877576.0,0.0
1579356830819,4621171.0,4870102.0,0.0
1579356830868,4623101.0,4866915.0,0.0
1579356830915,4621838.0,4867447.0,0.0
1579356830961,4620562.0,4864826.0,0.0
1579356831016,4624123.0,4866156.0,0.0
1579356831065,4620665.0,4866770.0,0.0
1579356831112,4588564.0,4830754.0,0.0
1579356831157,4557417.0,4787978.0,0.0
1579356831210,4534253.0,4765763.0,0.0
1579356831260,4529302.0,4757141.0,0.0
1579356831307,4529589.0,4757746.0,0.0
1579356831358,4525394.0,4747483.0,0.0
1579356831404,4519628.0,4740082.0,0.0
1579356831453,4509757.0,4733696.0,0.0
1579356831503,4511492.0,4729252.0,0.0
1579356831550,4514240.0,4734769.0,0.0
1579356831595,4520902.0,4736002.0,0.0
1579356831651,4531014.0,4743849.0,0.0
1579356831704,4539136.0,4752807.0,0.0
1579356831741,4532954.0,4746300.0,0.0
1579356831795,4494131.0,4711901.0,0.0
1579356831844,4469051.0,4679992.0,0.0
1579356831893,4460779.0,4670490.0,0.0
1579356831940,4467385.0,4673121.0,0.0
1579356831989,4477885.0,4684073.0,0.0
1579356832036,4477553.0,4682684.0,0.0
1579356832086,4482712.0,4689878.0,0.0
1579356832136,4486193.0,4691063.0,0.0
1579356832180,4494501.0,4698597.0,0.0
1579356832234,4501404.0,4710851.0,0.0
1579356832278,4514376.0,4722176.0,0.0
1579356832330,4525877.0,4734976.0,0.0
1579356832380,4533138.0,4744912.0,0.0
1579356832428,4499728.0,4713532.0,0.0
1579356832480,4470589.0,4682079.0,0.0
1579356832526,4460905.0,4675343.0,0.0
1579356832575,4468098.0,4677527.0,0.0
1579356832623,4482401.0,4696448.0,0.0
1579356832675,4491466.0,4703982.0,0.0
1579356832716,4492822.0,4710488.0,0.0
1579356832770,4503106.0,4716344.0,0.0
1579356832816,4514376.0,4725013.0,0.0
1579356832867,4529118.0,4742569.0,0.0
1579356832916,4548913.0,4771714.0,0.0
1579356832965,4565700.0,4790779.0,0.0
1579356833013,4574259.0,4814817.0,0.0
1579356833062,4563563.0,4806645.0,0.0
1579356833112,4529944.0,4787410.0,0.0
1579356833168,4518490.0,4776424.0,0.0
1579356833202,4525809.0,4788835.0,0.0
1579356833253,4536402.0,4813889.0,0.0
1579356833312,4555532.0,4838844.0,0.0
1579356833369,4564897.0,4850484.0,0.0
1579356833401,4576189.0,4868703.0,0.0
1579356833449,4591355.0,4880813.0,0.0
1579356833501,4607729.0,4901434.0,0.0
1579356833545,4628399.0,4926030.0,0.0
1579356833596,4639624.0,4939563.0,0.0
1579356833642,4644519.0,4956912.0,0.0
1579356833692,4625837.0,4947074.0,0.0
1579356833741,4583589.0,4913859.0,0.0
1579356833789,4544536.0,4894952.0,0.0
1579356833839,4573421.0,4932089.0,0.0
1579356833887,4624136.0,4965026.0,0.0
1579356833939,4624066.0,4969517.0,0.0
1579356833983,4619573.0,4977112.0,0.0
1579356834033,4642012.0,4976147.0,0.0
1579356834081,4652341.0,4967610.0,0.0
1579356834130,4642956.0,4951781.0,0.0
1579356834180,4646517.0,4949790.0,0.0
1579356834234,4647506.0,4950104.0,0.0
1579356834282,4647481.0,4938320.0,0.0
1579356834328,4606108.0,4895483.0,0.0
1579356834379,4567343.0,4860468.0,0.0
1579356834422,4550730.0,4853779.0,0.0
1579356834478,4554704.0,4853792.0,0.0
1579356834520,4564195.0,4865805.0,0.0
1579356834568,4569686.0,4863921.0,0.0
1579356834622,4563311.0,4862160.0,0.0
1579356834670,4562345.0,4864778.0,0.0
1579356834719,4572296.0,4869343.0,0.0
1579356834763,4584417.0,4881924.0,0.0
1579356834820,4598951.0,4899599.0,0.0
1579356834860,4613140.0,4902037.0,0.0
1579356834917,4597043.0,4894021.0,0.0
1579356834961,4568503.0,4862993.0,0.0
1579356835014,4553533.0,4842986.0,0.0
1579356835059,4554785.0,4845220.0,0.0
1579356835109,4567803.0,4860034.0,0.0
1579356835159,4585381.0,4875621.0,0.0
1579356835201,4589793.0,4883482.0,0.0
1579356835258,4594320.0,4887597.0,0.0
1579356835304,4598755.0,4893127.0,0.0
1579356835354,4603926.0,4898948.0,0.0
1579356835405,4613565.0,4917202.0,0.0
1579356835449,4630329.0,4935109.0,0.0
1579356835499,4640313.0,4949983.0,0.0
1579356835546,4626147.0,4931087.0,0.0
1579356835600,4611117.0,4911806.0,0.0
1579356835639,4602685.0,4907326.0,0.0
1579356835696,4610588.0,4916937.0,0.0
1579356835742,4625606.0,4930473.0,0.0
1579356835792,4635934.0,4945106.0,0.0
1579356835838,4640233.0,4947412.0,0.0
1579356835888,4637993.0,4950104.0,0.0
1579356835941,4646736.0,4959546.0,0.0
1579356835982,4656708.0,4971619.0,0.0
1579356836029,4669991.0,4983729.0,0.0
1579356836080,4676942.0,4993375.0,0.0
1579356836129,4655399.0,4973394.0,0.0
1579356836182,4630546.0,4945913.0,0.0
1579356836226,4623331.0,4940385.0,0.0
1579356836276,4628731.0,4948135.0,0.0
1579356836329,4641438.0,4962273.0,0.0
1579356836378,4645644.0,4972222.0,0.0
1579356836419,4648355.0,4969929.0,0.0
1579356836475,4654329.0,4974481.0,0.0
1579356836523,4656192.0,4982762.0,0.0
1579356836567,4665154.0,4996744.0,0.0
1579356836620,4674310.0,5005691.0,0.0
1579356836668,4674184.0,5013575.0,0.0
1579356836721,4648274.0,4981508.0,0.0
1579356836766,4627893.0,4960898.0,0.0
1579356836818,4626582.0,4956346.0,0.0
1579356836866,4633040.0,4962551.0,0.0
1579356836915,4647954.0,4980469.0,0.0
1579356836963,4649595.0,4987170.0,0.0
1579356837005,4648344.0,4985419.0,0.0
1579356837059,4651493.0,4990164.0,0.0
1579356837101,4659846.0,4998556.0,0.0
1579356837150,4670713.0,5011282.0,0.0
1579356837200,4682904.0,5029681.0,0.0
1579356837249,4682917.0,5032265.0,0.0
1579356837303,4662499.0,5009941.0,0.0
1579356837348,4638232.0,4984658.0,0.0
1579356837398,4635821.0,4982098.0,0.0
1579356837445,4650101.0,4994377.0,0.0
1579356837499,4662821.0,5011208.0,0.0
1579356837541,4668911.0,5021496.0,0.0
1579356837598,4669623.0,5023548.0,0.0
1579356837643,4676079.0,5029584.0,0.0
1579356837695,4683536.0,5039099.0,0.0
1579356837743,4698692.0,5051003.0,0.0
1579356837791,4708399.0,5066459.0,0.0
1579356837839,4722347.0,5080994.0,0.0
1579356837887,4707526.0,5068149.0,0.0
1579356837939,4690291.0,5046150.0,0.0
1579356837986,4686936.0,5041694.0,0.0
1579356838036,4695393.0,5047502.0,0.0
1579356838084,4708354.0,5064888.0,0.0
1579356838132,4716407.0,5074136.0,0.0
1579356838183,4716764.0,5075766.0,0.0
1579356838228,4721715.0,5080669.0,0.0
1579356838277,4731699.0,5090351.0,0.0
1579356838322,4744718.0,5105891.0,0.0
1579356838378,4758550.0,5114281.0,0.0
1579356838425,4772775.0,5131294.0,0.0
1579356838474,4770258.0,5129120.0,0.0
1579356838523,4755082.0,5106071.0,0.0
1579356838565,4745833.0,5094686.0,0.0
1579356838619,4753587.0,5101205.0,0.0
1579356838666,4767902.0,5116962.0,0.0
1579356838719,4779542.0,5130255.0,0.0
1579356838769,4785391.0,5130786.0,0.0
1579356838816,4790812.0,5128951.0,0.0
1579356838863,4793560.0,5134155.0,0.0
1579356838911,4803751.0,5141291.0,0.0
1579356838961,4815710.0,5155911.0,0.0
1579356839011,4830808.0,5168336.0,0.0
1579356839058,4831395.0,5170195.0,0.0
1579356839108,4815401.0,5147762.0,0.0
1579356839158,4808163.0,5129313.0,0.0
1579356839206,4810944.0,5134179.0,0.0
1579356839252,4825178.0,5146300.0,0.0
1579356839303,4837254.0,5154343.0,0.0
1579356839350,4838874.0,5155525.0,0.0
1579356839398,4844343.0,5161682.0,0.0
1579356839450,4852316.0,5175627.0,0.0
1579356839499,4864472.0,5188052.0,0.0
1579356839546,4877340.0,5193400.0,0.0
1579356839597,4889358.0,5212537.0,0.0
1579356839642,4901537.0,5228125.0,0.0
1579356839691,4893093.0,5223597.0,0.0
1579356839740,4891749.0,5219516.0,0.0
1579356839783,4894874.0,5220482.0,0.0
1579356839837,4909844.0,5233486.0,0.0
1579356839887,4922438.0,5250883.0,0.0
1579356839938,4930756.0,5267703.0,0.0
1579356839986,4940440.0,5279618.0,0.0
1579356840028,4949553.0,5293613.0,0.0
1579356840076,4961523.0,5302909.0,0.0
1579356840124,4972841.0,5319328.0,0.0
1579356840182,4980585.0,5337584.0,0.0
1579356840225,4993465.0,5353812.0,0.0
1579356840278,4998796.0,5367068.0,0.0
1579356840320,5003024.0,5367020.0,0.0
1579356840376,5008355.0,5369218.0,0.0
1579356840426,5019340.0,5380976.0,0.0
1579356840467,5032231.0,5391698.0,0.0
1579356840521,5039192.0,5405246.0,0.0
1579356840565,5050165.0,5417235.0,0.0
1579356840619,5064976.0,5425529.0,0.0
1579356840666,5070007.0,5436661.0,0.0
1579356840711,5076948.0,5449315.0,0.0
1579356840766,5093068.0,5460471.0,0.0
1579356840807,5100570.0,5470142.0,0.0
1579356840865,5101157.0,5470600.0,0.0
1579356840913,5104454.0,5465591.0,0.0
1579356840957,5103165.0,5464877.0,0.0
1579356841009,5111818.0,5475141.0,0.0
1579356841059,5114254.0,5483567.0,0.0
1579356841107,5117770.0,5486646.0,0.0
1579356841148,5117724.0,5483604.0,0.0
1579356841197,5117402.0,5490330.0,0.0
1579356841249,5125099.0,5495677.0,0.0
1579356841297,5128121.0,5501810.0,0.0
1579356841346,5134038.0,5508210.0,0.0
1579356841394,5131660.0,5508414.0,0.0
1579356841449,5116828.0,5484786.0,0.0
1579356841497,5096030.0,5480235.0,0.0
1579356841549,5095331.0,5496463.0,0.0
1579356841593,5107819.0,5511228.0,0.0
1579356841642,5112784.0,5521828.0,0.0
1579356841685,5112198.0,5520961.0,0.0
1579356841740,5112450.0,5530728.0,0.0
1579356841787,5115266.0,5541365.0,0.0
1579356841837,5119826.0,5545168.0,0.0
1579356841887,5121044.0,5556493.0,0.0
1579356841933,5120194.0,5558690.0,0.0
1579356841985,5107418.0,5544515.0,0.0
1579356842026,5096629.0,5534819.0,0.0
1579356842084,5094125.0,5525705.0,0.0
1579356842128,5095997.0,5524618.0,0.0
1579356842177,5084634.0,5520175.0,0.0
1579356842229,5083749.0,5518932.0,0.0
1579356842276,5086494.0,5522336.0,0.0
1579356842320,5078292.0,5517435.0,0.0
1579356842367,5081428.0,5522384.0,0.0
1579356842420,5085093.0,5522939.0,0.0
1579356842466,5088035.0,5531198.0,0.0
1579356842516,5076994.0,5515031.0,0.0
1579356842567,5050050.0,5488084.0,0.0
1579356842617,5032047.0,5468125.0,0.0
1579356842667,5029760.0,5463658.0,0.0
1579356842714,5029243.0,5454301.0,0.0
1579356842767,5029128.0,5446755.0,0.0
1579356842807,5018892.0,5436142.0,0.0
1579356842865,5010101.0,5433619.0,0.0
1579356842913,5016685.0,5438906.0,0.0
1579356842960,5025612.0,5449532.0,0.0
1579356843009,5030461.0,5459228.0,0.0
1579356843057,5031265.0,5459286.0,0.0
1579356843107,5015915.0,5436155.0,0.0
1579356843148,4989466.0,5414397.0,0.0
1579356843206,4981665.0,5398569.0,0.0
1579356843248,4985147.0,5397820.0,0.0
1579356843303,4991477.0,5397688.0,0.0
1579356843351,4994235.0,5389997.0,0.0
1579356843398,4997636.0,5380180.0,0.0
1579356843448,4988754.0,5363941.0,0.0
1579356843492,4988525.0,5360839.0,0.0
1579356843546,4989086.0,5357240.0,0.0
1579356843587,4991902.0,5369580.0,0.0
1579356843644,5000049.0,5394488.0,0.0
1579356843690,4995016.0,5382740.0,0.0
1579356843744,5001300.0,5388559.0,0.0
1579356843789,4996188.0,5377366.0,0.0
1579356843832,5000555.0,5381690.0,0.0
1579356843887,5009308.0,5396056.0,0.0
1579356843928,5025612.0,5414953.0,0.0
1579356843986,5042479.0,5436311.0,0.0
1579356844030,5073707.0,5473509.0,0.0
1579356844080,5087471.0,5471626.0,0.0
1579356844131,5110255.0,5471481.0,0.0
1579356844176,5127364.0,5473063.0,0.0
1579356844228,5148482.0,5481539.0,0.0
1579356844269,5132568.0,5464092.0,0.0
1579356844326,5105752.0,5441852.0,0.0
1579356844370,5083542.0,5417428.0,0.0
1579356844422,5081486.0,5412840.0,0.0
1579356844472,5084783.0,5417970.0,0.0
1579356844520,5091608.0,5414421.0,0.0
1579356844570,5094216.0,5406913.0,0.0
1579356844610,5093217.0,5405524.0,0.0
1579356844667,5095192.0,5404956.0,0.0
1579356844711,5101524.0,5436142.0,0.0
1579356844765,5113690.0,5463248.0,0.0
1579356844812,5126214.0,5478050.0,0.0
1579356844855,5140290.0,5473015.0,0.0
1579356844911,5133613.0,5452333.0,0.0
1579356844952,5132269.0,5448011.0,0.0
1579356845001,5133074.0,5466424.0,0.0
1579356845049,5146332.0,5527528.0,0.0
1579356845107,5091666.0,5520995.0,0.0
1579356845153,5068572.0,5550177.0,0.0
1579356845202,5093504.0,5587160.0,0.0
1579356845253,5135269.0,5654170.0,0.0
1579356845299,5156546.0,5697924.0,0.0
1579356845350,5148492.0,5715178.0,0.0
1579356845393,5161889.0,5737767.0,0.0
1579356845447,5187338.0,5783068.0,0.0
1579356845491,5208330.0,5813577.0,0.0
1579356845546,5203802.0,5814955.0,0.0
1579356845594,5205468.0,5810184.0,0.0
1579356845641,5212903.0,5814447.0,0.0
1579356845691,5225127.0,5821329.0,0.0
1579356845731,5218487.0,5823889.0,0.0
1579356845789,5226277.0,5837327.0,0.0
1579356845832,5221898.0,5836626.0,0.0
1579356845886,5219164.0,5837448.0,0.0
1579356845933,5240637.0,5874260.0,0.0
1579356845983,5243154.0,5892998.0,0.0
1579356846032,5266880.0,5916372.0,0.0
1579356846080,5241981.0,5887156.0,0.0
1579356846129,5236973.0,5871869.0,0.0
1579356846171,5220096.0,5861365.0,0.0
1579356846227,5217061.0,5864335.0,0.0
1579356846272,5213477.0,5877074.0,0.0
1579356846325,5217647.0,5885331.0,0.0
1579356846374,5222106.0,5892829.0,0.0
1579356846420,5252461.0,5925007.0,0.0
1579356846472,5282564.0,5957328.0,0.0
1579356846512,5277082.0,5964027.0,0.0
1579356846569,5282093.0,5973868.0,0.0
1579356846612,5277601.0,5966431.0,0.0
1579356846667,5280805.0,5974098.0,0.0
1579356846715,5282380.0,5970162.0,0.0
1579356846763,5260250.0,5970390.0,0.0
1579356846813,5260814.0,5990831.0,0.0
1579356846858,5264984.0,6005356.0,0.0
1579356846910,5271971.0,6000672.0,0.0
1579356846952,5283654.0,6009003.0,0.0
1579356847008,5261859.0,6001045.0,0.0
1579356847055,5242671.0,6003219.0,0.0
1579356847106,5240350.0,6001807.0,0.0
1579356847153,5248429.0,6014737.0,0.0
1579356847197,5247946.0,6026823.0,0.0
1579356847253,5281046.0,6056296.0,0.0
1579356847294,5334680.0,6099265.0,0.0
1579356847340,5325935.0,6095292.0,0.0
1579356847393,5301142.0,6078450.0,0.0
1579356847438,5290985.0,6068430.0,0.0
1579356847494,5276566.0,6063093.0,0.0
1579356847539,5279828.0,6057213.0,0.0
1579356847588,5280737.0,6057261.0,0.0
1579356847642,5293731.0,6098783.0,0.0
1579356847692,5307220.0,6128785.0,0.0
1579356847733,5325499.0,6149469.0,0.0
1579356847789,5330646.0,6127179.0,0.0
1579356847836,5320317.0,6104046.0,0.0
1579356847886,5298993.0,6092105.0,0.0
1579356847935,5298188.0,6096839.0,0.0
1579356847983,5293099.0,6093216.0,0.0
1579356848033,5278645.0,6089812.0,0.0
1579356848074,5282173.0,6096514.0,0.0
1579356848129,5324110.0,6139689.0,0.0
1579356848175,5347858.0,6162230.0,0.0
1579356848227,5325097.0,6140546.0,0.0
1579356848276,5324190.0,6140340.0,0.0
1579356848323,5312183.0,6134532.0,0.0
1579356848375,5306012.0,6127240.0,0.0
1579356848414,5306357.0,6134085.0,0.0
1579356848462,5316263.0,6156290.0,0.0
1579356848513,5317629.0,6166588.0,0.0
1579356848563,5324442.0,6175318.0,0.0
1579356848616,5290617.0,6116918.0,0.0
1579356848661,5249564.0,6083872.0,0.0
1579356848716,5217544.0,6063793.0,0.0
1579356848758,5208076.0,6062151.0,0.0
1579356848811,5211891.0,6068308.0,0.0
1579356848855,5207411.0,6068803.0,0.0
1579356848909,5176400.0,6067970.0,0.0
1579356848958,5224324.0,6101994.0,0.0
1579356849005,5253186.0,6114865.0,0.0
1579356849057,5245084.0,6111761.0,0.0
1579356849099,5245120.0,6112909.0,0.0
1579356849153,5242694.0,6107608.0,0.0
1579356849200,5231436.0,6093060.0,0.0
1579356849252,5197553.0,6062103.0,0.0
1579356849297,5173345.0,6039163.0,0.0
1579356849347,5182007.0,6062984.0,0.0
1579356849398,5203022.0,6074441.0,0.0
1579356849443,5187718.0,6041372.0,0.0
1579356849495,5174321.0,6020822.0,0.0
1579356849536,5163738.0,6014858.0,0.0
1579356849587,5160326.0,6023322.0,0.0
1579356849636,5164762.0,6039139.0,0.0
1579356849690,5165427.0,6043424.0,0.0
1579356849738,5187798.0,6087578.0,0.0
1579356849788,5241166.0,6114358.0,0.0
1579356849836,5220956.0,6095908.0,0.0
1579356849878,5198104.0,6077509.0,0.0
1579356849935,5184685.0,6056367.0,0.0
1579356849976,5179249.0,6052009.0,0.0
1579356850032,5186593.0,6056923.0,0.0
1579356850078,5191234.0,6055280.0,0.0
1579356850130,5204826.0,6091864.0,0.0
1579356850179,5203470.0,6107259.0,0.0
1579356850221,5236422.0,6125912.0,0.0
1579356850277,5240547.0,6104760.0,0.0
1579356850317,5221404.0,6078934.0,0.0
1579356850373,5206387.0,6068586.0,0.0
1579356850416,5176194.0,6041758.0,0.0
1579356850470,5174596.0,6019616.0,0.0
1579356850518,5172965.0,6017429.0,0.0
1579356850561,5222049.0,6069720.0,0.0
1579356850619,5257643.0,6098553.0,0.0
1579356850659,5244544.0,6101946.0,0.0
1579356850715,5239812.0,6080794.0,0.0
1579356850758,5233699.0,6065798.0,0.0
1579356850813,5233377.0,6070144.0,0.0
1579356850859,5237524.0,6076012.0,0.0
1579356850908,5244430.0,6083521.0,0.0
1579356850952,5245716.0,6088881.0,0.0
1579356851007,5235375.0,6076954.0,0.0
1579356851058,5230850.0,6053011.0,0.0
1579356851099,5222990.0,6030240.0,0.0
1579356851154,5198001.0,5996567.0,0.0
1579356851204,5186006.0,5987850.0,0.0
1579356851248,5185752.0,5996771.0,0.0
1579356851302,5193302.0,6010754.0,0.0
1579356851341,5200782.0,6020148.0,0.0
1579356851399,5207514.0,6037521.0,0.0
1579356851440,5267904.0,6104625.0,0.0
1579356851495,5300269.0,6130403.0,0.0
1579356851540,5296753.0,6109661.0,0.0
1579356851587,5279473.0,6080188.0,0.0
1579356851642,5267569.0,6050705.0,0.0
1579356851684,5264869.0,6040200.0,0.0
1579356851740,5268603.0,6049232.0,0.0
1579356851780,5281185.0,6098939.0,0.0
1579356851830,5283862.0,6131731.0,0.0
1579356851879,5285677.0,6153330.0,0.0
1579356851934,5330405.0,6186582.0,0.0
1579356851981,5333462.0,6178468.0,0.0
1579356852029,5318400.0,6161494.0,0.0
1579356852078,5300694.0,6166612.0,0.0
1579356852123,5300005.0,6178228.0,0.0
1579356852179,5310872.0,6188092.0,0.0
1579356852221,5331094.0,6199682.0,0.0
1579356852276,5373939.0,6214365.0,0.0
1579356852322,5376650.0,6202953.0,0.0
1579356852370,5397458.0,6218203.0,0.0
1579356852422,5377604.0,6214894.0,0.0
1579356852464,5381086.0,6207579.0,0.0
1579356852519,5377719.0,6196542.0,0.0
1579356852561,5379051.0,6191763.0,0.0
1579356852616,5385922.0,6199549.0,0.0
1579356852661,5390197.0,6199864.0,0.0
1579356852705,5387175.0,6208737.0,0.0
1579356852763,5410855.0,6236639.0,0.0
1579356852808,5413326.0,6225544.0,0.0
1579356852858,5405547.0,6208229.0,0.0
1579356852902,5373020.0,6192583.0,0.0
1579356852960,5367413.0,6190761.0,0.0
1579356853008,5351419.0,6190568.0,0.0
1579356853056,5360301.0,6189674.0,0.0
1579356853104,5368194.0,6200745.0,0.0
1579356853144,5425940.0,6260195.0,0.0
1579356853202,5459720.0,6293701.0,0.0
1579356853246,5471611.0,6321989.0,0.0
1579356853299,5449988.0,6290356.0,0.0
1579356853342,5436752.0,6262055.0,0.0
1579356853397,5431087.0,6242568.0,0.0
1579356853438,5422976.0,6233380.0,0.0
1579356853488,5424332.0,6227959.0,0.0
1579356853538,5431616.0,6250476.0,0.0
1579356853584,5442382.0,6296562.0,0.0
1579356853636,5454918.0,6326347.0,0.0
1579356853684,5475965.0,6315264.0,0.0
1579356853734,5467129.0,6284596.0,0.0
1579356853780,5435924.0,6264350.0,0.0
1579356853835,5424528.0,6258638.0,0.0
1579356853882,5420207.0,6245514.0,0.0
1579356853933,5393426.0,6239947.0,0.0
1579356853979,5375892.0,6229456.0,0.0
1579356854028,5442060.0,6275831.0,0.0
1579356854078,5470300.0,6295076.0,0.0
1579356854125,5458789.0,6272427.0,0.0
1579356854179,5437683.0,6256768.0,0.0
1579356854222,5419243.0,6247966.0,0.0
1579356854268,5414474.0,6245636.0,0.0
1579356854318,5408167.0,6243039.0,0.0
1579356854365,5405799.0,6242254.0,0.0
1579356854415,5415969.0,6251021.0,0.0
1579356854462,5425482.0,6276701.0,0.0
1579356854512,5436005.0,6257878.0,0.0
1579356854562,5406868.0,6225086.0,0.0
1579356854609,5398686.0,6220123.0,0.0
1579356854661,5396069.0,6221440.0,0.0
1579356854707,5396700.0,6221633.0,0.0
1579356854757,5401502.0,6226655.0,0.0
1579356854804,5385038.0,6225086.0,0.0
1579356854853,5429076.0,6259918.0,0.0
1579356854902,5457628.0,6276712.0,0.0
1579356854952,5444267.0,6261391.0,0.0
1579356855002,5423413.0,6224047.0,0.0
1579356855048,5406430.0,6198946.0,0.0
1579356855097,5390024.0,6182224.0,0.0
1579356855145,5382901.0,6159852.0,0.0
1579356855199,5386083.0,6154817.0,0.0
1579356855240,5378293.0,6162616.0,0.0
1579356855300,5399031.0,6191943.0,0.0
1579356855345,5374249.0,6149215.0,0.0
1579356855396,5342641.0,6119996.0,0.0
1579356855443,5318319.0,6110615.0,0.0
1579356855493,5314964.0,6112909.0,0.0
1579356855538,5301303.0,6108489.0,0.0
1579356855584,5283125.0,6102369.0,0.0
1579356855639,5262709.0,6098709.0,0.0
1579356855680,5292019.0,6118282.0,0.0
1579356855737,5344055.0,6146776.0,0.0
1579356855787,5359015.0,6162471.0,0.0
1579356855834,5346572.0,6138758.0,0.0
1579356855879,5321259.0,6110724.0,0.0
1579356855928,5318433.0,6102295.0,0.0
1579356855978,5315951.0,6098397.0,0.0
1579356856021,5321604.0,6101764.0,0.0
1579356856079,5314378.0,6098384.0,0.0
1579356856125,5307392.0,6115252.0,0.0
1579356856175,5315963.0,6131514.0,0.0
1579356856222,5293064.0,6089630.0,0.0
1579356856271,5282196.0,6069226.0,0.0
1579356856319,5262354.0,6054400.0,0.0
1579356856367,5247946.0,6053302.0,0.0
1579356856419,5240660.0,6057769.0,0.0
1579356856468,5245442.0,6071545.0,0.0
1579356856515,5275520.0,6111364.0,0.0
1579356856565,5313401.0,6180135.0,0.0
1579356856613,5342538.0,6191713.0,0.0
1579356856660,5329773.0,6167493.0,0.0
1579356856708,5283195.0,6098674.0,0.0
1579356856761,5257469.0,6061524.0,0.0
1579356856802,5249428.0,6043279.0,0.0
1579356856858,5247876.0,6043352.0,0.0
1579356856898,5248014.0,6055788.0,0.0
1579356856945,5255390.0,6087916.0,0.0
1579356857001,5267534.0,6114104.0,0.0
1579356857043,5279426.0,6119393.0,0.0
1579356857098,5271349.0,6101668.0,0.0
1579356857150,5246451.0,6080987.0,0.0
1579356857197,5213006.0,6060546.0,0.0
1579356857247,5199816.0,6042556.0,0.0
1579356857295,5188636.0,6033477.0,0.0
1579356857342,5179249.0,6033427.0,0.0
1579356857390,5238259.0,6083243.0,0.0
1579356857433,5262858.0,6129896.0,0.0
1579356857486,5280231.0,6156520.0,0.0
1579356857531,5275806.0,6145568.0,0.0
1579356857581,5266167.0,6121252.0,0.0
1579356857631,5266283.0,6122049.0,0.0
1579356857681,5271971.0,6127698.0,0.0
1579356857729,5276727.0,6122676.0,0.0
1579356857782,5278082.0,6143841.0,0.0
1579356857828,5272867.0,6165271.0,0.0
1579356857879,5295558.0,6174049.0,0.0
1579356857927,5302889.0,6170246.0,0.0
1579356857978,5289515.0,6140316.0,0.0
1579356858026,5264260.0,6124487.0,0.0
1579356858074,5262513.0,6120419.0,0.0
1579356858126,5262216.0,6121311.0,0.0
1579356858165,5278426.0,6133820.0,0.0
1579356858223,5279209.0,6159297.0,0.0
1579356858264,5325064.0,6186836.0,0.0
1579356858321,5309770.0,6149517.0,0.0
1579356858366,5283057.0,6126336.0,0.0
1579356858417,5264858.0,6100232.0,0.0
1579356858465,5267811.0,6094001.0,0.0
1579356858510,5267685.0,6092383.0,0.0
1579356858564,5269857.0,6091008.0,0.0
1579356858611,5284678.0,6111798.0,0.0
1579356858659,5286183.0,6153187.0,0.0
1579356858707,5303956.0,6185302.0,0.0
1579356858755,5322180.0,6165091.0,0.0
1579356858808,5318319.0,6145978.0,0.0
1579356858847,5294329.0,6110010.0,0.0
1579356858905,5273280.0,6091201.0,0.0
1579356858945,5268327.0,6085694.0,0.0
1579356858996,5278909.0,6094594.0,0.0
1579356859049,5320156.0,6138131.0,0.0
1579356859100,5359841.0,6183118.0,0.0
1579356859147,5374709.0,6183975.0,0.0
1579356859196,5362853.0,6164549.0,0.0
1579356859246,5342779.0,6139036.0,0.0
1579356859286,5327694.0,6117328.0,0.0
1579356859344,5306737.0,6089040.0,0.0
1579356859385,5294604.0,6065243.0,0.0
1579356859439,5288171.0,6054304.0,0.0
1579356859487,5297317.0,6113006.0,0.0
1579356859538,5308874.0,6135740.0,0.0
1579356859586,5330749.0,6117896.0,0.0
1579356859633,5331854.0,6103599.0,0.0
1579356859685,5308126.0,6072402.0,0.0
1579356859726,5283840.0,6064410.0,0.0
1579356859784,5296270.0,6066605.0,0.0
1579356859828,5300395.0,6075626.0,0.0
1579356859879,5341423.0,6099846.0,0.0
1579356859928,5368090.0,6132926.0,0.0
1579356859975,5375547.0,6134786.0,0.0
1579356860026,5364116.0,6118269.0,0.0
1579356860067,5348789.0,6087988.0,0.0
1579356860124,5328796.0,6066002.0,0.0
1579356860165,5332083.0,6068996.0,0.0
1579356860224,5329325.0,6062212.0,0.0
1579356860269,5342928.0,6084946.0,0.0
1579356860310,5356005.0,6135124.0,0.0
1579356860368,5361232.0,6151447.0,0.0
1579356860415,5362956.0,6126637.0,0.0
1579356860466,5343250.0,6092396.0,0.0
1579356860507,5289067.0,6036132.0,0.0
1579356860564,5262480.0,6028672.0,0.0
1579356860611,5255104.0,6029841.0,0.0
1579356860661,5250621.0,6034575.0,0.0
1579356860709,5262651.0,6050379.0,0.0
1579356860751,5288893.0,6074394.0,0.0
1579356860799,5313872.0,6083774.0,0.0
1579356860848,5323224.0,6072751.0,0.0
1579356860898,5316894.0,6074658.0,0.0
1579356860949,5304497.0,6055716.0,0.0
1579356860999,5288468.0,6036688.0,0.0
1579356861051,5279863.0,6010754.0,0.0
1579356861101,5267030.0,6000431.0,0.0
1579356861148,5265410.0,5995214.0,0.0
1579356861189,5278703.0,6021838.0,0.0
1579356861247,5283173.0,6050139.0,0.0
1579356861288,5293881.0,6038547.0,0.0
1579356861344,5300969.0,6033355.0,0.0
1579356861389,5284482.0,5998789.0,0.0
1579356861441,5262732.0,5988102.0,0.0
1579356861490,5248348.0,5991495.0,0.0
1579356861537,5245039.0,5990035.0,0.0
1579356861588,5242223.0,5987959.0,0.0
1579356861628,5260102.0,6001045.0,0.0
1579356861676,5324845.0,6073259.0,0.0
1579356861728,5331623.0,6087011.0,0.0
1579356861774,5338977.0,6081661.0,0.0
1579356861821,5323202.0,6052082.0,0.0
1579356861872,5305725.0,6024988.0,0.0
1579356861928,5313930.0,6027439.0,0.0
1579356861970,5310804.0,6025170.0,0.0
1579356862027,5301039.0,6009159.0,0.0
1579356862068,5308403.0,6041916.0,0.0
1579356862122,5335415.0,6075264.0,0.0
1579356862172,5341677.0,6100545.0,0.0
1579356862219,5365621.0,6103165.0,0.0
1579356862270,5355992.0,6074587.0,0.0
1579356862316,5332647.0,6049533.0,0.0
1579356862368,5321754.0,6039621.0,0.0
1579356862408,5313814.0,6041131.0,0.0
1579356862466,5321329.0,6053360.0,0.0
1579356862508,5345306.0,6077908.0,0.0
1579356862554,5377835.0,6137224.0,0.0
1579356862605,5389656.0,6150434.0,0.0
1579356862652,5377123.0,6141945.0,0.0
1579356862703,5367436.0,6108852.0,0.0
1579356862753,5342344.0,6073415.0,0.0
1579356862798,5343665.0,6072196.0,0.0
1579356862852,5340562.0,6068911.0,0.0
1579356862905,5340182.0,6073270.0,0.0
1579356862953,5348203.0,6104953.0,0.0
1579356862993,5341551.0,6132432.0,0.0
1579356863049,5349640.0,6139073.0,0.0
1579356863091,5354603.0,6125032.0,0.0
1579356863142,5328177.0,6084922.0,0.0
1579356863190,5276750.0,6036373.0,0.0
1579356863240,5264858.0,6023369.0,0.0
1579356863288,5260975.0,6017453.0,0.0
1579356863340,5252529.0,6025435.0,0.0
1579356863391,5262732.0,6053133.0,0.0
1579356863432,5328061.0,6103575.0,0.0
1579356863489,5343514.0,6115456.0,0.0
1579356863530,5336885.0,6101872.0,0.0
1579356863586,5313827.0,6068634.0,0.0
1579356863633,5292824.0,6047555.0,0.0
1579356863684,5267375.0,6018553.0,0.0
1579356863731,5252104.0,6007517.0,0.0
1579356863779,5257585.0,6036542.0,0.0
1579356863829,5273005.0,6125019.0,0.0
1579356863877,5249474.0,6145724.0,0.0
1579356863926,5280772.0,6177154.0,0.0
1579356863972,5296086.0,6170838.0,0.0
1579356864025,5291581.0,6134484.0,0.0
1579356864074,5267098.0,6117944.0,0.0
1579356864121,5266766.0,6110772.0,0.0
1579356864172,5257505.0,6108780.0,0.0
1579356864220,5275348.0,6109069.0,0.0
1579356864260,5302061.0,6118341.0,0.0
1579356864311,5316147.0,6131575.0,0.0
1579356864367,5338793.0,6143286.0,0.0
1579356864413,5299590.0,6114466.0,0.0
1579356864462,5280691.0,6094208.0,0.0
1579356864512,5279393.0,6090524.0,0.0
1579356864554,5276864.0,6087445.0,0.0
1579356864605,5280369.0,6092962.0,0.0
1579356864652,5282529.0,6096850.0,0.0
1579356864698,5284401.0,6100981.0,0.0
1579356864755,5284182.0,6083293.0,0.0
1579356864805,5268903.0,6043617.0,0.0
1579356864854,5241213.0,6017913.0,0.0
1579356864900,5204550.0,5991823.0,0.0
1579356864950,5188108.0,5995407.0,0.0
1579356864991,5185259.0,5997014.0,0.0
1579356865048,5193187.0,5999416.0,0.0
1579356865095,5231756.0,6035902.0,0.0
1579356865142,5266328.0,6092335.0,0.0
1579356865194,5281426.0,6100727.0,0.0
1579356865236,5271659.0,6082941.0,0.0
1579356865292,5241833.0,6032668.0,0.0
1579356865334,5216786.0,5999730.0,0.0
1579356865389,5207502.0,5983913.0,0.0
1579356865432,5211294.0,5984807.0,0.0
1579356865487,5213144.0,5985700.0,0.0
1579356865535,5219497.0,5997932.0,0.0
1579356865586,5228585.0,6039695.0,0.0
1579356865632,5241833.0,6031060.0,0.0
1579356865676,5233286.0,6025255.0,0.0
1579356865730,5218533.0,5998945.0,0.0
1579356865773,5188775.0,5978335.0,0.0
1579356865827,5169127.0,5963786.0,0.0
1579356865875,5163819.0,5965936.0,0.0
1579356865925,5183938.0,5986570.0,0.0
1579356865975,5240270.0,6061463.0,0.0
1579356866022,5239316.0,6089098.0,0.0
1579356866071,5264962.0,6106088.0,0.0
1579356866113,5262135.0,6083521.0,0.0
1579356866169,5241981.0,6048785.0,0.0
1579356866214,5231308.0,6032390.0,0.0
1579356866264,5212490.0,6002796.0,0.0
1579356866314,5187121.0,5975825.0,0.0
1579356866357,5184247.0,5983624.0,0.0
1579356866409,5193164.0,6002954.0,0.0
1579356866455,5198643.0,6030396.0,0.0
1579356866503,5206319.0,6022091.0,0.0
1579356866556,5199793.0,6001624.0,0.0
1579356866600,5171160.0,5973458.0,0.0
1579356866655,5160751.0,5968097.0,0.0
1579356866703,5160051.0,5966370.0,0.0
1579356866753,5154650.0,5962096.0,0.0
1579356866796,5140760.0,5950420.0,0.0
1579356866843,5182571.0,5997763.0,0.0
1579356866895,5209674.0,6036059.0,0.0
1579356866947,5193622.0,6024202.0,0.0
1579356866990,5177228.0,5988731.0,0.0
1579356867044,5161602.0,5971152.0,0.0
1579356867101,5151273.0,5958232.0,0.0
1579356867136,5153719.0,5961081.0,0.0
1579356867191,5162968.0,5972577.0,0.0
1579356867240,5165956.0,5986872.0,0.0
1579356867288,5150480.0,5990820.0,0.0
1579356867337,5153606.0,5976380.0,0.0
1579356867384,5142381.0,5952449.0,0.0
1579356867435,5128111.0,5926998.0,0.0
1579356867477,5102214.0,5911881.0,0.0
1579356867525,5086781.0,5917594.0,0.0
1579356867577,5095192.0,5923158.0,0.0
1579356867621,5103832.0,5932613.0,0.0
1579356867673,5155317.0,5985277.0,0.0
1579356867718,5170128.0,6015763.0,0.0
1579356867769,5167966.0,5998329.0,0.0
1579356867820,5142829.0,5948730.0,0.0
1579356867868,5101650.0,5897261.0,0.0
1579356867915,5092804.0,5880660.0,0.0
1579356867966,5091953.0,5875974.0,0.0
1579356868017,5091918.0,5874802.0,0.0
1579356868066,5091505.0,5886177.0,0.0
1579356868116,5103832.0,5907319.0,0.0
1579356868156,5114898.0,5943755.0,0.0
1579356868209,5127512.0,5929244.0,0.0
1579356868258,5103246.0,5906293.0,0.0
1579356868306,5062920.0,5869925.0,0.0
1579356868357,5018696.0,5850632.0,0.0
1579356868407,5004058.0,5850331.0,0.0
1579356868459,5004702.0,5858540.0,0.0
1579356868498,5031035.0,5872462.0,0.0
1579356868554,5072753.0,5897465.0,0.0
1579356868596,5092195.0,5911519.0,0.0
1579356868652,5080704.0,5898962.0,0.0
1579356868698,5066446.0,5884209.0,0.0
1579356868750,5065447.0,5872496.0,0.0
1579356868800,5056324.0,5844584.0,0.0
1579356868844,5038561.0,5816693.0,0.0
1579356868896,5036114.0,5805682.0,0.0
1579356868937,5049752.0,5821691.0,0.0
1579356868994,5071283.0,5860388.0,0.0
1579356869041,5085012.0,5855390.0,0.0
1579356869084,5083910.0,5842941.0,0.0
1579356869137,5060506.0,5827523.0,0.0
1579356869180,5049234.0,5829829.0,0.0
1579356869241,5046040.0,5835214.0,0.0
1579356869279,5056163.0,5842254.0,0.0
1579356869334,5056128.0,5835177.0,0.0
1579356869384,5090058.0,5859640.0,0.0
1579356869431,5109130.0,5848421.0,0.0
1579356869482,5104222.0,5850535.0,0.0
1579356869521,5086862.0,5832690.0,0.0
1579356869579,5085382.0,5822260.0,0.0
1579356869619,5087954.0,5817187.0,0.0
1579356869676,5084209.0,5815497.0,0.0
1579356869720,5091619.0,5821075.0,0.0
1579356869771,5098202.0,5824360.0,0.0
1579356869822,5106384.0,5858141.0,0.0
1579356869864,5112565.0,5832992.0,0.0
1579356869919,5112256.0,5811345.0,0.0
1579356869960,5080233.0,5785977.0,0.0
1579356870017,5060564.0,5782078.0,0.0
1579356870059,5054406.0,5805307.0,0.0
1579356870113,5068238.0,5818335.0,0.0
1579356870163,5093916.0,5833717.0,0.0
1579356870202,5143506.0,5875080.0,0.0
1579356870259,5178871.0,5927252.0,0.0
1579356870302,5188442.0,5933952.0,0.0
1579356870359,5173264.0,5884667.0,0.0
1579356870400,5149929.0,5838221.0,0.0
1579356870454,5143725.0,5825024.0,0.0
1579356870501,5153168.0,5826907.0,0.0
1579356870550,5172323.0,5850341.0,0.0
1579356870599,5193841.0,5899290.0,0.0
1579356870642,5211662.0,5927131.0,0.0
1579356870699,5218452.0,5922494.0,0.0
1579356870739,5203080.0,5886309.0,0.0
1579356870789,5190934.0,5862295.0,0.0
1579356870839,5166071.0,5846115.0,0.0
1579356870891,5169783.0,5843738.0,0.0
1579356870944,5167347.0,5833741.0,0.0
1579356870982,5188475.0,5862306.0,0.0
1579356871038,5211385.0,5929088.0,0.0
1579356871086,5227425.0,5945628.0,0.0
1579356871137,5239042.0,5938855.0,0.0
1579356871178,5223070.0,5905483.0,0.0
1579356871234,5206709.0,5866472.0,0.0
1579356871283,5202597.0,5851272.0,0.0
1579356871329,5200631.0,5831024.0,0.0
1579356871378,5188994.0,5799597.0,0.0
1579356871423,5186960.0,5807759.0,0.0
1579356871480,5195910.0,5830577.0,0.0
1579356871519,5202941.0,5827269.0,0.0
1579356871578,5197817.0,5812829.0,0.0
1579356871620,5185430.0,5786556.0,0.0
1579356871673,5167715.0,5775414.0,0.0
1579356871719,5170599.0,5778963.0,0.0
1579356871764,5166210.0,5781195.0,0.0
1579356871821,5179790.0,5791687.0,0.0
1579356871860,5211961.0,5823587.0,0.0
1579356871917,5226254.0,5855945.0,0.0
1579356871963,5230814.0,5858225.0,0.0
1579356872014,5225403.0,5834394.0,0.0
1579356872065,5213741.0,5811911.0,0.0
1579356872110,5208365.0,5804149.0,0.0
1579356872157,5209065.0,5807264.0,0.0
1579356872207,5207905.0,5803858.0,0.0
1579356872260,5223564.0,5838329.0,0.0
1579356872306,5235755.0,5866413.0,0.0
1579356872356,5236193.0,5865109.0,0.0
1579356872405,5240557.0,5843978.0,0.0
1579356872453,5209133.0,5804836.0,0.0
1579356872502,5187889.0,5796384.0,0.0
1579356872541,5183500.0,5797206.0,0.0
1579356872592,5181479.0,5808893.0,0.0
1579356872641,5217166.0,5840683.0,0.0
1579356872697,5308013.0,5951581.0,0.0
1579356872746,5307001.0,6028730.0,0.0
1579356872787,5319409.0,6032062.0,0.0
1579356872837,5307462.0,6012045.0,0.0
1579356872883,5256390.0,5948780.0,0.0
1579356872933,5237892.0,5918075.0,0.0
1579356872984,5243856.0,5915237.0,0.0
1579356873031,5250933.0,5922061.0,0.0
1579356873079,5275648.0,5977600.0,0.0
1579356873131,5279805.0,5997123.0,0.0
1579356873186,5310011.0,6004282.0,0.0
1579356873228,5325006.0,5994840.0,0.0
1579356873277,5294420.0,5961554.0,0.0
1579356873325,5265938.0,5953922.0,0.0
1579356873375,5254507.0,5949938.0,0.0
1579356873427,5238307.0,5952184.0,0.0
1579356873478,5241637.0,5953922.0,0.0
1579356873524,5290066.0,5972419.0,0.0
1579356873576,5317652.0,5997424.0,0.0
1579356873624,5321133.0,5986872.0,0.0
1579356873669,5300969.0,5977454.0,0.0
1579356873719,5277382.0,5955987.0,0.0
1579356873765,5277669.0,5963329.0,0.0
1579356873818,5273889.0,5962337.0,0.0
1579356873867,5253093.0,5936065.0,0.0
1579356873915,5224472.0,5899687.0,0.0
1579356873964,5221588.0,5882493.0,0.0
1579356874012,5217705.0,5858770.0,0.0
1579356874058,5221221.0,5842254.0,0.0
1579356874108,5191704.0,5815376.0,0.0
1579356874160,5176974.0,5816391.0,0.0
1579356874205,5172091.0,5824492.0,0.0
1579356874259,5173619.0,5834875.0,0.0
1579356874303,5180296.0,5836507.0,0.0
1579356874353,5202310.0,5853541.0,0.0
1579356874403,5223347.0,5872739.0,0.0
1579356874448,5263077.0,5926033.0,0.0
1579356874498,5260147.0,5902706.0,0.0
1579356874546,5229184.0,5871205.0,0.0
1579356874598,5206548.0,5837181.0,0.0
1579356874648,5202906.0,5825240.0,0.0
1579356874695,5202712.0,5828610.0,0.0
1579356874743,5211098.0,5834912.0,0.0
1579356874791,5225542.0,5872522.0,0.0
1579356874837,5230515.0,5933023.0,0.0
1579356874883,5244040.0,5948767.0,0.0
1579356874939,5245062.0,5920815.0,0.0
1579356874984,5219406.0,5867632.0,0.0
1579356875035,5178572.0,5825037.0,0.0
1579356875083,5164888.0,5808145.0,0.0
1579356875130,5160303.0,5799489.0,0.0
1579356875177,5179088.0,5838088.0,0.0
1579356875225,5202448.0,5900763.0,0.0
1579356875275,5209767.0,5875009.0,0.0
1579356875323,5203550.0,5868331.0,0.0
1579356875370,5205020.0,5864372.0,0.0
1579356875420,5196025.0,5861195.0,0.0
1579356875468,5192532.0,5867138.0,0.0
1579356875518,5184225.0,5854774.0,0.0
1579356875566,5184317.0,5857030.0,0.0
1579356875612,5196370.0,5879729.0,0.0
1579356875660,5205722.0,5914370.0,0.0
1579356875710,5221772.0,5933457.0,0.0
1579356875762,5212168.0,5898600.0,0.0
1579356875809,5195714.0,5884511.0,0.0
1579356875858,5186696.0,5876746.0,0.0
1579356875907,5184637.0,5878606.0,0.0
1579356875957,5192968.0,5883773.0,0.0
1579356876005,5231481.0,5911736.0,0.0
1579356876055,5252232.0,5970028.0,0.0
1579356876107,5258735.0,5968616.0,0.0
1579356876156,5240179.0,5942972.0,0.0
1579356876206,5229402.0,5926020.0,0.0
1579356876256,5208053.0,5904952.0,0.0
1579356876304,5200573.0,5900533.0,0.0
1579356876344,5196748.0,5895873.0,0.0
1579356876402,5209525.0,5930994.0,0.0
1579356876447,5210454.0,5965635.0,0.0
1579356876500,5231791.0,5973699.0,0.0
1579356876547,5223692.0,5942018.0,0.0
1579356876595,5184685.0,5891853.0,0.0
1579356876645,5137405.0,5867389.0,0.0
1579356876686,5132362.0,5868331.0,0.0
1579356876744,5133281.0,5875432.0,0.0
1579356876784,5143541.0,5890776.0,0.0
1579356876839,5183973.0,5938106.0,0.0
1579356876886,5226599.0,5983550.0,0.0
1579356876937,5222036.0,5983201.0,0.0
1579356876986,5200654.0,5947331.0,0.0
1579356877034,5166267.0,5894894.0,0.0
1579356877084,5127271.0,5854919.0,0.0
1579356877124,5109475.0,5840117.0,0.0
1579356877176,5105730.0,5834804.0,0.0
1579356877226,5112105.0,5857199.0,0.0
1579356877280,5137061.0,5892890.0,0.0
1579356877327,5139175.0,5889835.0,0.0
1579356877371,5128121.0,5867305.0,0.0
1579356877424,5100719.0,5841722.0,0.0
1579356877465,5086909.0,5832461.0,0.0
1579356877522,5063791.0,5823876.0,0.0
1579356877568,5043214.0,5803919.0,0.0
1579356877617,5043581.0,5806056.0,0.0
1579356877667,5080222.0,5844716.0,0.0
1579356877708,5120470.0,5911122.0,0.0
1579356877765,5137680.0,5927831.0,0.0
1579356877806,5126342.0,5911881.0,0.0
1579356877864,5116162.0,5885646.0,0.0
1579356877908,5094596.0,5871629.0,0.0
1579356877959,5093733.0,5865652.0,0.0
1579356878002,5085898.0,5866062.0,0.0
1579356878058,5088334.0,5887047.0,0.0
1579356878107,5074638.0,5884728.0,0.0
1579356878147,5073339.0,5891562.0,0.0
1579356878204,5073339.0,5882493.0,0.0
1579356878248,5062424.0,5848604.0,0.0
1579356878299,5033643.0,5821654.0,0.0
1579356878350,5028116.0,5820170.0,0.0
1579356878394,5030036.0,5830397.0,0.0
1579356878442,5037056.0,5841624.0,0.0
1579356878487,5046350.0,5858661.0,0.0
1579356878545,5040020.0,5856271.0,0.0
1579356878587,5022488.0,5832582.0,0.0
1579356878644,5001600.0,5816320.0,0.0
1579356878689,4981976.0,5790481.0,0.0
1579356878739,4979837.0,5782898.0,0.0
1579356878789,4983572.0,5784589.0,0.0
1579356878836,4990110.0,5795371.0,0.0
1579356878887,5004426.0,5837591.0,0.0
1579356878926,5017236.0,5864625.0,0.0
1579356878983,5023613.0,5861547.0,0.0
1579356879028,4994590.0,5821099.0,0.0
1579356879080,4944301.0,5780942.0,0.0
1579356879121,4903066.0,5759947.0,0.0
1579356879174,4888256.0,5761347.0,0.0
1579356879221,4902571.0,5773565.0,0.0
1579356879271,4911878.0,5786098.0,0.0
1579356879320,4946576.0,5822984.0,0.0
1579356879368,4983653.0,5847588.0,0.0
1579356879423,4991993.0,5859288.0,0.0
1579356879470,4987916.0,5850511.0,0.0
1579356879520,4974748.0,5825664.0,0.0
1579356879568,4955297.0,5793765.0,0.0
1579356879610,4944623.0,5781148.0,0.0
1579356879666,4951139.0,5783985.0,0.0
1579356879707,4962409.0,5802760.0,0.0
1579356879755,4971245.0,5822090.0,0.0
1579356879809,4966695.0,5800912.0,0.0
1579356879863,4944796.0,5778794.0,0.0
1579356879910,4921092.0,5771621.0,0.0
1579356879956,4919634.0,5776210.0,0.0
1579356880007,4921955.0,5779772.0,0.0
1579356880048,4906915.0,5763399.0,0.0
1579356880105,4919300.0,5769159.0,0.0
1579356880152,4956872.0,5822210.0,0.0
1579356880203,4989857.0,5842579.0,0.0
1579356880250,4979965.0,5847421.0,0.0
1579356880300,4965155.0,5824069.0,0.0
1579356880347,4951000.0,5810861.0,0.0
1579356880389,4952057.0,5804776.0,0.0
1579356880446,4960295.0,5812540.0,0.0
1579356880490,4951161.0,5813397.0,0.0
1579356880544,4957101.0,5815233.0,0.0
1579356880592,4955228.0,5813180.0,0.0
1579356880639,4960594.0,5799560.0,0.0
1579356880690,4943865.0,5771164.0,0.0
1579356880732,4915313.0,5757253.0,0.0
1579356880787,4906902.0,5757906.0,0.0
1579356880829,4907420.0,5765983.0,0.0
1579356880884,4920988.0,5789069.0,0.0
1579356880931,4946989.0,5826290.0,0.0
1579356880979,4980907.0,5860992.0,0.0
1579356881030,4963614.0,5846091.0,0.0
1579356881078,4946277.0,5814725.0,0.0
1579356881128,4932065.0,5794768.0,0.0
1579356881170,4939844.0,5800491.0,0.0
1579356881226,4944784.0,5797024.0,0.0
1579356881275,4945990.0,5809293.0,0.0
1579356881323,4947897.0,5812080.0,0.0
1579356881372,4956595.0,5827570.0,0.0
1579356881419,4979998.0,5826798.0,0.0
1579356881469,4975393.0,5809327.0,0.0
1579356881510,4943337.0,5749395.0,0.0
1579356881567,4895597.0,5698358.0,0.0
1579356881611,4876283.0,5678776.0,0.0
1579356881665,4867920.0,5666412.0,0.0
1579356881714,4892184.0,5689495.0,0.0
1579356881753,4923908.0,5721335.0,0.0
1579356881810,4958457.0,5753317.0,0.0
1579356881851,4954401.0,5741908.0,0.0
1579356881908,4939292.0,5714718.0,0.0
1579356881950,4927723.0,5685766.0,0.0
1579356882005,4910224.0,5643556.0,0.0
1579356882053,4897562.0,5614869.0,0.0
1579356882102,4915200.0,5627376.0,0.0
1579356882151,4944094.0,5707836.0,0.0
1579356882194,4963546.0,5749443.0,0.0
1579356882248,4994797.0,5773952.0,0.0
1579356882292,5002989.0,5771778.0,0.0
1579356882346,4993763.0,5742294.0,0.0
1579356882394,4991477.0,5734434.0,0.0
1579356882444,4978609.0,5723569.0,0.0
1579356882485,4962593.0,5706242.0,0.0
1579356882540,5001048.0,5734918.0,0.0
1579356882590,5031886.0,5793438.0,0.0
1579356882630,5047971.0,5802723.0,0.0
1579356882687,5043765.0,5794162.0,0.0
1579356882733,5033690.0,5777115.0,0.0
1579356882785,5017868.0,5748139.0,0.0
1579356882832,5020017.0,5756734.0,0.0
1579356882876,5027381.0,5766840.0,0.0
1579356882930,5040858.0,5787209.0,0.0
1579356882975,5056681.0,5813289.0,0.0
1579356883027,5055232.0,5807637.0,0.0
1579356883073,5071364.0,5782705.0,0.0
1579356883126,5071031.0,5758221.0,0.0
1579356883175,5037252.0,5725873.0,0.0
1579356883222,5020465.0,5715599.0,0.0
1579356883274,5021809.0,5719293.0,0.0
1579356883313,5026842.0,5729557.0,0.0
1579356883370,5069237.0,5769328.0,0.0
1579356883414,5110899.0,5829575.0,0.0
1579356883466,5133016.0,5843968.0,0.0
1579356883516,5126478.0,5828017.0,0.0
1579356883563,5117815.0,5796892.0,0.0
1579356883613,5092676.0,5767361.0,0.0
1579356883660,5083681.0,5761045.0,0.0
1579356883710,5090045.0,5768024.0,0.0
1579356883753,5093700.0,5774290.0,0.0
1579356883799,5112047.0,5816862.0,0.0
1579356883855,5128225.0,5818359.0,0.0
1579356883903,5129591.0,5805850.0,0.0
1579356883954,5113313.0,5772587.0,0.0
1579356884000,5077477.0,5729425.0,0.0
1579356884050,5066066.0,5708886.0,0.0
1579356884094,5062656.0,5704131.0,0.0
1579356884149,5059162.0,5706834.0,0.0
1579356884196,5064918.0,5710420.0,0.0
1579356884245,5066066.0,5728820.0,0.0
1579356884296,5126984.0,5778770.0,0.0
1579356884341,5115115.0,5762674.0,0.0
1579356884393,5106417.0,5749731.0,0.0
1579356884433,5090632.0,5716831.0,0.0
1579356884489,5081280.0,5688554.0,0.0
1579356884535,5082314.0,5677784.0,0.0
1579356884586,5088357.0,5679535.0,0.0
1579356884636,5107016.0,5717918.0,0.0
1579356884681,5113013.0,5738843.0,0.0
1579356884733,5123010.0,5726526.0,0.0
1579356884774,5115437.0,5706098.0,0.0
1579356884830,5095549.0,5687022.0,0.0
1579356884874,5081073.0,5682325.0,0.0
1579356884928,5086678.0,5674862.0,0.0
1579356884976,5067906.0,5661617.0,0.0
1579356885023,5104763.0,5690077.0,0.0
1579356885074,5136854.0,5722760.0,0.0
1579356885116,5155778.0,5733963.0,0.0
1579356885171,5158556.0,5738830.0,0.0
1579356885215,5134717.0,5712509.0,0.0
1579356885268,5119781.0,5703200.0,0.0
1579356885318,5119884.0,5711880.0,0.0
1579356885363,5122401.0,5725741.0,0.0
1579356885416,5140484.0,5767335.0,0.0
1579356885461,5162246.0,5814749.0,0.0
1579356885513,5147906.0,5822477.0,0.0
1579356885556,5196370.0,5868767.0,0.0
1579356885610,5209767.0,5854364.0,0.0
1579356885657,5190499.0,5825325.0,0.0
1579356885705,5180779.0,5820350.0,0.0
1579356885756,5177676.0,5817333.0,0.0
1579356885798,5189142.0,5827052.0,0.0
1579356885853,5225886.0,5860592.0,0.0
1579356885897,5239902.0,5884450.0,0.0
1579356885951,5241672.0,5866786.0,0.0
1579356886001,5215246.0,5841371.0,0.0
1579356886046,5191659.0,5812069.0,0.0
1579356886098,5184926.0,5799682.0,0.0
1579356886142,5176101.0,5800068.0,0.0
1579356886194,5183983.0,5812818.0,0.0
1579356886236,5197898.0,5876614.0,0.0
1579356886289,5198472.0,5905616.0,0.0
1579356886338,5229551.0,5938588.0,0.0
1579356886387,5236457.0,5932661.0,0.0
1579356886439,5215636.0,5890837.0,0.0
1579356886480,5204469.0,5877423.0,0.0
1579356886534,5200070.0,5870433.0,0.0
1579356886577,5202526.0,5872219.0,0.0
1579356886633,5210112.0,5893530.0,0.0
1579356886678,5278967.0,5963279.0,0.0
1579356886729,5264443.0,5999464.0,0.0
1579356886779,5298648.0,6021729.0,0.0
1579356886825,5298925.0,6016512.0,0.0
1579356886876,5276647.0,5984444.0,0.0
1579356886917,5250266.0,5967626.0,0.0
1579356886973,5246257.0,5961662.0,0.0
1579356887021,5252174.0,5980919.0,0.0
1579356887069,5268523.0,6027450.0,0.0
1579356887120,5276715.0,6055402.0,0.0
1579356887161,5291687.0,6080008.0,0.0
1579356887219,5313356.0,6082846.0,0.0
1579356887258,5303933.0,6056018.0,0.0
1579356887314,5296557.0,6036640.0,0.0
1579356887360,5279357.0,6024059.0,0.0
1579356887410,5274349.0,6030531.0,0.0
1579356887461,5284207.0,6047856.0,0.0
1579356887501,5321684.0,6102695.0,0.0
1579356887559,5331268.0,6140533.0,0.0
1579356887599,5339173.0,6167844.0,0.0
1579356887655,5342689.0,6152426.0,0.0
1579356887700,5333852.0,6130488.0,0.0
1579356887751,5319547.0,6113813.0,0.0
1579356887802,5313492.0,6109455.0,0.0
1579356887845,5308230.0,6107175.0,0.0
1579356887901,5281690.0,6089981.0,0.0
1579356887940,5298349.0,6092626.0,0.0
1579356887990,5298419.0,6092867.0,0.0
1579356888038,5298029.0,6075240.0,0.0
1579356888095,5289502.0,6057816.0,0.0
1579356888141,5275877.0,6045453.0,0.0
1579356888184,5258159.0,6035069.0,0.0
1579356888238,5266237.0,6039113.0,0.0
1579356888280,5266582.0,6042919.0,0.0
1579356888337,5301797.0,6066388.0,0.0
1579356888380,5324339.0,6086998.0,0.0
1579356888434,5325764.0,6087855.0,0.0
1579356888480,5302670.0,6058359.0,0.0
1579356888529,5285826.0,6036410.0,0.0
1579356888577,5268638.0,6027825.0,0.0
1579356888622,5261572.0,6030060.0,0.0
1579356888679,5265236.0,6038499.0,0.0
1579356888726,5274233.0,6062477.0,0.0
1579356888775,5273589.0,6083412.0,0.0
1579356888820,5263698.0,6091272.0,0.0
1579356888872,5266341.0,6053241.0,0.0
1579356888920,5258320.0,6029552.0,0.0
1579356888968,5245153.0,6001590.0,0.0
1579356889020,5236019.0,5998837.0,0.0
1579356889064,5237731.0,6004319.0,0.0
1579356889116,5258056.0,6034104.0,0.0
1579356889159,5302073.0,6107198.0,0.0
1579356889205,5317250.0,6160939.0,0.0
1579356889264,5320823.0,6185194.0,0.0
1579356889304,5316492.0,6160407.0,0.0
1579356889356,5301004.0,6123643.0,0.0
1579356889402,5272567.0,6088979.0,0.0
1579356889458,5266880.0,6095184.0,0.0
1579356889498,5273257.0,6109092.0,0.0
1579356889555,5272774.0,6113379.0,0.0
1579356889606,5270914.0,6126600.0,0.0
1579356889643,5297108.0,6142706.0,0.0
1579356889693,5297994.0,6131720.0,0.0
1579356889740,5286757.0,6092359.0,0.0
1579356889790,5251427.0,6060014.0,0.0
1579356889840,5214511.0,6023335.0,0.0
1579356889896,5186419.0,5993960.0,0.0
1579356889945,5183099.0,5986787.0,0.0
1579356889986,5237859.0,6042205.0,0.0
1579356890042,5248542.0,6096670.0,0.0
1579356890088,5253828.0,6114117.0,0.0
1579356890139,5252783.0,6089521.0,0.0
1579356890180,5229413.0,6053844.0,0.0
1579356890236,5218855.0,6048555.0,0.0
1579356890285,5213902.0,6042072.0,0.0
1579356890333,5212938.0,6033102.0,0.0
1579356890377,5246773.0,6075142.0,0.0
1579356890428,5240844.0,6088918.0,0.0
1579356890477,5251794.0,6104107.0,0.0
1579356890525,5277840.0,6101790.0,0.0
1579356890578,5261033.0,6076398.0,0.0
1579356890618,5233905.0,6065857.0,0.0
1579356890675,5224163.0,6079416.0,0.0
1579356890726,5239892.0,6110615.0,0.0
1579356890773,5294833.0,6174956.0,0.0
1579356890822,5298396.0,6200359.0,0.0
1579356890868,5316618.0,6216536.0,0.0
1579356890919,5331325.0,6222103.0,0.0
1579356890961,5321156.0,6194455.0,0.0
1579356891017,5305393.0,6176464.0,0.0
1579356891065,5297075.0,6184771.0,0.0
1579356891113,5302474.0,6194442.0,0.0
1579356891162,5309495.0,6234250.0,0.0
1579356891206,5299544.0,6246334.0,0.0
1579356891257,5281356.0,6240214.0,0.0
1579356891303,5328867.0,6248979.0,0.0
1579356891358,5344606.0,6227139.0,0.0
1579356891404,5329670.0,6190772.0,0.0
1579356891454,5313021.0,6185339.0,0.0
1579356891502,5299166.0,6184120.0,0.0
1579356891551,5310046.0,6208425.0,0.0
1579356891599,5342228.0,6235504.0,0.0
1579356891640,5352361.0,6268296.0,0.0
1579356891698,5344274.0,6279018.0,0.0
1579356891745,5374375.0,6311315.0,0.0
1579356891796,5389576.0,6299906.0,0.0
1579356891843,5383360.0,6275529.0,0.0
1579356891892,5384084.0,6268635.0,0.0
1579356891938,5382005.0,6265858.0,0.0
1579356891982,5391483.0,6278729.0,0.0
1579356892037,5420046.0,6311328.0,0.0
1579356892082,5379924.0,6286457.0,0.0
1579356892137,5402524.0,6314528.0,0.0
1579356892184,5413326.0,6301646.0,0.0
1579356892234,5398032.0,6258288.0,0.0
1579356892285,5369746.0,6226076.0,0.0
1579356892328,5346811.0,6203823.0,0.0
1579356892377,5331268.0,6196169.0,0.0
1579356892421,5345940.0,6214677.0,0.0
1579356892477,5386508.0,6281916.0,0.0
1579356892524,5353707.0,6285889.0,0.0
1579356892576,5375145.0,6296042.0,0.0
1579356892623,5387555.0,6280541.0,0.0
1579356892674,5376214.0,6249209.0,0.0
1579356892717,5368113.0,6239609.0,0.0
1579356892767,5365574.0,6229395.0,0.0
1579356892820,5367516.0,6238440.0,0.0
1579356892866,5375467.0,6271557.0,0.0
1579356892908,5385061.0,6302574.0,0.0
1579356892965,5396746.0,6322314.0,0.0
1579356893014,5413865.0,6335802.0,0.0
1579356893061,5420391.0,6319225.0,0.0
1579356893110,5403340.0,6288219.0,0.0
1579356893157,5391896.0,6276000.0,0.0
1579356893207,5387187.0,6273900.0,0.0
1579356893258,5405409.0,6303516.0,0.0
1579356893310,5425953.0,6353900.0,0.0
1579356893356,5418954.0,6352403.0,0.0
1579356893404,5444003.0,6351242.0,0.0
1579356893451,5452389.0,6346825.0,0.0
1579356893498,5439694.0,6314769.0,0.0
1579356893546,5425044.0,6297914.0,0.0
1579356893598,5415176.0,6293677.0,0.0
1579356893645,5398319.0,6303201.0,0.0
1579356893696,5384394.0,6315504.0,0.0
1579356893746,5363185.0,6324753.0,0.0
1579356893794,5398090.0,6395192.0,0.0
1579356893842,5416520.0,6396290.0,0.0
1579356893886,5411740.0,6354794.0,0.0
1579356893940,5380636.0,6311450.0,0.0
1579356893984,5376330.0,6305677.0,0.0
1579356894039,5374146.0,6306607.0,0.0
1579356894084,5397194.0,6341983.0,0.0
1579356894136,5428238.0,6422321.0,0.0
1579356894184,5421815.0,6455946.0,0.0
1579356894226,5448666.0,6471799.0,0.0
1579356894285,5463902.0,6455970.0,0.0
1579356894324,5440693.0,6407170.0,0.0
1579356894378,5420781.0,6376163.0,0.0
1579356894426,5411590.0,6372746.0,0.0
1579356894477,5419897.0,6376790.0,0.0
1579356894526,5455744.0,6428708.0,0.0
1579356894574,5490741.0,6475493.0,0.0
1579356894624,5489110.0,6480119.0,0.0
1579356894664,5514180.0,6493713.0,0.0
1579356894719,5491705.0,6439417.0,0.0
1579356894767,5467383.0,6374148.0,0.0
1579356894811,5450425.0,6342382.0,0.0
1579356894866,5439900.0,6331502.0,0.0
1579356894913,5443623.0,6353839.0,0.0
1579356894964,5475311.0,6430496.0,0.0
1579356895011,5468221.0,6476110.0,0.0
1579356895062,5490857.0,6483401.0,0.0
1579356895105,5509848.0,6481180.0,0.0
1579356895158,5485456.0,6450212.0,0.0
1579356895209,5455607.0,6411938.0,0.0
1579356895257,5467371.0,6397787.0,0.0
1579356895306,5472334.0,6388623.0,0.0
1579356895347,5500506.0,6445298.0,0.0
1579356895401,5507654.0,6507658.0,0.0
1579356895444,5483377.0,6512922.0,0.0
1579356895499,5511112.0,6543589.0,0.0
1579356895551,5524073.0,6544846.0,0.0
1579356895595,5510664.0,6500534.0,0.0
1579356895647,5497199.0,6469770.0,0.0
1579356895689,5495188.0,6453182.0,0.0
1579356895745,5492269.0,6422261.0,0.0
1579356895787,5526980.0,6452215.0,0.0
1579356895843,5554289.0,6509203.0,0.0
1579356895889,5534125.0,6527218.0,0.0
1579356895939,5532552.0,6507997.0,0.0
1579356895988,5518224.0,6494088.0,0.0
1579356896037,5490603.0,6472547.0,0.0
1579356896085,5472462.0,6446227.0,0.0
1579356896127,5455962.0,6426825.0,0.0
1579356896184,5453836.0,6391799.0,0.0
1579356896226,5477528.0,6378639.0,0.0
1579356896275,5484354.0,6370199.0,0.0
1579356896325,5493819.0,6354865.0,0.0
1579356896371,5471692.0,6312801.0,0.0
1579356896422,5434386.0,6267838.0,0.0
1579356896471,5412544.0,6255633.0,0.0
1579356896520,5398664.0,6240564.0,0.0
1579356896566,5384280.0,6233621.0,0.0
1579356896622,5398653.0,6247482.0,0.0
1579356896669,5419414.0,6264543.0,0.0
1579356896720,5420300.0,6255704.0,0.0
1579356896768,5389150.0,6192160.0,0.0
1579356896814,5366160.0,6150699.0,0.0
1579356896865,5327153.0,6107344.0,0.0
1579356896907,5309299.0,6096429.0,0.0
1579356896965,5305048.0,6096054.0,0.0
1579356897008,5305152.0,6117002.0,0.0
1579356897053,5315722.0,6181161.0,0.0
1579356897109,5338322.0,6224410.0,0.0
1579356897155,5361152.0,6222923.0,0.0
1579356897204,5348583.0,6157231.0,0.0
1579356897247,5310897.0,6095776.0,0.0
1579356897305,5273244.0,6066993.0,0.0
1579356897348,5251495.0,6062127.0,0.0
1579356897403,5238259.0,6060292.0,0.0
1579356897450,5248784.0,6077014.0,0.0
1579356897498,5283047.0,6130935.0,0.0
1579356897547,5326166.0,6188370.0,0.0
1579356897591,5314906.0,6166938.0,0.0
1579356897644,5299648.0,6121686.0,0.0
1579356897688,5251197.0,6043001.0,0.0
1579356897744,5211063.0,6001722.0,0.0
1579356897791,5207560.0,5987512.0,0.0
1579356897842,5205217.0,6002375.0,0.0
1579356897888,5237605.0,6048134.0,0.0
1579356897936,5230860.0,6060606.0,0.0
1579356897986,5277369.0,6099495.0,0.0
1579356898027,5284919.0,6081082.0,0.0
1579356898084,5265789.0,6060329.0,0.0
1579356898129,5240270.0,6035614.0,0.0
1579356898180,5192187.0,5989927.0,0.0
1579356898229,5163096.0,5961771.0,0.0
1579356898277,5175424.0,5989274.0,0.0
1579356898326,5207927.0,6049340.0,0.0
1579356898368,5239409.0,6076507.0,0.0
1579356898424,5233296.0,6068453.0,0.0
1579356898471,5210972.0,6043702.0,0.0
1579356898522,5186983.0,6017889.0,0.0
1579356898570,5174872.0,6009944.0,0.0
1579356898618,5154743.0,5955310.0,0.0
1579356898668,5107683.0,5888459.0,0.0
1579356898709,5110726.0,5912352.0,0.0
1579356898759,5117780.0,5942018.0,0.0
1579356898810,5136865.0,5975111.0,0.0
1579356898864,5142668.0,5966177.0,0.0
1579356898912,5117541.0,5935451.0,0.0
1579356898959,5086633.0,5918932.0,0.0
1579356899009,5077844.0,5921553.0,0.0
1579356899050,5073845.0,5931333.0,0.0
1579356899106,5057426.0,5903320.0,0.0
1579356899151,5075924.0,5935197.0,0.0
1579356899203,5081728.0,5955696.0,0.0
1579356899252,5089988.0,5946220.0,0.0
1579356899293,5086678.0,5934266.0,0.0
1579356899350,5073891.0,5900327.0,0.0
1579356899391,5054680.0,5881795.0,0.0
1579356899446,5048396.0,5875709.0,0.0
1579356899491,5063068.0,5893662.0,0.0
1579356899545,5084692.0,5919971.0,0.0
1579356899593,5057967.0,5887746.0,0.0
1579356899640,5045109.0,5849799.0,0.0
1579356899690,4994200.0,5781872.0,0.0
1579356899733,4946737.0,5724932.0,0.0
1579356899787,4892610.0,5684425.0,0.0
1579356899830,4864553.0,5674791.0,0.0
1579356899884,4853914.0,5676372.0,0.0
1579356899931,4872435.0,5697247.0,0.0
1579356899983,4929802.0,5771441.0,0.0
1579356900022,4953114.0,5833341.0,0.0
1579356900072,4958744.0,5793752.0,0.0
1579356900119,4921197.0,5727095.0,0.0
1579356900171,4870643.0,5651512.0,0.0
1579356900225,4846928.0,5617646.0,0.0
1579356900274,4836690.0,5601963.0,0.0
1579356900323,4845826.0,5614266.0,0.0
1579356900372,4844389.0,5626919.0,0.0
1579356900419,4854327.0,5663659.0,0.0
1579356900469,4877053.0,5672810.0,0.0
1579356900511,4867183.0,5649314.0,0.0
1579356900567,4820835.0,5602071.0,0.0
1579356900613,4747051.0,5545517.0,0.0
1579356900665,4711973.0,5516854.0,0.0
1579356900714,4688889.0,5513365.0,0.0
1579356900760,4708985.0,5536305.0,0.0
1579356900808,4768960.0,5613565.0,0.0
1579356900858,4808920.0,5665928.0,0.0
1579356900908,4816481.0,5654423.0,0.0
1579356900951,4807347.0,5625530.0,0.0
1579356901005,4777257.0,5593185.0,0.0
1579356901053,4748498.0,5551301.0,0.0
1579356901101,4708985.0,5488650.0,0.0
1579356901151,4715396.0,5484570.0,0.0
1579356901191,4754979.0,5539952.0,0.0
1579356901249,4780806.0,5598678.0,0.0
1579356901296,4791595.0,5598001.0,0.0
1579356901347,4770754.0,5556601.0,0.0
1579356901391,4726897.0,5525451.0,0.0
1579356901437,4711869.0,5516155.0,0.0
1579356901487,4701976.0,5506531.0,0.0
1579356901535,4663832.0,5445451.0,0.0
1579356901584,4660166.0,5416270.0,0.0
1579356901633,4697001.0,5446380.0,0.0
1579356901687,4713294.0,5450244.0,0.0
1579356901734,4704090.0,5432241.0,0.0
1579356901785,4686397.0,5415677.0,0.0
1579356901834,4666314.0,5390275.0,0.0
1579356901879,4670185.0,5374711.0,0.0
1579356901931,4675885.0,5367684.0,0.0
1579356901973,4670071.0,5355333.0,0.0
1579356902029,4618574.0,5282468.0,0.0
1579356902074,4584037.0,5221629.0,0.0
1579356902123,4569502.0,5190321.0,0.0
1579356902174,4549753.0,5161623.0,0.0
1579356902220,4537046.0,5153835.0,0.0
1579356902272,4540147.0,5158484.0,0.0
1579356902313,4545191.0,5157953.0,0.0
1579356902369,4530553.0,5162843.0,0.0
1579356902415,4552509.0,5186965.0,0.0
1579356902458,4585232.0,5196455.0,0.0
1579356902516,4535390.0,5119086.0,0.0
1579356902561,4490950.0,5030610.0,0.0
1579356902613,4474795.0,4972463.0,0.0
1579356902655,4479677.0,4956793.0,0.0
1579356902710,4505771.0,4964193.0,0.0
1579356902754,4530679.0,4985660.0,0.0
1579356902807,4566274.0,5046922.0,0.0
1579356902856,4584233.0,5085160.0,0.0
1579356902902,4608912.0,5101906.0,0.0
1579356902954,4615690.0,5093406.0,0.0
1579356902995,4584668.0,5041104.0,0.0
1579356903050,4537092.0,4985105.0,0.0
1579356903096,4524533.0,4957118.0,0.0
1579356903148,4526348.0,4947291.0,0.0
1579356903196,4533621.0,4971172.0,0.0
1579356903238,4575364.0,5019383.0,0.0
1579356903298,4629914.0,5073110.0,0.0
1579356903336,4640072.0,5081526.0,0.0
1579356903392,4642140.0,5082454.0,0.0
1579356903435,4634913.0,5065636.0,0.0
1579356903489,4612232.0,5012078.0,0.0
1579356903537,4600858.0,4973719.0,0.0
1579356903585,4612382.0,4978078.0,0.0
1579356903630,4644081.0,5028087.0,0.0
1579356903680,4661351.0,5085329.0,0.0
1579356903733,4682444.0,5094977.0,0.0
1579356903775,4683916.0,5079558.0,0.0
1579356903830,4664648.0,5065237.0,0.0
1579356903877,4650929.0,5057414.0,0.0
1579356903926,4673426.0,5065155.0,0.0
1579356903978,4648000.0,5049567.0,0.0
1579356904017,4649917.0,5043807.0,0.0
1579356904065,4697451.0,5094747.0,0.0
1579356904115,4737651.0,5148606.0,0.0
1579356904163,4748360.0,5161454.0,0.0
1579356904214,4749555.0,5167032.0,0.0
1579356904269,4736136.0,5153679.0,0.0
1579356904320,4732401.0,5147038.0,0.0
1579356904363,4743223.0,5162263.0,0.0
1579356904415,4759343.0,5204677.0,0.0
1579356904456,4814115.0,5307860.0,0.0
1579356904503,4818056.0,5330425.0,0.0
1579356904557,4845342.0,5349067.0,0.0
1579356904608,4842458.0,5312724.0,0.0
1579356904659,4818824.0,5272157.0,0.0
1579356904704,4811724.0,5258732.0,0.0
1579356904756,4814092.0,5264128.0,0.0
1579356904798,4821330.0,5278811.0,0.0
1579356904853,4873492.0,5360538.0,0.0
1579356904898,4898574.0,5432157.0,0.0
1579356904950,4907569.0,5426785.0,0.0
1579356904999,4912683.0,5418684.0,0.0
1579356905039,4887073.0,5368313.0,0.0
1579356905088,4858648.0,5337367.0,0.0
1579356905137,4854131.0,5334324.0,0.0
1579356905185,4847549.0,5360765.0,0.0
1579356905241,4877605.0,5431265.0,0.0
1579356905282,4890473.0,5473221.0,0.0
1579356905338,4933363.0,5538358.0,0.0
1579356905380,4956067.0,5555564.0,0.0
1579356905438,4951506.0,5531198.0,0.0
1579356905479,4946186.0,5505288.0,0.0
1579356905536,4942406.0,5491390.0,0.0
1579356905578,4942808.0,5488301.0,0.0
1579356905626,4982251.0,5531984.0,0.0
1579356905682,5027829.0,5596071.0,0.0
1579356905729,5042043.0,5626847.0,0.0
1579356905780,5046018.0,5621521.0,0.0
1579356905820,5030967.0,5599995.0,0.0
1579356905876,5001083.0,5547992.0,0.0
1579356905919,4966856.0,5501184.0,0.0
1579356905974,4948667.0,5475623.0,0.0
1579356906021,4960755.0,5489893.0,0.0
1579356906070,4983147.0,5518605.0,0.0
1579356906116,4991155.0,5529604.0,0.0
1579356906162,4987800.0,5512061.0,0.0
1579356906217,4982538.0,5480946.0,0.0
1579356906260,4928239.0,5435103.0,0.0
1579356906308,4910282.0,5427412.0,0.0
1579356906360,4887589.0,5387786.0,0.0
1579356906409,4851592.0,5342932.0,0.0
1579356906457,4838920.0,5323266.0,0.0
1579356906501,4885832.0,5378032.0,0.0
1579356906557,4916071.0,5404340.0,0.0
1579356906600,4894391.0,5375375.0,0.0
1579356906655,4887428.0,5363881.0,0.0
1579356906699,4860544.0,5345058.0,0.0
1579356906751,4849019.0,5329217.0,0.0
1579356906802,4845883.0,5319547.0,0.0
1579356906842,4835416.0,5290170.0,0.0
1579356906899,4849352.0,5289556.0,0.0
1579356906941,4839104.0,5281781.0,0.0
1579356906995,4827592.0,5246971.0,0.0
1579356907038,4800247.0,5205970.0,0.0
1579356907093,4783942.0,5189041.0,0.0
1579356907141,4773590.0,5190805.0,0.0
1579356907190,4768937.0,5194704.0,0.0
1579356907236,4781254.0,5213756.0,0.0
1579356907286,4817734.0,5245244.0,0.0
1579356907339,4834072.0,5260724.0,0.0
1579356907379,4845929.0,5261641.0,0.0
1579356907436,4821662.0,5229863.0,0.0
1579356907480,4814067.0,5220759.0,0.0
1579356907533,4799223.0,5210051.0,0.0
1579356907579,4805243.0,5229778.0,0.0
1579356907626,4837402.0,5281562.0,0.0
1579356907679,4886854.0,5396419.0,0.0
1579356907725,4903905.0,5488071.0,0.0
1579356907776,4906444.0,5531198.0,0.0
1579356907818,4946163.0,5555019.0,0.0
1579356907874,4923792.0,5464708.0,0.0
1579356907922,4911578.0,5427991.0,0.0
1579356907968,4880317.0,5389429.0,0.0
1579356908018,4862852.0,5370315.0,0.0
1579356908066,4826432.0,5350263.0,0.0
1579356908118,4793145.0,5357784.0,0.0
1579356908162,4797892.0,5358086.0,0.0
1579356908214,4794031.0,5358448.0,0.0
1579356908264,4790205.0,5335701.0,0.0
1579356908312,4772108.0,5282106.0,0.0
1579356908356,4760951.0,5241176.0,0.0
1579356908403,4760355.0,5216377.0,0.0
1579356908460,4771786.0,5230383.0,0.0
1579356908498,4807438.0,5297427.0,0.0
1579356908555,4829648.0,5365415.0,0.0
1579356908606,4855948.0,5402385.0,0.0
1579356908651,4860360.0,5400983.0,0.0
1579356908697,4857141.0,5389357.0,0.0
1579356908747,4843631.0,5373915.0,0.0
1579356908798,4817630.0,5359982.0,0.0
1579356908839,4812298.0,5342088.0,0.0
1579356908896,4844411.0,5358181.0,0.0
1579356908946,4863576.0,5408590.0,0.0
1579356908993,4896631.0,5437314.0,0.0
1579356909038,4896941.0,5423320.0,0.0
1579356909090,4889083.0,5397942.0,0.0
1579356909137,4876248.0,5372815.0,0.0
1579356909182,4867392.0,5369556.0,0.0
1579356909238,4868288.0,5371439.0,0.0
1579356909286,4877985.0,5400526.0,0.0
1579356909334,4909776.0,5446356.0,0.0
1579356909382,4929789.0,5494688.0,0.0
1579356909429,4951690.0,5513281.0,0.0
1579356909477,4941671.0,5495400.0,0.0
1579356909522,4930262.0,5483313.0,0.0
1579356909577,4917691.0,5468897.0,0.0
1579356909625,4906628.0,5464274.0,0.0
1579356909674,4921323.0,5473956.0,0.0
1579356909725,4928320.0,5489338.0,0.0
1579356909771,4932065.0,5505444.0,0.0
1579356909817,4939602.0,5477362.0,0.0
1579356909867,4933743.0,5480838.0,0.0
1579356909920,4919277.0,5460833.0,0.0
1579356909961,4914221.0,5452949.0,0.0
1579356910017,4919737.0,5456945.0,0.0
1579356910068,4929090.0,5465879.0,0.0
1579356910114,4933743.0,5496365.0,0.0
1579356910164,4925136.0,5516999.0,0.0
1579356910212,4942245.0,5514960.0,0.0
1579356910257,4928181.0,5481769.0,0.0
1579356910303,4893058.0,5430443.0,0.0
1579356910358,4857614.0,5409640.0,0.0
1579356910407,4847308.0,5413263.0,0.0
1579356910456,4850006.0,5424418.0,0.0
1579356910501,4867598.0,5446948.0,0.0
1579356910544,4918784.0,5530341.0,0.0
1579356910600,4932296.0,5560814.0,0.0
1579356910647,4953218.0,5573287.0,0.0
1579356910697,4940855.0,5538757.0,0.0
1579356910746,4905213.0,5482361.0,0.0
1579356910799,4893828.0,5465337.0,0.0
1579356910848,4892841.0,5463055.0,0.0
1579356910893,4911211.0,5495556.0,0.0
1579356910941,4912844.0,5531246.0,0.0
1579356910985,4915464.0,5560851.0,0.0
1579356911037,4942670.0,5573070.0,0.0
1579356911086,4951642.0,5574447.0,0.0
1579356911138,4936202.0,5558352.0,0.0
1579356911185,4910189.0,5534060.0,0.0
1579356911234,4888439.0,5507848.0,0.0
1579356911284,4865116.0,5495569.0,0.0
1579356911329,4878949.0,5501075.0,0.0
1579356911383,4918691.0,5542415.0,0.0
1579356911425,4944452.0,5556046.0,0.0
1579356911477,4917014.0,5533915.0,0.0
1579356911524,4900779.0,5510734.0,0.0
1579356911577,4880431.0,5506254.0,0.0
1579356911624,4870618.0,5490462.0,0.0
1579356911674,4842114.0,5446126.0,0.0
1579356911722,4842378.0,5439898.0,0.0
1579356911769,4846020.0,5456427.0,0.0
1579356911817,4875571.0,5463248.0,0.0
1579356911863,4890095.0,5466906.0,0.0
1579356911916,4857556.0,5435441.0,0.0
1579356911966,4824086.0,5427171.0,0.0
1579356912016,4817917.0,5431289.0,0.0
1579356912064,4813563.0,5438774.0,0.0
1579356912105,4842423.0,5450485.0,0.0
1579356912159,4885786.0,5476154.0,0.0
1579356912205,4913189.0,5508319.0,0.0
1579356912258,4891082.0,5480996.0,0.0
1579356912309,4876387.0,5462523.0,0.0
1579356912358,4855349.0,5438364.0,0.0
1579356912406,4848214.0,5431940.0,0.0
1579356912452,4854982.0,5441394.0,0.0
1579356912504,4858888.0,5450691.0,0.0
1579356912544,4880856.0,5496439.0,0.0
1579356912599,4887118.0,5496040.0,0.0
1579356912645,4874262.0,5434682.0,0.0
1579356912699,4844837.0,5375012.0,0.0
1579356912746,4800993.0,5327659.0,0.0
1579356912796,4789561.0,5313280.0,0.0
1579356912845,4788917.0,5316046.0,0.0
1579356912887,4790883.0,5318109.0,0.0
1579356912943,4842368.0,5375713.0,0.0
1579356912987,4874560.0,5446042.0,0.0
1579356913038,4890173.0,5460627.0,0.0
1579356913087,4868769.0,5422403.0,0.0
1579356913139,4838484.0,5362566.0,0.0
1579356913186,4808140.0,5322226.0,0.0
1579356913231,4809346.0,5317011.0,0.0
1579356913284,4815574.0,5328637.0,0.0
1579356913325,4837163.0,5377898.0,0.0
1579356913383,4857659.0,5419467.0,0.0
1579356913427,4887302.0,5429827.0,0.0
1579356913478,4882522.0,5415810.0,0.0
1579356913527,4849686.0,5371257.0,0.0
1579356913575,4812713.0,5322203.0,0.0
1579356913625,4789136.0,5279655.0,0.0
1579356913665,4769810.0,5249568.0,0.0
1579356913723,4773235.0,5244207.0,0.0
1579356913766,4832509.0,5322866.0,0.0
1579356913819,4846732.0,5372394.0,0.0
1579356913868,4844665.0,5350504.0,0.0
1579356913915,4837128.0,5346048.0,0.0
1579356913965,4817721.0,5319100.0,0.0
1579356914013,4799374.0,5286959.0,0.0
1579356914064,4782449.0,5240669.0,0.0
1579356914105,4787757.0,5232145.0,0.0
1579356914152,4814701.0,5286972.0,0.0
1579356914208,4826074.0,5338055.0,0.0
1579356914255,4853086.0,5379770.0,0.0
1579356914311,4846951.0,5360344.0,0.0
1579356914350,4825040.0,5323977.0,0.0
1579356914404,4807956.0,5313631.0,0.0
1579356914445,4812758.0,5316516.0,0.0
1579356914502,4808807.0,5307908.0,0.0
1579356914548,4858487.0,5348052.0,0.0
1579356914591,4849226.0,5404908.0,0.0
1579356914647,4860325.0,5416619.0,0.0
1579356914694,4863483.0,5404231.0,0.0
1579356914743,4847698.0,5359377.0,0.0
1579356914787,4841711.0,5365269.0,0.0
1579356914843,4852465.0,5370871.0,0.0
1579356914892,4841321.0,5338671.0,0.0
1579356914939,4865472.0,5375954.0,0.0
1579356914988,4864726.0,5381701.0,0.0
1579356915030,4856625.0,5380278.0,0.0
1579356915086,4854684.0,5355539.0,0.0
1579356915127,4838771.0,5316215.0,0.0
1579356915183,4824121.0,5289712.0,0.0
1579356915229,4813483.0,5280789.0,0.0
1579356915279,4807496.0,5279956.0,0.0
1579356915329,4819526.0,5296498.0,0.0
1579356915376,4871137.0,5388982.0,0.0
1579356915427,4865207.0,5432133.0,0.0
1579356915467,4873492.0,5404099.0,0.0
1579356915525,4857637.0,5353051.0,0.0
1579356915568,4830315.0,5289929.0,0.0
1579356915615,4809806.0,5260385.0,0.0
1579356915670,4810254.0,5259457.0,0.0
1579356915718,4819422.0,5270961.0,0.0
1579356915766,4843470.0,5315369.0,0.0
1579356915814,4840045.0,5349417.0,0.0
1579356915864,4859464.0,5377464.0,0.0
1579356915908,4856809.0,5349126.0,0.0
1579356915962,4818584.0,5285005.0,0.0
1579356916010,4779875.0,5216292.0,0.0
1579356916059,4762008.0,5197433.0,0.0
1579356916107,4738421.0,5185590.0,0.0
1579356916151,4759552.0,5210715.0,0.0
1579356916201,4805037.0,5267835.0,0.0
1579356916249,4838069.0,5311373.0,0.0
1579356916303,4845365.0,5324604.0,0.0
1579356916351,4838885.0,5321441.0,0.0
1579356916400,4823938.0,5285499.0,0.0
1579356916449,4800441.0,5234186.0,0.0
1579356916493,4787769.0,5198967.0,0.0
1579356916547,4783725.0,5176183.0,0.0
1579356916589,4783438.0,5195973.0,0.0
1579356916646,4802865.0,5243036.0,0.0
1579356916692,4783677.0,5221701.0,0.0
1579356916740,4781828.0,5209411.0,0.0
1579356916789,4742305.0,5175085.0,0.0
1579356916832,4722956.0,5160946.0,0.0
1579356916886,4721682.0,5158749.0,0.0
1579356916929,4699840.0,5118472.0,0.0
1579356916985,4672150.0,5090158.0,0.0
1579356917030,4685902.0,5110091.0,0.0
1579356917082,4737432.0,5185323.0,0.0
1579356917131,4751634.0,5207985.0,0.0
1579356917177,4743752.0,5204195.0,0.0
1579356917223,4735124.0,5179203.0,0.0
1579356917278,4726484.0,5173382.0,0.0
1579356917325,4732469.0,5174710.0,0.0
1579356917372,4733390.0,5169650.0,0.0
1579356917425,4732459.0,5160875.0,0.0
1579356917472,4705930.0,5148318.0,0.0
1579356917518,4705802.0,5161153.0,0.0
1579356917568,4684915.0,5141870.0,0.0
1579356917610,4661248.0,5116333.0,0.0
1579356917667,4642760.0,5095458.0,0.0
1579356917710,4625480.0,5100060.0,0.0
1579356917764,4626147.0,5115164.0,0.0
1579356917812,4655915.0,5147932.0,0.0
1579356917853,4732781.0,5233388.0,0.0
1579356917909,4739249.0,5273111.0,0.0
1579356917952,4739146.0,5247418.0,0.0
1579356917999,4731918.0,5233557.0,0.0
1579356918050,4710468.0,5197203.0,0.0
1579356918096,4700886.0,5180530.0,0.0
1579356918152,4713259.0,5196613.0,0.0
1579356918198,4751244.0,5270430.0,0.0
1579356918246,4776497.0,5346241.0,0.0
1579356918295,4785527.0,5416920.0,0.0
1579356918349,4834785.0,5494688.0,0.0
1579356918390,4852948.0,5518435.0,0.0
1579356918446,4847549.0,5501858.0,0.0
1579356918494,4838736.0,5483242.0,0.0
1579356918543,4838127.0,5471047.0,0.0
1579356918593,4848123.0,5480283.0,0.0
1579356918636,4877594.0,5527009.0,0.0
1579356918690,4947714.0,5606599.0,0.0
1579356918732,4962580.0,5657417.0,0.0
1579356918787,4979769.0,5676444.0,0.0
1579356918833,4989547.0,5678509.0,0.0
1579356918883,4976138.0,5652816.0,0.0
1579356918934,4962869.0,5654326.0,0.0
1579356918981,4961110.0,5640333.0,0.0
1579356919030,4965086.0,5652538.0,0.0
1579356919074,4954262.0,5673957.0,0.0
1579356919128,4961294.0,5684703.0,0.0
1579356919171,4999808.0,5740411.0,0.0
1579356919224,5016640.0,5744045.0,0.0
1579356919274,5011204.0,5717569.0,0.0
1579356919316,5002714.0,5695605.0,0.0
1579356919371,5009354.0,5694761.0,0.0
1579356919414,5017213.0,5693325.0,0.0
1579356919469,5035550.0,5725125.0,0.0
1579356919511,5082211.0,5785604.0,0.0
1579356919567,5060265.0,5795540.0,0.0
1579356919613,5095469.0,5825954.0,0.0
1579356919664,5106337.0,5828308.0,0.0
1579356919713,5103936.0,5816293.0,0.0
1579356919760,5102373.0,5808809.0,0.0
1579356919810,5102189.0,5808568.0,0.0
1579356919854,5110084.0,5817454.0,0.0
1579356919908,5131614.0,5837170.0,0.0
1579356919954,5101857.0,5814217.0,0.0
1579356920005,5126100.0,5848035.0,0.0
1579356920056,5150664.0,5849593.0,0.0
1579356920101,5129913.0,5819192.0,0.0
1579356920152,5113909.0,5803496.0,0.0
1579356920200,5103246.0,5795829.0,0.0
1579356920250,5112198.0,5808724.0,0.0
1579356920296,5152227.0,5852624.0,0.0
1579356920346,5164141.0,5872800.0,0.0
1579356920396,5176033.0,5879222.0,0.0
1579356920441,5175607.0,5855474.0,0.0
1579356920493,5164715.0,5828586.0,0.0
1579356920534,5137934.0,5796614.0,0.0
1579356920590,5125766.0,5791663.0,0.0
1579356920634,5123996.0,5811380.0,0.0
1579356920688,5137255.0,5836507.0,0.0
1579356920736,5120045.0,5845163.0,0.0
1579356920785,5108876.0,5866834.0,0.0
1579356920835,5133155.0,5860267.0,0.0
1579356920881,5133935.0,5812020.0,0.0
1579356920931,5096375.0,5747570.0,0.0
1579356920975,5062321.0,5720695.0,0.0
1579356921028,5043249.0,5706932.0,0.0
1579356921075,5045673.0,5714586.0,0.0
1579356921124,5095411.0,5787027.0,0.0
1579356921175,5101995.0,5841468.0,0.0
1579356921216,5122665.0,5868465.0,0.0
1579356921271,5122745.0,5857236.0,0.0
1579356921318,5097135.0,5821173.0,0.0
1579356921369,5069124.0,5776874.0,0.0
1579356921416,5047993.0,5734894.0,0.0
1579356921467,5039262.0,5721213.0,0.0
1579356921515,5077671.0,5787680.0,0.0
1579356921564,5102350.0,5822609.0,0.0
1579356921612,5109221.0,5846588.0,0.0
1579356921660,5090458.0,5793464.0,0.0
1579356921710,5064390.0,5748115.0,0.0
1579356921755,5022705.0,5712462.0,0.0
1579356921806,5037790.0,5724559.0,0.0
1579356921849,5010365.0,5689183.0,0.0
1579356921902,4971187.0,5649121.0,0.0
1579356921951,4997095.0,5667052.0,0.0
1579356922004,5035988.0,5709587.0,0.0
1579356922052,5006080.0,5670191.0,0.0
1579356922097,4991087.0,5653167.0,0.0
1579356922147,4971036.0,5629513.0,0.0
1579356922198,4959145.0,5617199.0,0.0
1579356922243,4960330.0,5622898.0,0.0
1579356922295,4974542.0,5656450.0,0.0
1579356922337,5009205.0,5729449.0,0.0
1579356922393,5028692.0,5770656.0,0.0
1579356922438,5065953.0,5808494.0,0.0
1579356922489,5093181.0,5812321.0,0.0
1579356922538,5088357.0,5787548.0,0.0
1579356922584,5069685.0,5771164.0,0.0
1579356922629,5053980.0,5759342.0,0.0
1579356922677,5052486.0,5766528.0,0.0
1579356922734,5094573.0,5837557.0,0.0
1579356922779,5101627.0,5871446.0,0.0
1579356922829,5137003.0,5884125.0,0.0
1579356922877,5131177.0,5834719.0,0.0
1579356922926,5097193.0,5771344.0,0.0
1579356922969,5057990.0,5736426.0,0.0
1579356923018,5050752.0,5728084.0,0.0
1579356923065,5046191.0,5740845.0,0.0
1579356923116,5065434.0,5776657.0,0.0
1579356923164,5099317.0,5815666.0,0.0
1579356923218,5094883.0,5819687.0,0.0
1579356923259,5115930.0,5805127.0,0.0
1579356923312,5095079.0,5785916.0,0.0
1579356923360,5039137.0,5725307.0,0.0
1579356923409,5002657.0,5715262.0,0.0
1579356923456,4998486.0,5711809.0,0.0
1579356923512,5006369.0,5731006.0,0.0
1579356923561,5060126.0,5791375.0,0.0
1579356923606,5078315.0,5836361.0,0.0
1579356923652,5079762.0,5825457.0,0.0
1579356923700,5065273.0,5805778.0,0.0
1579356923757,5048786.0,5776125.0,0.0
1579356923799,5026681.0,5747994.0,0.0
1579356923854,4999463.0,5706424.0,0.0
1579356923901,4990294.0,5693105.0,0.0
1579356923945,5024648.0,5772140.0,0.0
1579356923992,5053671.0,5837882.0,0.0
1579356924042,5106533.0,5904058.0,0.0
1579356924091,5158924.0,5953729.0,0.0
1579356924146,5171266.0,5947595.0,0.0
1579356924194,5152846.0,5908477.0,0.0
1579356924239,5122595.0,5877701.0,0.0
1579356924291,5114254.0,5872774.0,0.0
1579356924340,5125433.0,5866593.0,0.0
1579356924383,5187866.0,5903960.0,0.0
1579356924439,5177263.0,5941317.0,0.0
1579356924479,5196300.0,5960200.0,0.0
1579356924536,5198346.0,5969690.0,0.0
1579356924579,5176768.0,5942308.0,0.0
1579356924630,5146425.0,5922024.0,0.0
1579356924682,5138807.0,5915589.0,0.0
1579356924723,5147425.0,5938336.0,0.0
1579356924779,5170392.0,5969171.0,0.0
1579356924820,5190406.0,5998461.0,0.0
1579356924875,5210467.0,6046431.0,0.0
1579356924919,5237985.0,6055087.0,0.0
1579356924973,5222426.0,6027765.0,0.0
1579356925021,5209571.0,6014641.0,0.0
1579356925068,5190292.0,5997448.0,0.0
1579356925116,5189819.0,5997533.0,0.0
1579356925164,5219313.0,6049618.0,0.0
1579356925215,5266202.0,6115009.0,0.0
1579356925257,5270453.0,6126865.0,0.0
1579356925314,5294765.0,6134629.0,0.0
1579356925363,5289893.0,6121795.0,0.0
1579356925410,5260859.0,6091346.0,0.0
1579356925457,5247073.0,6079683.0,0.0
1579356925505,5238627.0,6077882.0,0.0
1579356925558,5239880.0,6072606.0,0.0
1579356925604,5240363.0,6104469.0,0.0
1579356925648,5214201.0,6089908.0,0.0
1579356925704,5250818.0,6121252.0,0.0
1579356925752,5267685.0,6119393.0,0.0
1579356925796,5251990.0,6045526.0,0.0
1579356925844,5223312.0,5962482.0,0.0
1579356925899,5190003.0,5922664.0,0.0
1579356925940,5160142.0,5904674.0,0.0
1579356925995,5169886.0,5928894.0,0.0
1579356926042,5227598.0,5991688.0,0.0
1579356926093,5243511.0,6048761.0,0.0
1579356926138,5237076.0,6087482.0,0.0
1579356926188,5244936.0,6084004.0,0.0
1579356926237,5235870.0,6078464.0,0.0
1579356926284,5214005.0,6045635.0,0.0
1579356926340,5201127.0,6006189.0,0.0
1579356926378,5198587.0,5992100.0,0.0
1579356926434,5209191.0,6034212.0,0.0
1579356926482,5236892.0,6094956.0,0.0
1579356926530,5245716.0,6123075.0,0.0
1579356926578,5286309.0,6158644.0,0.0
1579356926627,5300407.0,6163219.0,0.0
1579356926678,5278794.0,6125672.0,0.0
1579356926717,5253714.0,6100098.0,0.0
1579356926775,5236145.0,6078318.0,0.0
1579356926825,5227759.0,6068284.0,0.0
1579356926863,5249761.0,6101124.0,0.0
1579356926921,5302761.0,6160299.0,0.0
1579356926965,5273670.0,6177080.0,0.0
1579356927019,5301153.0,6182840.0,0.0
1579356927060,5298603.0,6173615.0,0.0
1579356927116,5282126.0,6152111.0,0.0
1579356927165,5267984.0,6136259.0,0.0
1579356927213,5268948.0,6137020.0,0.0
1579356927261,5267247.0,6111255.0,0.0
1579356927309,5286251.0,6127735.0,0.0
1579356927359,5289812.0,6143093.0,0.0
1579356927404,5306301.0,6168352.0,0.0
1579356927458,5337839.0,6169728.0,0.0
1579356927506,5318387.0,6129726.0,0.0
1579356927554,5295971.0,6103684.0,0.0
1579356927601,5258654.0,6070072.0,0.0
1579356927651,5259561.0,6062138.0,0.0
1579356927697,5254827.0,6042760.0,0.0
1579356927740,5246451.0,6017008.0,0.0
1579356927802,5274279.0,6020968.0,0.0
1579356927846,5238707.0,5966129.0,0.0
1579356927895,5196473.0,5927953.0,0.0
1579356927944,5161602.0,5894990.0,0.0
1579356927985,5141852.0,5883786.0,0.0
1579356928034,5136935.0,5887373.0,0.0
1579356928086,5141921.0,5913656.0,0.0
1579356928131,5172690.0,5993500.0,0.0
1579356928181,5160097.0,6005901.0,0.0
1579356928228,5186522.0,6015184.0,0.0
1579356928282,5179377.0,5964752.0,0.0
1579356928326,5147321.0,5902754.0,0.0
1579356928378,5108508.0,5875022.0,0.0
1579356928423,5090667.0,5867138.0,0.0
1579356928476,5086887.0,5874646.0,0.0
1579356928520,5097915.0,5895740.0,0.0
1579356928577,5139313.0,5939362.0,0.0
1579356928628,5183454.0,5995637.0,0.0
1579356928674,5169944.0,5992280.0,0.0
1579356928721,5140979.0,5939312.0,0.0
1579356928770,5109349.0,5892636.0,0.0
1579356928817,5079211.0,5856078.0,0.0
1579356928865,5076108.0,5863792.0,0.0
1579356928918,5079659.0,5895365.0,0.0
1579356928964,5094319.0,5963099.0,0.0
1579356929015,5122871.0,6010452.0,0.0
1579356929063,5174940.0,6061246.0,0.0
1579356929112,5205101.0,6072836.0,0.0
1579356929161,5204894.0,6066280.0,0.0
1579356929201,5205056.0,6054460.0,0.0
1579356929257,5193841.0,6025157.0,0.0
1579356929307,5198563.0,6020230.0,0.0
1579356929357,5213821.0,6043413.0,0.0
1579356929404,5274704.0,6124849.0,0.0
1579356929452,5277153.0,6163534.0,0.0
1579356929501,5279841.0,6166842.0,0.0
1579356929544,5264410.0,6147440.0,0.0
1579356929597,5241327.0,6113898.0,0.0
1579356929643,5215465.0,6043654.0,0.0
1579356929698,5197357.0,5985060.0,0.0
1579356929746,5199126.0,5992944.0,0.0
1579356929794,5216245.0,6075589.0,0.0
1579356929845,5198069.0,6076483.0,0.0
1579356929889,5249680.0,6115479.0,0.0
1579356929936,5254781.0,6090259.0,0.0
1579356929986,5222082.0,6025495.0,0.0
1579356930038,5202103.0,6003642.0,0.0
1579356930085,5191337.0,5982670.0,0.0
1579356930133,5163313.0,5922978.0,0.0
1579356930184,5201723.0,5961070.0,0.0
1579356930231,5185455.0,6028561.0,0.0
1579356930281,5205433.0,6062247.0,0.0
1579356930325,5213786.0,6055727.0,0.0
1579356930377,5196713.0,6003063.0,0.0
1579356930425,5167657.0,5962906.0,0.0
1579356930475,5150686.0,5941812.0,0.0
1579356930525,5156787.0,5946255.0,0.0
1579356930568,5151733.0,5921952.0,0.0
1579356930622,5104718.0,5875408.0,0.0
1579356930671,5087380.0,5847794.0,0.0
1579356930718,5051705.0,5799706.0,0.0
1579356930765,5011709.0,5764679.0,0.0
1579356930816,4963063.0,5733662.0,0.0
1579356930865,4945255.0,5738213.0,0.0
1579356930910,4943485.0,5735860.0,0.0
1579356930963,4943289.0,5747293.0,0.0
1579356931003,4997716.0,5795323.0,0.0
1579356931059,5016582.0,5807323.0,0.0
1579356931107,4982940.0,5739348.0,0.0
1579356931158,4927997.0,5676118.0,0.0
1579356931206,4884234.0,5620809.0,0.0
1579356931249,4852742.0,5593185.0,0.0
1579356931303,4852442.0,5590141.0,0.0
1579356931345,4867288.0,5618865.0,0.0
1579356931402,4892013.0,5668197.0,0.0
1579356931447,4905697.0,5693856.0,0.0
1579356931499,4939464.0,5700918.0,0.0
1579356931547,4897630.0,5621751.0,0.0
1579356931593,4837002.0,5546194.0,0.0
1579356931645,4777176.0,5499010.0,0.0
1579356931691,4758666.0,5492139.0,0.0
1579356931743,4749188.0,5498190.0,0.0
1579356931788,4770512.0,5520101.0,0.0
1579356931832,4840644.0,5603024.0,0.0
1579356931879,4849238.0,5625506.0,0.0
1579356931928,4846779.0,5602566.0,0.0
1579356931977,4813483.0,5545723.0,0.0
1579356932025,4743626.0,5447588.0,0.0
1579356932083,4699978.0,5382185.0,0.0
1579356932125,4691728.0,5368287.0,0.0
1579356932177,4696968.0,5382449.0,0.0
1579356932222,4721199.0,5425384.0,0.0
1579356932278,4737180.0,5438485.0,0.0
1579356932328,4736227.0,5434354.0,0.0
1579356932367,4723980.0,5403387.0,0.0
1579356932424,4698599.0,5377501.0,0.0
1579356932465,4671081.0,5349248.0,0.0
1579356932518,4627674.0,5290775.0,0.0
1579356932567,4599651.0,5251536.0,0.0
1579356932616,4644197.0,5286922.0,0.0
1579356932660,4691154.0,5361358.0,0.0
1579356932712,4715005.0,5402409.0,0.0
1579356932764,4722566.0,5387752.0,0.0
1579356932805,4710651.0,5376438.0,0.0
1579356932863,4700610.0,5363156.0,0.0
1579356932908,4703632.0,5369786.0,0.0
1579356932958,4709446.0,5361032.0,0.0
1579356933007,4724209.0,5369482.0,0.0
1579356933054,4696152.0,5335376.0,0.0
1579356933105,4703436.0,5343307.0,0.0
1579356933146,4692176.0,5306012.0,0.0
1579356933203,4678067.0,5267341.0,0.0
1579356933250,4656743.0,5261242.0,0.0
1579356933293,4656536.0,5268764.0,0.0
1579356933339,4660878.0,5289133.0,0.0
1579356933387,4688132.0,5313256.0,0.0
1579356933440,4745969.0,5351736.0,0.0
1579356933489,4738295.0,5342244.0,0.0
1579356933538,4720681.0,5286235.0,0.0
1579356933587,4711064.0,5268137.0,0.0
1579356933641,4692131.0,5240259.0,0.0
1579356933689,4684294.0,5234330.0,0.0
1579356933736,4691084.0,5236226.0,0.0
1579356933786,4709101.0,5250618.0,0.0
1579356933827,4743454.0,5322023.0,0.0
1579356933884,4756069.0,5364399.0,0.0
1579356933927,4773406.0,5373817.0,0.0
1579356933983,4768018.0,5334831.0,0.0
1579356934030,4737583.0,5282505.0,0.0
1579356934080,4723484.0,5260240.0,0.0
1579356934128,4719269.0,5255736.0,0.0
1579356934168,4723588.0,5258539.0,0.0
1579356934226,4752324.0,5279268.0,0.0
1579356934267,4801211.0,5331126.0,0.0
1579356934323,4836909.0,5390455.0,0.0
1579356934370,4839735.0,5380918.0,0.0
1579356934418,4830187.0,5344768.0,0.0
1579356934469,4801154.0,5299601.0,0.0
1579356934512,4779932.0,5260771.0,0.0
1579356934566,4782288.0,5258539.0,0.0
1579356934607,4812678.0,5298816.0,0.0
1579356934655,4828614.0,5324363.0,0.0
1579356934710,4833509.0,5357988.0,0.0
1579356934759,4862668.0,5379505.0,0.0
1579356934809,4852994.0,5366248.0,0.0
1579356934853,4830016.0,5343947.0,0.0
1579356934907,4810496.0,5321068.0,0.0
1579356934948,4792158.0,5286089.0,0.0
1579356935002,4775750.0,5262292.0,0.0
1579356935051,4809542.0,5285922.0,0.0
1579356935094,4845584.0,5361538.0,0.0
1579356935151,4875629.0,5397905.0,0.0
1579356935197,4888922.0,5404014.0,0.0
1579356935248,4887611.0,5393679.0,0.0
1579356935288,4870160.0,5377210.0,0.0
1579356935348,4867689.0,5375785.0,0.0
1579356935391,4869574.0,5371402.0,0.0
1579356935444,4861314.0,5346024.0,0.0
1579356935491,4848685.0,5351181.0,0.0
1579356935535,4884969.0,5389019.0,0.0
1579356935588,4897253.0,5394126.0,0.0
1579356935630,4870321.0,5370064.0,0.0
1579356935686,4846228.0,5354235.0,0.0
1579356935730,4844321.0,5353992.0,0.0
1579356935785,4837150.0,5359221.0,0.0
1579356935832,4845468.0,5370220.0,0.0
1579356935880,4860911.0,5379069.0,0.0
1579356935929,4883328.0,5401840.0,0.0
1579356935970,4873182.0,5362976.0,0.0
1579356936026,4868413.0,5353328.0,0.0
1579356936069,4859819.0,5330957.0,0.0
1579356936117,4854891.0,5329243.0,0.0
1579356936169,4864759.0,5333744.0,0.0
1579356936216,4869770.0,5339179.0,0.0
1579356936264,4884946.0,5355272.0,0.0
1579356936314,4893795.0,5383102.0,0.0
1579356936362,4907431.0,5379672.0,0.0
1579356936411,4878513.0,5335278.0,0.0
1579356936459,4836265.0,5288094.0,0.0
1579356936511,4798604.0,5270395.0,0.0
1579356936557,4799052.0,5266870.0,0.0
1579356936606,4799568.0,5271191.0,0.0
1579356936654,4849950.0,5317011.0,0.0
1579356936702,4876744.0,5379215.0,0.0
1579356936752,4905088.0,5395889.0,0.0
1579356936798,4896724.0,5377065.0,0.0
1579356936850,4898343.0,5376329.0,0.0
1579356936898,4868149.0,5333358.0,0.0
1579356936946,4853270.0,5306953.0,0.0
1579356936996,4857327.0,5307146.0,0.0
1579356937044,4885751.0,5352604.0,0.0
1579356937092,4924527.0,5421147.0,0.0
1579356937148,4960788.0,5494736.0,0.0
1579356937192,4992924.0,5533854.0,0.0
1579356937238,4976276.0,5506314.0,0.0
1579356937294,4954849.0,5484183.0,0.0
1579356937343,4937453.0,5473245.0,0.0
1579356937391,4934156.0,5459167.0,0.0
1579356937433,4957250.0,5474779.0,0.0
1579356937488,4972612.0,5536292.0,0.0
1579356937532,4974542.0,5565270.0,0.0
1579356937588,4993994.0,5558341.0,0.0
1579356937635,4996705.0,5558146.0,0.0
1579356937685,4979367.0,5526454.0,0.0
1579356937731,4962386.0,5511276.0,0.0
1579356937778,4962950.0,5509477.0,0.0
1579356937829,5021142.0,5584804.0,0.0
1579356937871,5025176.0,5608615.0,0.0
1579356937926,5040136.0,5646756.0,0.0
1579356937973,5080384.0,5673439.0,0.0
1579356938024,5079958.0,5647878.0,0.0
1579356938073,5058163.0,5623851.0,0.0
1579356938119,5042582.0,5611296.0,0.0
1579356938171,5028347.0,5604039.0,0.0
1579356938213,5033562.0,5610016.0,0.0
1579356938269,5055415.0,5637254.0,0.0
1579356938314,5091332.0,5699325.0,0.0
1579356938363,5113162.0,5709539.0,0.0
1579356938406,5100259.0,5686115.0,0.0
1579356938457,5079269.0,5648542.0,0.0
1579356938506,5057094.0,5626194.0,0.0
1579356938557,5046397.0,5615412.0,0.0
1579356938603,5046443.0,5624734.0,0.0
1579356938652,5052785.0,5643652.0,0.0
1579356938702,5036102.0,5663466.0,0.0
1579356938755,5063481.0,5677676.0,0.0
1579356938802,5057864.0,5653517.0,0.0
1579356938853,5041938.0,5624589.0,0.0
1579356938894,5011676.0,5603460.0,0.0
1579356938950,4989949.0,5579335.0,0.0
1579356938994,4966602.0,5559063.0,0.0
1579356939046,4962076.0,5547292.0,0.0
1579356939096,5000852.0,5584262.0,0.0
1579356939143,5024809.0,5623176.0,0.0
1579356939193,5020533.0,5609942.0,0.0
1579356939234,5004909.0,5592955.0,0.0
1579356939283,4989570.0,5578914.0,0.0
1579356939335,4974346.0,5571996.0,0.0
1579356939380,4969820.0,5550058.0,0.0
1579356939436,4953562.0,5525536.0,0.0
1579356939478,4968177.0,5583804.0,0.0
1579356939534,4983137.0,5609302.0,0.0
1579356939574,5000072.0,5631796.0,0.0
1579356939631,5018260.0,5620942.0,0.0
1579356939676,4964616.0,5564786.0,0.0
1579356939727,4940279.0,5557881.0,0.0
1579356939777,4937614.0,5554030.0,0.0
1579356939825,4934385.0,5552605.0,0.0
1579356939876,4974255.0,5587208.0,0.0
1579356939924,5017123.0,5620846.0,0.0
1579356939973,5045605.0,5642832.0,0.0
1579356940015,5004919.0,5583971.0,0.0
1579356940070,4986789.0,5564800.0,0.0
1579356940116,4962225.0,5544178.0,0.0
1579356940165,4955734.0,5539963.0,0.0
1579356940217,4973278.0,5560090.0,0.0
1579356940259,5017616.0,5642843.0,0.0
1579356940309,5022441.0,5680344.0,0.0
1579356940355,5044789.0,5713282.0,0.0
1579356940412,5056117.0,5701558.0,0.0
1579356940456,5045006.0,5656981.0,0.0
1579356940506,5013778.0,5629587.0,0.0
1579356940558,5003140.0,5626411.0,0.0
1579356940602,5001209.0,5628802.0,0.0
1579356940654,5015938.0,5655280.0,0.0
1579356940696,5082440.0,5740797.0,0.0
1579356940752,5085047.0,5792787.0,0.0
1579356940798,5104960.0,5812974.0,0.0
1579356940847,5109681.0,5810800.0,0.0
1579356940897,5080520.0,5783695.0,0.0
1579356940940,5074052.0,5775329.0,0.0
1579356940991,5062988.0,5759101.0,0.0
1579356941038,5092252.0,5792242.0,0.0
1579356941093,5140783.0,5842264.0,0.0
1579356941140,5142965.0,5854954.0,0.0
1579356941186,5154685.0,5864057.0,0.0
1579356941236,5144103.0,5822995.0,0.0
1579356941281,5107658.0,5777609.0,0.0
1579356941339,5076797.0,5765356.0,0.0
1579356941376,5062689.0,5764354.0,0.0
1579356941433,5066607.0,5754476.0,0.0
1579356941478,5055048.0,5733868.0,0.0
1579356941531,5102501.0,5786183.0,0.0
1579356941580,5092172.0,5755613.0,0.0
1579356941620,5061322.0,5727045.0,0.0
1579356941670,5051567.0,5713631.0,0.0
1579356941720,5030887.0,5692780.0,0.0
1579356941774,5021406.0,5684100.0,0.0
1579356941818,5031058.0,5705519.0,0.0
1579356941873,5051590.0,5774967.0,0.0
1579356941921,5079165.0,5816402.0,0.0
1579356941963,5091699.0,5826967.0,0.0
1579356942019,5131982.0,5836301.0,0.0
1579356942058,5105591.0,5795104.0,0.0
1579356942116,5076052.0,5769508.0,0.0
1579356942158,5056359.0,5759958.0,0.0
1579356942213,5049098.0,5759657.0,0.0
1579356942261,5087564.0,5796722.0,0.0
1579356942301,5116310.0,5838366.0,0.0
1579356942356,5140323.0,5873718.0,0.0
1579356942400,5130754.0,5886902.0,0.0
1579356942457,5120896.0,5877532.0,0.0
1579356942516,5109716.0,5859085.0,0.0
1579356942545,5098824.0,5823720.0,0.0
1579356942597,5087793.0,5815883.0,0.0
1579356942642,5088840.0,5847094.0,0.0
1579356942692,5099788.0,5872607.0,0.0
1579356942739,5120642.0,5903490.0,0.0
1579356942791,5136303.0,5896415.0,0.0
1579356942840,5124525.0,5853554.0,0.0
1579356942890,5094181.0,5812503.0,0.0
1579356942937,5065137.0,5774036.0,0.0
1579356942985,5043169.0,5741160.0,0.0
1579356943045,5013768.0,5708923.0,0.0
1579356943088,5018593.0,5721504.0,0.0
1579356943136,5061941.0,5780000.0,0.0
1579356943185,5057197.0,5750686.0,0.0
1579356943235,5060219.0,5751228.0,0.0
1579356943277,5016765.0,5708537.0,0.0
1579356943333,4994809.0,5693771.0,0.0
1579356943380,4992924.0,5694036.0,0.0
1579356943430,4967671.0,5652273.0,0.0
1579356943476,4949115.0,5648338.0,0.0
1579356943527,4941268.0,5676470.0,0.0
1579356943578,4949747.0,5708995.0,0.0
1579356943618,4956054.0,5702042.0,0.0
1579356943668,4944220.0,5669141.0,0.0
1579356943724,4921542.0,5651200.0,0.0
1579356943772,4912935.0,5649920.0,0.0
1579356943817,4910144.0,5654000.0,0.0
1579356943862,4921403.0,5680331.0,0.0
1579356943919,4986663.0,5723847.0,0.0
1579356943959,5065608.0,5820146.0,0.0
1579356944015,5112301.0,5898057.0,0.0
1579356944060,5110497.0,5909406.0,0.0
1579356944113,5095262.0,5900025.0,0.0
1579356944160,5074087.0,5887034.0,0.0
1579356944207,5068779.0,5886720.0,0.0
1579356944257,5071099.0,5884244.0,0.0
1579356944304,5098869.0,5926612.0,0.0
1579356944356,5110645.0,5977901.0,0.0
1579356944397,5099926.0,5999863.0,0.0
1579356944455,5128753.0,6001674.0,0.0
1579356944504,5122343.0,5961480.0,0.0
1579356944549,5092998.0,5912788.0,0.0
1579356944596,5066021.0,5892141.0,0.0
1579356944642,5053910.0,5889920.0,0.0
1579356944697,5054302.0,5898528.0,0.0
1579356944738,5121135.0,5951700.0,0.0
1579356944794,5155604.0,5989697.0,0.0
1579356944846,5171266.0,6014496.0,0.0
1579356944891,5128856.0,5937249.0,0.0
1579356944938,5092585.0,5868452.0,0.0
1579356944988,5043868.0,5809920.0,0.0
1579356945036,5028702.0,5798836.0,0.0
1579356945083,5033323.0,5809280.0,0.0
1579356945136,5042708.0,5823490.0,0.0
1579356945179,5064953.0,5862441.0,0.0
1579356945224,5065469.0,5837774.0,0.0
1579356945273,5031184.0,5778855.0,0.0
1579356945321,4971187.0,5712991.0,0.0
1579356945376,4885417.0,5635575.0,0.0
1579356945426,4807863.0,5582717.0,0.0
1579356945478,4774350.0,5556106.0,0.0
1579356945523,4754657.0,5557508.0,0.0
1579356945574,4804923.0,5606877.0,0.0
1579356945623,4852868.0,5678329.0,0.0
1579356945665,4860003.0,5675780.0,0.0
1579356945717,4812678.0,5619770.0,0.0
1579356945767,4792755.0,5598763.0,0.0
1579356945818,4729333.0,5514465.0,0.0
1579356945860,4674368.0,5428705.0,0.0
1579356945917,4654870.0,5400827.0,0.0
1579356945963,4692797.0,5488807.0,0.0
1579356946014,4745969.0,5605935.0,0.0
1579356946061,4792398.0,5670638.0,0.0
1579356946111,4848939.0,5717809.0,0.0
1579356946158,4854121.0,5680828.0,0.0
1579356946206,4826638.0,5627680.0,0.0
1579356946260,4805037.0,5606599.0,0.0
1579356946303,4770386.0,5545361.0,0.0
1579356946358,4725392.0,5500639.0,0.0
1579356946407,4771086.0,5574180.0,0.0
1579356946454,4806876.0,5635310.0,0.0
1579356946500,4811885.0,5633705.0,0.0
1579356946547,4791882.0,5618527.0,0.0
1579356946596,4769040.0,5583947.0,0.0
1579356946642,4751428.0,5561274.0,0.0
1579356946698,4756081.0,5571282.0,0.0
1579356946747,4776222.0,5619143.0,0.0
1579356946794,4825672.0,5652104.0,0.0
1579356946842,4832245.0,5680249.0,0.0
1579356946892,4859600.0,5715974.0,0.0
1579356946942,4878226.0,5720309.0,0.0
1579356946982,4848342.0,5665857.0,0.0
1579356947037,4790860.0,5613711.0,0.0
1579356947086,4751312.0,5593994.0,0.0
1579356947136,4725254.0,5575196.0,0.0
1579356947185,4710294.0,5562951.0,0.0
1579356947228,4681090.0,5525560.0,0.0
1579356947281,4659730.0,5497272.0,0.0
1579356947331,4596791.0,5416788.0,0.0
1579356947378,4511481.0,5338381.0,0.0
1579356947424,4475094.0,5302499.0,0.0
1579356947479,4455217.0,5282021.0,0.0
1579356947524,4452771.0,5276468.0,0.0
1579356947575,4452620.0,5271361.0,0.0
1579356947617,4497143.0,5359824.0,0.0
1579356947664,4545777.0,5411718.0,0.0
1579356947717,4532599.0,5410039.0,0.0
1579356947762,4528072.0,5386556.0,0.0
1579356947816,4480196.0,5310021.0,0.0
1579356947861,4437764.0,5270805.0,0.0
1579356947916,4406375.0,5249978.0,0.0
1579356947965,4399229.0,5241406.0,0.0
1579356948014,4384361.0,5235792.0,0.0
1579356948064,4407225.0,5259044.0,0.0
1579356948103,4437638.0,5288615.0,0.0
1579356948162,4396667.0,5227268.0,0.0
1579356948202,4269466.0,5089095.0,0.0
1579356948250,4197140.0,4998265.0,0.0
1579356948303,4163728.0,4955862.0,0.0
1579356948348,4156560.0,4934334.0,0.0
1579356948398,4175483.0,4941676.0,0.0
1579356948445,4203827.0,4967610.0,0.0
1579356948499,4200117.0,4964362.0,0.0
1579356948544,4184594.0,4938936.0,0.0
1579356948598,4167566.0,4903873.0,0.0
1579356948646,4082877.0,4811268.0,0.0
1579356948696,3992179.0,4724204.0,0.0
1579356948745,3945486.0,4670381.0,0.0
1579356948787,3912454.0,4658826.0,0.0
1579356948844,3915718.0,4662000.0,0.0
1579356948883,3960951.0,4701084.0,0.0
1579356948935,4007770.0,4745586.0,0.0
1579356948986,4029326.0,4760328.0,0.0
1579356949037,4010448.0,4729771.0,0.0
1579356949085,3975463.0,4666166.0,0.0
1579356949130,3903079.0,4566582.0,0.0
1579356949183,3867427.0,4504428.0,0.0
1579356949224,3878216.0,4492606.0,0.0
1579356949282,3911890.0,4529481.0,0.0
1579356949326,3944809.0,4586311.0,0.0
1579356949379,3969408.0,4631033.0,0.0
1579356949426,3973751.0,4624199.0,0.0
1579356949473,3958022.0,4594364.0,0.0
1579356949525,3922679.0,4581881.0,0.0
1579356949565,3912557.0,4568081.0,0.0
1579356949622,3866221.0,4510077.0,0.0
1579356949665,3857765.0,4495156.0,0.0
1579356949716,3921381.0,4575216.0,0.0
1579356949767,3964822.0,4627566.0,0.0
1579356949815,3992305.0,4647549.0,0.0
1579356949866,3977048.0,4626794.0,0.0
1579356949907,3961228.0,4594497.0,0.0
1579356949963,3957206.0,4578488.0,0.0
1579356950004,3956263.0,4559520.0,0.0
1579356950058,3930423.0,4512915.0,0.0
1579356950106,3937500.0,4524216.0,0.0
1579356950150,3948853.0,4557722.0,0.0
1579356950205,3975704.0,4600365.0,0.0
1579356950246,3992041.0,4610894.0,0.0
1579356950304,3975911.0,4582410.0,0.0
1579356950348,3956608.0,4572342.0,0.0
1579356950402,3956504.0,4576459.0,0.0
1579356950448,3955115.0,4591130.0,0.0
1579356950497,3973371.0,4600981.0,0.0
1579356950546,4013790.0,4632916.0,0.0
1579356950594,4051189.0,4692306.0,0.0
1579356950644,4070525.0,4740733.0,0.0
1579356950693,4077006.0,4738379.0,0.0
1579356950742,4091678.0,4737546.0,0.0
1579356950788,4083877.0,4706347.0,0.0
1579356950838,4095642.0,4704175.0,0.0
1579356950887,4115152.0,4711081.0,0.0
1579356950934,4153377.0,4765654.0,0.0
1579356950985,4168922.0,4795040.0,0.0
1579356951026,4142565.0,4805981.0,0.0
1579356951084,4164292.0,4843554.0,0.0
1579356951127,4183492.0,4840246.0,0.0
1579356951180,4167808.0,4810279.0,0.0
1579356951228,4163041.0,4800631.0,0.0
1579356951275,4169692.0,4799073.0,0.0
1579356951326,4176460.0,4810109.0,0.0
1579356951367,4212157.0,4851087.0,0.0
1579356951424,4287735.0,4935749.0,0.0
1579356951469,4295882.0,4967031.0,0.0
1579356951520,4296836.0,4963119.0,0.0
1579356951570,4279221.0,4935011.0,0.0
1579356951619,4259470.0,4900553.0,0.0
1579356951668,4244535.0,4867738.0,0.0
1579356951714,4245890.0,4858439.0,0.0
1579356951764,4254874.0,4849603.0,0.0
1579356951806,4271419.0,4870840.0,0.0
1579356951854,4327120.0,4972826.0,0.0
1579356951910,4367196.0,5047200.0,0.0
1579356951956,4370322.0,5091764.0,0.0
1579356952008,4408685.0,5152459.0,0.0
1579356952050,4430354.0,5163181.0,0.0
1579356952107,4441395.0,5153544.0,0.0
1579356952147,4438684.0,5129977.0,0.0
1579356952204,4439799.0,5123735.0,0.0
1579356952250,4441913.0,5128758.0,0.0
1579356952301,4478150.0,5191469.0,0.0
1579356952351,4529164.0,5288059.0,0.0
1579356952399,4518823.0,5347375.0,0.0
1579356952446,4552683.0,5381423.0,0.0
1579356952489,4571330.0,5388355.0,0.0
1579356952546,4579486.0,5360741.0,0.0
1579356952588,4574007.0,5335315.0,0.0
1579356952643,4565941.0,5310503.0,0.0
1579356952687,4572248.0,5311409.0,0.0
1579356952738,4582096.0,5322914.0,0.0
1579356952788,4580050.0,5337066.0,0.0
1579356952831,4564529.0,5339806.0,0.0
1579356952886,4577775.0,5358290.0,0.0
1579356952931,4593666.0,5363447.0,0.0
1579356952984,4596928.0,5352918.0,0.0
1579356953031,4585886.0,5314282.0,0.0
1579356953081,4582348.0,5299974.0,0.0
1579356953130,4579776.0,5293201.0,0.0
1579356953177,4585461.0,5302280.0,0.0
1579356953226,4604224.0,5332853.0,0.0
1579356953270,4662131.0,5420784.0,0.0
1579356953318,4645908.0,5483930.0,0.0
1579356953369,4680146.0,5517253.0,0.0
1579356953418,4687902.0,5501787.0,0.0
1579356953463,4664406.0,5439125.0,0.0
1579356953516,4649182.0,5418346.0,0.0
1579356953561,4641922.0,5405112.0,0.0
1579356953609,4641668.0,5408240.0,0.0
1579356953667,4637568.0,5391891.0,0.0
1579356953709,4647056.0,5399523.0,0.0
1579356953755,4641393.0,5405016.0,0.0
1579356953812,4672196.0,5421919.0,0.0
1579356953859,4658467.0,5387474.0,0.0
1579356953909,4631777.0,5342318.0,0.0
1579356953951,4596492.0,5285848.0,0.0
1579356954007,4555819.0,5238870.0,0.0
1579356954049,4530163.0,5227122.0,0.0
1579356954104,4535516.0,5233631.0,0.0
1579356954152,4567539.0,5260964.0,0.0
1579356954194,4606395.0,5335024.0,0.0
1579356954250,4624571.0,5395091.0,0.0
1579356954298,4645815.0,5405342.0,0.0
1579356954348,4642324.0,5372296.0,0.0
1579356954390,4608084.0,5310661.0,0.0
1579356954445,4573041.0,5262112.0,0.0
1579356954492,4560379.0,5238569.0,0.0
1579356954543,4561897.0,5227715.0,0.0
1579356954592,4563264.0,5233002.0,0.0
1579356954636,4596446.0,5283555.0,0.0
1579356954681,4602708.0,5305107.0,0.0
1579356954729,4618345.0,5324376.0,0.0
1579356954786,4611945.0,5314102.0,0.0
1579356954833,4583050.0,5267920.0,0.0
1579356954882,4552993.0,5236334.0,0.0
1579356954933,4530334.0,5204037.0,0.0
1579356954980,4513825.0,5190321.0,0.0
1579356955029,4516032.0,5194862.0,0.0
1579356955074,4529061.0,5211849.0,0.0
1579356955127,4585393.0,5276058.0,0.0
1579356955171,4594745.0,5334601.0,0.0
1579356955224,4608165.0,5334289.0,0.0
1579356955274,4591562.0,5294724.0,0.0
1579356955321,4536563.0,5214420.0,0.0
1579356955372,4501049.0,5155260.0,0.0
1579356955418,4496464.0,5142632.0,0.0
1579356955467,4504495.0,5149392.0,0.0
1579356955511,4530048.0,5186277.0,0.0
1579356955557,4545789.0,5207962.0,0.0
1579356955615,4554165.0,5248516.0,0.0
1579356955660,4569170.0,5259491.0,0.0
1579356955711,4563656.0,5236794.0,0.0
1579356955753,4507288.0,5164231.0,0.0
1579356955809,4443313.0,5108909.0,0.0
1579356955851,4416175.0,5072663.0,0.0
1579356955907,4396793.0,5065951.0,0.0
1579356955954,4404676.0,5074596.0,0.0
1579356955995,4453551.0,5134071.0,0.0
1579356956043,4500314.0,5195018.0,0.0
1579356956098,4523074.0,5212767.0,0.0
1579356956149,4529267.0,5214372.0,0.0
1579356956193,4509252.0,5179250.0,0.0
1579356956247,4464685.0,5121998.0,0.0
1579356956294,4424701.0,5068318.0,0.0
1579356956344,4410074.0,5044122.0,0.0
1579356956394,4408869.0,5037409.0,0.0
1579356956438,4435433.0,5094879.0,0.0
1579356956481,4451437.0,5122781.0,0.0
1579356956534,4463490.0,5151190.0,0.0
1579356956579,4474256.0,5150309.0,0.0
1579356956632,4456183.0,5125100.0,0.0
1579356956676,4412188.0,5074957.0,0.0
1579356956725,4341760.0,5011584.0,0.0
1579356956775,4292791.0,4992180.0,0.0
1579356956825,4282921.0,4985094.0,0.0
1579356956872,4304774.0,5000016.0,0.0
1579356956928,4364071.0,5082589.0,0.0
1579356956974,4398137.0,5122902.0,0.0
1579356957025,4406790.0,5112953.0,0.0
1579356957076,4401434.0,5088709.0,0.0
1579356957122,4376468.0,5049675.0,0.0
1579356957172,4319859.0,4980458.0,0.0
1579356957213,4281564.0,4913616.0,0.0
1579356957270,4272763.0,4892186.0,0.0
1579356957314,4294732.0,4951348.0,0.0
1579356957359,4317780.0,5009240.0,0.0
1579356957417,4347400.0,5049048.0,0.0
1579356957463,4364438.0,5065829.0,0.0
1579356957513,4360751.0,5044145.0,0.0
1579356957555,4342598.0,5028692.0,0.0
1579356957612,4338070.0,5023789.0,0.0
1579356957655,4307842.0,4985829.0,0.0
1579356957708,4264307.0,4954884.0,0.0
1579356957757,4282782.0,4977583.0,0.0
1579356957805,4326856.0,5046488.0,0.0
1579356957855,4350928.0,5066543.0,0.0
1579356957901,4367070.0,5094818.0,0.0
1579356957951,4356510.0,5062328.0,0.0
1579356957995,4349916.0,5052548.0,0.0
1579356958049,4361038.0,5056750.0,0.0
1579356958096,4359465.0,5045341.0,0.0
1579356958145,4359440.0,5049964.0,0.0
1579356958196,4378721.0,5079207.0,0.0
1579356958235,4348032.0,5076974.0,0.0
1579356958284,4361946.0,5077263.0,0.0
1579356958335,4345527.0,5051619.0,0.0
1579356958381,4334451.0,5031831.0,0.0
1579356958437,4312862.0,5016254.0,0.0
1579356958486,4312357.0,5015942.0,0.0
1579356958535,4307233.0,5004689.0,0.0
1579356958577,4257529.0,4952385.0,0.0
1579356958633,4263527.0,4986554.0,0.0
1579356958674,4261712.0,4992796.0,0.0
1579356958731,4250807.0,4963831.0,0.0
1579356958776,4235998.0,4931330.0,0.0
1579356958826,4208997.0,4885679.0,0.0
1579356958878,4199760.0,4867206.0,0.0
1579356958923,4206402.0,4862641.0,0.0
1579356958975,4217717.0,4863993.0,0.0
1579356959017,4233884.0,4883952.0,0.0
1579356959073,4190269.0,4846342.0,0.0
1579356959122,4178526.0,4841827.0,0.0
1579356959162,4158088.0,4805738.0,0.0
1579356959220,4140360.0,4775469.0,0.0
1579356959260,4121965.0,4757517.0,0.0
1579356959316,4122103.0,4770822.0,0.0
1579356959361,4143805.0,4795053.0,0.0
1579356959413,4169451.0,4829053.0,0.0
1579356959459,4244213.0,4937897.0,0.0
1579356959502,4262641.0,5015506.0,0.0
1579356959560,4282657.0,5014649.0,0.0
1579356959600,4276923.0,4989090.0,0.0
1579356959657,4246408.0,4921743.0,0.0
1579356959703,4231690.0,4885534.0,0.0
1579356959753,4237423.0,4887332.0,0.0
1579356959798,4253095.0,4896412.0,0.0
1579356959851,4282496.0,4938174.0,0.0
1579356959901,4313484.0,4986554.0,0.0
1579356959942,4311702.0,5013152.0,0.0
1579356959991,4320433.0,5006114.0,0.0
1579356960037,4289286.0,4953823.0,0.0
1579356960086,4250624.0,4898620.0,0.0
1579356960139,4225461.0,4866759.0,0.0
1579356960191,4211513.0,4856617.0,0.0
1579356960241,4228610.0,4865286.0,0.0
1579356960287,4240559.0,4880909.0,0.0
1579356960335,4305899.0,4985274.0,0.0
1579356960380,4328282.0,5039800.0,0.0
1579356960436,4343252.0,5021036.0,0.0
1579356960478,4323501.0,4975012.0,0.0
1579356960534,4275718.0,4884458.0,0.0
1579356960580,4266054.0,4848648.0,0.0
1579356960628,4270410.0,4827086.0,0.0
1579356960676,4279969.0,4825890.0,0.0
1579356960720,4314171.0,4893719.0,0.0
1579356960775,4334199.0,4939914.0,0.0
1579356960818,4367345.0,4973539.0,0.0
1579356960872,4375159.0,4962273.0,0.0
1579356960918,4344355.0,4905189.0,0.0
1579356960969,4296433.0,4837310.0,0.0
1579356961012,4273156.0,4793773.0,0.0
1579356961059,4250118.0,4768527.0,0.0
1579356961117,4257517.0,4777474.0,0.0
1579356961159,4302166.0,4832108.0,0.0
1579356961213,4346700.0,4895785.0,0.0
1579356961256,4359843.0,4950972.0,0.0
1579356961312,4379904.0,4947579.0,0.0
1579356961362,4374734.0,4918035.0,0.0
1579356961407,4366278.0,4877407.0,0.0
1579356961456,4324203.0,4788545.0,0.0
1579356961503,4324651.0,4757842.0,0.0
1579356961555,4347883.0,4787460.0,0.0
1579356961598,4383052.0,4849614.0,0.0
1579356961653,4381421.0,4870718.0,0.0
1579356961703,4407824.0,4894095.0,0.0
1579356961750,4416130.0,4900432.0,0.0
1579356961797,4412923.0,4885896.0,0.0
1579356961845,4385488.0,4868534.0,0.0
1579356961897,4363968.0,4859201.0,0.0
1579356961938,4347802.0,4830199.0,0.0
1579356961987,4359269.0,4827977.0,0.0
1579356962044,4399562.0,4922274.0,0.0
1579356962091,4421749.0,4972923.0,0.0
1579356962137,4445888.0,4985009.0,0.0
1579356962185,4448656.0,4955791.0,0.0
1579356962238,4432951.0,4917855.0,0.0
1579356962278,4428940.0,4899466.0,0.0
1579356962327,4432904.0,4903439.0,0.0
1579356962379,4422932.0,4863427.0,0.0
1579356962427,4411305.0,4862557.0,0.0
1579356962476,4418014.0,4900818.0,0.0
1579356962524,4444050.0,4959049.0,0.0
1579356962575,4471933.0,4965365.0,0.0
1579356962624,4473554.0,4941628.0,0.0
1579356962677,4464604.0,4926125.0,0.0
1579356962721,4460641.0,4933538.0,0.0
1579356962774,4456377.0,4937571.0,0.0
1579356962820,4461330.0,4951794.0,0.0
1579356962868,4505529.0,4973624.0,0.0
1579356962917,4541078.0,5003832.0,0.0
1579356962961,4559828.0,5035066.0,0.0
1579356963016,4558635.0,5034233.0,0.0
1579356963057,4547972.0,5019335.0,0.0
1579356963114,4537182.0,5005075.0,0.0
1579356963164,4538929.0,5003904.0,0.0
1579356963211,4556508.0,5018997.0,0.0
1579356963261,4592344.0,5082226.0,0.0
1579356963300,4618541.0,5133309.0,0.0
1579356963361,4607165.0,5121345.0,0.0
1579356963400,4613312.0,5102424.0,0.0
1579356963455,4598020.0,5053902.0,0.0
1579356963504,4570169.0,5010145.0,0.0
1579356963553,4558600.0,4996877.0,0.0
1579356963600,4566631.0,5001706.0,0.0
1579356963649,4558049.0,5005837.0,0.0
1579356963693,4603581.0,5062389.0,0.0
1579356963740,4659569.0,5172959.0,0.0
1579356963799,4656066.0,5235718.0,0.0
1579356963845,4675125.0,5192339.0,0.0
1579356963896,4641818.0,5111649.0,0.0
1579356963948,4610981.0,5050738.0,0.0
1579356963986,4578074.0,5016074.0,0.0
1579356964040,4580717.0,5001296.0,0.0
1579356964087,4579200.0,4997228.0,0.0
1579356964136,4605902.0,5044629.0,0.0
1579356964180,4620114.0,5077746.0,0.0
1579356964237,4634533.0,5078844.0,0.0
1579356964285,4611003.0,5024731.0,0.0
1579356964334,4539596.0,4932983.0,0.0
1579356964380,4489065.0,4891643.0,0.0
1579356964431,4493419.0,4884616.0,0.0
1579356964478,4496097.0,4891860.0,0.0
1579356964527,4516698.0,4919437.0,0.0
1579356964581,4586886.0,4998701.0,0.0
1579356964619,4624388.0,5071383.0,0.0
1579356964676,4640394.0,5085704.0,0.0
1579356964723,4633108.0,5063716.0,0.0
1579356964774,4596905.0,5008286.0,0.0
1579356964821,4560633.0,4953749.0,0.0
1579356964868,4539447.0,4927333.0,0.0
1579356964916,4548304.0,4939914.0,0.0
1579356964961,4592035.0,5002407.0,0.0
1579356965016,4619414.0,5053129.0,0.0
1579356965063,4637613.0,5086114.0,0.0
1579356965111,4641174.0,5083602.0,0.0
1579356965162,4645425.0,5082298.0,0.0
1579356965207,4618838.0,5064743.0,0.0
1579356965256,4600514.0,5043360.0,0.0
1579356965300,4588760.0,5020843.0,0.0
1579356965359,4587794.0,5017463.0,0.0
1579356965403,4620517.0,5105371.0,0.0
1579356965454,4640049.0,5152711.0,0.0
1579356965500,4666027.0,5154729.0,0.0
1579356965551,4662843.0,5136679.0,0.0
1579356965599,4634178.0,5087164.0,0.0
1579356965644,4611968.0,5067533.0,0.0
1579356965692,4588126.0,5017148.0,0.0
