time,value,value2,value3
1579355846159,6449024.0,6309480.0,0.0
1579355846223,6441798.0,6302140.0,0.0
1579355846383,6444393.0,6272874.0,0.0
1579355846383,6472530.0,6269891.0,0.0
1579355846386,6424829.0,6225883.0,0.0
1579355846422,6375867.0,6182718.0,0.0
1579355846453,6370347.0,6180074.0,0.0
1579355846501,6384758.0,6177297.0,0.0
1579355846549,6385129.0,6175498.0,0.0
1579355846599,6359979.0,6164753.0,0.0
1579355846647,6315115.0,6160744.0,0.0
1579355846698,6274562.0,6149117.0,0.0
1579355846743,6282626.0,6142863.0,0.0
1579355846793,6350413.0,6151894.0,0.0
1579355846841,6412020.0,6181740.0,0.0
1579355846890,6358747.0,6149276.0,0.0
1579355846943,6377140.0,6149781.0,0.0
1579355846991,6381936.0,6150844.0,0.0
1579355847038,6344205.0,6165901.0,0.0
1579355847085,6353136.0,6153150.0,0.0
1579355847133,6404731.0,6169450.0,0.0
1579355847180,6380066.0,6175511.0,0.0
1579355847232,6298770.0,6161275.0,0.0
1579355847279,6218096.0,6147427.0,0.0
1579355847331,6175291.0,6133289.0,0.0
1579355847380,6211990.0,6138916.0,0.0
1579355847427,6325177.0,6196156.0,0.0
1579355847475,6373094.0,6168411.0,0.0
1579355847524,6381097.0,6187125.0,0.0
1579355847574,6356850.0,6210199.0,0.0
1579355847620,6347997.0,6206119.0,0.0
1579355847671,6308932.0,6169547.0,0.0
1579355847717,6344422.0,6184903.0,0.0
1579355847763,6344283.0,6184554.0,0.0
1579355847812,6267120.0,6189758.0,0.0
1579355847860,6242061.0,6179894.0,0.0
1579355847914,6320546.0,6195191.0,0.0
1579355847958,6362740.0,6170597.0,0.0
1579355848007,6375181.0,6175958.0,0.0
1579355848058,6321220.0,6187294.0,0.0
1579355848105,6266267.0,6186799.0,0.0
1579355848159,6292269.0,6207856.0,0.0
1579355848203,6322226.0,6205696.0,0.0
1579355848257,6341090.0,6201977.0,0.0
1579355848299,6282854.0,6170597.0,0.0
1579355848356,6191739.0,6160455.0,0.0
1579355848405,6129803.0,6123376.0,0.0
1579355848453,6086324.0,6073717.0,0.0
1579355848501,6062141.0,6045140.0,0.0
1579355848548,6092329.0,6050681.0,0.0
1579355848597,6141099.0,6069890.0,0.0
1579355848644,6277970.0,6090500.0,0.0
1579355848694,6241780.0,6084790.0,0.0
1579355848745,6218553.0,6087543.0,0.0
1579355848792,6208848.0,6107149.0,0.0
1579355848839,6167316.0,6078644.0,0.0
1579355848888,6150918.0,6071640.0,0.0
1579355848940,6057931.0,6046889.0,0.0
1579355848987,6009963.0,6023454.0,0.0
1579355849035,6003488.0,6011394.0,0.0
1579355849083,6050592.0,6016477.0,0.0
1579355849132,6130363.0,6044910.0,0.0
1579355849180,6118265.0,6040502.0,0.0
1579355849229,6064432.0,6015945.0,0.0
1579355849278,6097010.0,6035492.0,0.0
1579355849322,6094160.0,6046056.0,0.0
1579355849375,6088804.0,6063468.0,0.0
1579355849427,6037362.0,6004621.0,0.0
1579355849466,5992905.0,6009148.0,0.0
1579355849521,6060882.0,6033911.0,0.0
1579355849569,6038966.0,6039888.0,0.0
1579355849617,5982932.0,6012383.0,0.0
1579355849662,5955328.0,5995626.0,0.0
1579355849715,5994532.0,6016041.0,0.0
1579355849764,6011069.0,6014316.0,0.0
1579355849806,6106637.0,6032583.0,0.0
1579355849860,6070105.0,5997750.0,0.0
1579355849913,6071568.0,6024456.0,0.0
1579355849958,6046253.0,6049462.0,0.0
1579355850004,6011323.0,6050657.0,0.0
1579355850056,5930598.0,5998704.0,0.0
1579355850107,5849901.0,5946038.0,0.0
1579355850154,5848946.0,5936670.0,0.0
1579355850200,5912790.0,5985158.0,0.0
1579355850243,5865675.0,5952256.0,0.0
1579355850299,5861286.0,5943419.0,0.0
1579355850340,5872201.0,5964402.0,0.0
1579355850396,5852699.0,5949806.0,0.0
1579355850449,5852521.0,5958727.0,0.0
1579355850499,5864644.0,5968917.0,0.0
1579355850541,5847394.0,5955022.0,0.0
1579355850590,5759865.0,5931368.0,0.0
1579355850638,5668582.0,5873173.0,0.0
1579355850683,5650507.0,5850040.0,0.0
1579355850733,5650443.0,5848688.0,0.0
1579355850784,5651142.0,5849521.0,0.0
1579355850830,5647467.0,5839368.0,0.0
1579355850876,5642493.0,5836964.0,0.0
1579355850925,5628603.0,5839064.0,0.0
1579355850972,5615677.0,5829551.0,0.0
1579355851023,5612192.0,5829673.0,0.0
1579355851073,5615042.0,5825314.0,0.0
1579355851123,5604077.0,5824082.0,0.0
1579355851168,5509577.0,5765911.0,0.0
1579355851221,5453389.0,5688845.0,0.0
1579355851270,5429398.0,5645839.0,0.0
1579355851319,5423725.0,5634874.0,0.0
1579355851361,5423243.0,5636239.0,0.0
1579355851414,5417506.0,5640562.0,0.0
1579355851471,5397776.0,5635273.0,0.0
1579355851515,5383782.0,5626712.0,0.0
1579355851557,5369942.0,5616379.0,0.0
1579355851612,5368532.0,5621981.0,0.0
1579355851659,5376253.0,5634223.0,0.0
1579355851706,5344146.0,5628598.0,0.0
1579355851756,5273993.0,5552340.0,0.0
1579355851803,5237053.0,5484546.0,0.0
1579355851850,5218722.0,5469272.0,0.0
1579355851901,5209373.0,5461087.0,0.0
1579355851952,5202109.0,5464152.0,0.0
1579355852000,5182914.0,5460905.0,0.0
1579355852048,5167179.0,5455425.0,0.0
1579355852096,5161760.0,5456475.0,0.0
1579355852144,5169099.0,5469513.0,0.0
1579355852194,5174886.0,5481153.0,0.0
1579355852241,5142322.0,5474525.0,0.0
1579355852290,5066445.0,5385541.0,0.0
1579355852339,5019837.0,5306398.0,0.0
1579355852384,5007371.0,5296184.0,0.0
1579355852434,4998148.0,5305806.0,0.0
1579355852491,4980912.0,5315803.0,0.0
1579355852534,4964909.0,5325535.0,0.0
1579355852581,4949124.0,5330100.0,0.0
1579355852632,4947878.0,5344334.0,0.0
1579355852679,4942916.0,5358001.0,0.0
1579355852725,4935538.0,5366803.0,0.0
1579355852774,4910987.0,5366597.0,0.0
1579355852825,4828457.0,5282034.0,0.0
1579355852874,4790793.0,5218321.0,0.0
1579355852931,4773734.0,5215568.0,0.0
1579355852965,4758953.0,5228765.0,0.0
1579355853020,4756128.0,5244750.0,0.0
1579355853068,4753254.0,5268269.0,0.0
1579355853116,4746893.0,5286935.0,0.0
1579355853165,4739108.0,5301690.0,0.0
1579355853214,4738994.0,5321441.0,0.0
1579355853263,4745851.0,5341520.0,0.0
1579355853311,4755163.0,5361466.0,0.0
1579355853360,4698861.0,5336606.0,0.0
1579355853406,4650091.0,5265601.0,0.0
1579355853460,4642496.0,5247310.0,0.0
1579355853508,4634624.0,5258092.0,0.0
1579355853555,4637803.0,5260711.0,0.0
1579355853603,4625261.0,5259480.0,0.0
1579355853653,4614957.0,5245088.0,0.0
1579355853700,4674475.0,5285052.0,0.0
1579355853748,4690873.0,5323168.0,0.0
1579355853799,4733385.0,5362759.0,0.0
1579355853851,4748128.0,5384684.0,0.0
1579355853896,4715028.0,5384562.0,0.0
1579355853948,4639609.0,5361683.0,0.0
1579355853994,4636772.0,5337235.0,0.0
1579355854041,4671092.0,5335569.0,0.0
1579355854089,4640690.0,5314136.0,0.0
1579355854135,4560514.0,5265540.0,0.0
1579355854183,4589974.0,5320936.0,0.0
1579355854233,4666843.0,5386012.0,0.0
1579355854280,4668128.0,5402880.0,0.0
1579355854328,4674500.0,5417246.0,0.0
1579355854382,4683712.0,5424781.0,0.0
1579355854429,4636747.0,5412768.0,0.0
1579355854479,4527008.0,5336727.0,0.0
1579355854532,4488070.0,5262136.0,0.0
1579355854576,4475616.0,5247960.0,0.0
1579355854625,4472450.0,5252054.0,0.0
1579355854674,4552996.0,5289109.0,0.0
1579355854721,4566720.0,5273413.0,0.0
1579355854766,4534347.0,5278618.0,0.0
1579355854819,4536598.0,5299685.0,0.0
1579355854867,4561595.0,5310140.0,0.0
1579355854920,4555958.0,5315768.0,0.0
1579355854969,4530148.0,5331837.0,0.0
1579355855012,4462475.0,5260385.0,0.0
1579355855062,4429414.0,5155586.0,0.0
1579355855110,4403746.0,5131582.0,0.0
1579355855159,4369286.0,5098187.0,0.0
1579355855208,4331849.0,5077976.0,0.0
1579355855257,4305595.0,5045161.0,0.0
1579355855304,4349124.0,5068099.0,0.0
1579355855355,4536598.0,5167707.0,0.0
1579355855401,4690873.0,5246344.0,0.0
1579355855455,4749565.0,5248264.0,0.0
1579355855501,4853225.0,5330063.0,0.0
1579355855548,4898992.0,5358110.0,0.0
1579355855597,4923010.0,5370088.0,0.0
1579355855646,4970953.0,5396987.0,0.0
1579355855690,4964249.0,5382499.0,0.0
1579355855742,4973686.0,5390299.0,0.0
1579355855792,5007728.0,5416050.0,0.0
1579355855840,5031184.0,5428790.0,0.0
1579355855888,5063520.0,5441818.0,0.0
1579355855932,5068125.0,5426616.0,0.0
1579355855986,5114020.0,5470177.0,0.0
1579355856033,5139003.0,5483194.0,0.0
1579355856075,5147296.0,5481044.0,0.0
1579355856127,5145515.0,5475866.0,0.0
1579355856176,5150070.0,5472978.0,0.0
1579355856225,5149140.0,5469949.0,0.0
1579355856273,5149611.0,5466712.0,0.0
1579355856322,5164354.0,5475043.0,0.0
1579355856371,5170651.0,5475913.0,0.0
1579355856418,5181654.0,5484945.0,0.0
1579355856472,5183296.0,5491657.0,0.0
1579355856520,5194692.0,5497621.0,0.0
1579355856568,5202198.0,5503162.0,0.0
1579355856617,5210619.0,5507666.0,0.0
1579355856665,5219206.0,5514984.0,0.0
1579355856711,5190445.0,5513680.0,0.0
1579355856758,5156544.0,5519112.0,0.0
1579355856813,5170790.0,5519438.0,0.0
1579355856860,5209906.0,5526248.0,0.0
1579355856902,5246976.0,5528337.0,0.0
1579355856962,5297030.0,5564498.0,0.0
1579355857009,5336196.0,5575799.0,0.0
1579355857053,5380564.0,5597097.0,0.0
1579355857102,5419019.0,5607625.0,0.0
1579355857153,5441330.0,5608482.0,0.0
1579355857200,5462116.0,5612346.0,0.0
1579355857249,5472484.0,5626736.0,0.0
1579355857294,5489453.0,5618455.0,0.0
1579355857345,5512820.0,5628053.0,0.0
1579355857392,5534317.0,5628862.0,0.0
1579355857444,5557202.0,5627136.0,0.0
1579355857495,5559314.0,5619553.0,0.0
1579355857540,5561933.0,5608241.0,0.0
1579355857589,5562061.0,5603833.0,0.0
1579355857636,5561755.0,5600937.0,0.0
1579355857687,5570061.0,5601744.0,0.0
1579355857732,5577122.0,5599969.0,0.0
1579355857781,5579565.0,5597761.0,0.0
1579355857831,5579602.0,5597967.0,0.0
1579355857881,5532982.0,5598665.0,0.0
1579355857936,5496729.0,5599813.0,0.0
1579355857972,5497860.0,5605801.0,0.0
1579355858026,5519181.0,5603145.0,0.0
1579355858073,5538987.0,5604208.0,0.0
1579355858123,5535120.0,5605258.0,0.0
1579355858174,5526749.0,5605573.0,0.0
1579355858221,5526176.0,5606163.0,0.0
1579355858270,5541734.0,5610352.0,0.0
1579355858317,5557216.0,5612322.0,0.0
1579355858366,5552228.0,5609194.0,0.0
1579355858417,5469099.0,5609918.0,0.0
1579355858465,5422441.0,5613528.0,0.0
1579355858515,5435696.0,5614351.0,0.0
1579355858561,5478946.0,5617935.0,0.0
1579355858609,5520491.0,5613952.0,0.0
1579355858659,5535501.0,5614906.0,0.0
1579355858706,5541798.0,5623296.0,0.0
1579355858757,5547090.0,5625626.0,0.0
1579355858804,5561387.0,5624951.0,0.0
1579355858855,5578089.0,5627342.0,0.0
1579355858901,5596457.0,5628500.0,0.0
1579355858953,5543387.0,5628826.0,0.0
1579355858996,5461670.0,5630769.0,0.0
1579355859047,5455056.0,5626702.0,0.0
1579355859098,5498267.0,5632002.0,0.0
1579355859139,5554352.0,5636506.0,0.0
1579355859195,5581257.0,5639486.0,0.0
1579355859237,5593481.0,5642263.0,0.0
1579355859287,5601533.0,5644088.0,0.0
1579355859333,5621325.0,5643641.0,0.0
1579355859387,5642354.0,5650366.0,0.0
1579355859437,5659284.0,5656029.0,0.0
1579355859486,5658813.0,5656560.0,0.0
1579355859534,5587579.0,5658129.0,0.0
1579355859579,5547764.0,5657465.0,0.0
1579355859630,5569718.0,5656233.0,0.0
1579355859673,5628996.0,5663043.0,0.0
1579355859728,5657682.0,5663815.0,0.0
1579355859774,5668112.0,5667584.0,0.0
1579355859823,5665378.0,5668367.0,0.0
1579355859874,5677488.0,5672968.0,0.0
1579355859918,5694761.0,5672037.0,0.0
1579355859973,5717124.0,5672701.0,0.0
1579355860014,5726512.0,5675214.0,0.0
1579355860067,5727757.0,5684317.0,0.0
1579355860118,5669817.0,5681178.0,0.0
1579355860163,5656804.0,5684933.0,0.0
1579355860214,5691949.0,5684764.0,0.0
1579355860259,5725380.0,5684571.0,0.0
1579355860310,5747017.0,5689207.0,0.0
1579355860352,5747716.0,5691405.0,0.0
1579355860407,5747273.0,5692648.0,0.0
1579355860460,5757270.0,5695800.0,0.0
1579355860505,5760934.0,5696101.0,0.0
1579355860554,5776923.0,5697453.0,0.0
1579355860599,5786388.0,5695943.0,0.0
1579355860649,5750859.0,5704443.0,0.0
1579355860693,5694610.0,5703864.0,0.0
1579355860747,5715382.0,5706773.0,0.0
1579355860799,5757728.0,5708452.0,0.0
1579355860844,5787901.0,5711941.0,0.0
1579355860895,5793446.0,5707969.0,0.0
1579355860936,5788790.0,5712099.0,0.0
1579355860992,5792390.0,5713089.0,0.0
1579355861033,5805277.0,5715866.0,0.0
1579355861083,5813584.0,5716542.0,0.0
1579355861140,5826267.0,5720973.0,0.0
1579355861185,5799961.0,5721793.0,0.0
1579355861233,5706502.0,5724763.0,0.0
1579355861281,5686009.0,5718534.0,0.0
1579355861332,5720482.0,5721118.0,0.0
1579355861375,5767268.0,5726405.0,0.0
1579355861423,5790802.0,5728457.0,0.0
1579355861480,5791069.0,5728325.0,0.0
1579355861525,5793078.0,5733723.0,0.0
1579355861574,5800189.0,5734736.0,0.0
1579355861622,5813876.0,5736788.0,0.0
1579355861671,5825362.0,5732660.0,0.0
1579355861718,5830960.0,5731597.0,0.0
1579355861763,5777369.0,5736476.0,0.0
1579355861816,5677117.0,5730692.0,0.0
1579355861861,5664868.0,5730813.0,0.0
1579355861912,5715968.0,5730462.0,0.0
1579355861959,5766098.0,5731427.0,0.0
1579355862010,5786336.0,5733770.0,0.0
1579355862059,5787302.0,5734423.0,0.0
1579355862107,5782825.0,5736994.0,0.0
1579355862158,5792454.0,5737163.0,0.0
1579355862200,5807008.0,5738322.0,0.0
1579355862254,5820198.0,5743537.0,0.0
1579355862303,5821305.0,5744093.0,0.0
1579355862352,5732555.0,5745880.0,0.0
1579355862397,5662985.0,5747208.0,0.0
1579355862448,5673252.0,5748718.0,0.0
1579355862502,5716196.0,5749623.0,0.0
1579355862544,5749842.0,5753704.0,0.0
1579355862593,5745504.0,5750588.0,0.0
1579355862642,5746217.0,5757557.0,0.0
1579355862691,5773312.0,5755817.0,0.0
1579355862738,5814144.0,5766261.0,0.0
1579355862785,5840105.0,5765126.0,0.0
1579355862837,5854761.0,5766684.0,0.0
1579355862885,5868166.0,5770971.0,0.0
1579355862937,5799476.0,5771561.0,0.0
1579355862982,5682486.0,5769339.0,0.0
1579355863031,5676036.0,5762058.0,0.0
1579355863078,5735849.0,5770450.0,0.0
1579355863129,5800379.0,5777381.0,0.0
1579355863180,5825172.0,5780074.0,0.0
1579355863225,5827552.0,5781788.0,0.0
1579355863274,5846720.0,5784758.0,0.0
1579355863323,5875213.0,5786376.0,0.0
1579355863372,5896089.0,5791917.0,0.0
1579355863421,5915042.0,5792292.0,0.0
1579355863467,5932406.0,5791023.0,0.0
1579355863517,5930637.0,5793620.0,0.0
1579355863566,5896356.0,5794382.0,0.0
1579355863615,5881739.0,5791785.0,0.0
1579355863660,5888189.0,5795709.0,0.0
1579355863712,5899789.0,5794670.0,0.0
1579355863760,5894258.0,5791216.0,0.0
1579355863809,5873789.0,5794019.0,0.0
1579355863857,5852228.0,5794779.0,0.0
1579355863906,5846683.0,5793464.0,0.0
1579355863958,5850779.0,5794586.0,0.0
1579355864007,5860192.0,5798087.0,0.0
1579355864052,5873586.0,5796844.0,0.0
1579355864102,5794770.0,5795080.0,0.0
1579355864149,5663456.0,5790179.0,0.0
1579355864197,5653826.0,5788439.0,0.0
1579355864245,5709403.0,5788077.0,0.0
1579355864294,5772649.0,5791700.0,0.0
1579355864337,5806358.0,5794670.0,0.0
1579355864392,5806384.0,5793004.0,0.0
1579355864444,5812870.0,5797447.0,0.0
1579355864489,5831952.0,5800549.0,0.0
1579355864537,5863360.0,5807312.0,0.0
1579355864585,5894283.0,5812286.0,0.0
1579355864635,5907385.0,5819313.0,0.0
1579355864676,5859110.0,5815920.0,0.0
1579355864733,5716603.0,5808856.0,0.0
1579355864781,5696059.0,5808809.0,0.0
1579355864827,5746102.0,5809293.0,0.0
1579355864878,5832957.0,5813323.0,0.0
1579355864932,5886002.0,5820363.0,0.0
1579355864977,5891179.0,5829165.0,0.0
1579355865017,5902157.0,5838678.0,0.0
1579355865075,5918820.0,5839995.0,0.0
1579355865122,5929403.0,5842325.0,0.0
1579355865169,5935396.0,5837652.0,0.0
1579355865218,5939504.0,5846599.0,0.0
1579355865267,5908402.0,5831387.0,0.0
1579355865315,5717225.0,5835962.0,0.0
1579355865361,5630473.0,5818721.0,0.0
1579355865419,5627012.0,5803086.0,0.0
1579355865465,5663698.0,5805186.0,0.0
1579355865509,5690105.0,5805236.0,0.0
1579355865558,5703602.0,5823394.0,0.0
1579355865607,5810226.0,5874382.0,0.0
1579355865656,5915805.0,5901583.0,0.0
1579355865699,5992726.0,5925694.0,0.0
1579355865754,6058630.0,5984288.0,0.0
1579355865804,6091883.0,6004161.0,0.0
1579355865849,6044422.0,5967433.0,0.0
1579355865898,5778603.0,5927131.0,0.0
1579355865942,5584525.0,5864734.0,0.0
1579355865998,5505595.0,5773722.0,0.0
1579355866041,5491565.0,5762917.0,0.0
1579355866095,5463974.0,5729063.0,0.0
1579355866144,5413307.0,5686755.0,0.0
1579355866184,5352898.0,5591688.0,0.0
1579355866232,5301355.0,5489822.0,0.0
1579355866280,5262989.0,5431421.0,0.0
1579355866332,5232130.0,5390926.0,0.0
1579355866380,5189008.0,5350395.0,0.0
1579355866431,5139920.0,5306253.0,0.0
1579355866479,5033398.0,5174506.0,0.0
1579355866531,4929650.0,5038628.0,0.0
1579355866578,4852194.0,4959255.0,0.0
1579355866627,4798640.0,4909450.0,0.0
1579355866675,4756384.0,4878930.0,0.0
1579355866718,4695833.0,4831939.0,0.0
1579355866773,4635652.0,4767199.0,0.0
1579355866820,4577483.0,4718952.0,0.0
1579355866862,4527693.0,4665745.0,0.0
1579355866918,4486822.0,4634461.0,0.0
1579355866963,4465810.0,4626455.0,0.0
1579355867012,4440660.0,4621433.0,0.0
1579355867059,4366169.0,4541880.0,0.0
1579355867109,4275282.0,4424077.0,0.0
1579355867156,4204505.0,4356898.0,0.0
1579355867209,4156802.0,4320666.0,0.0
1579355867258,4120905.0,4307820.0,0.0
1579355867302,4083584.0,4279048.0,0.0
1579355867352,4040436.0,4248393.0,0.0
1579355867403,3301485.0,4219175.0,0.0
1579355867455,3800259.0,4199265.0,0.0
1579355867501,3770292.0,4179308.0,0.0
1579355867545,3743160.0,4161486.0,0.0
1579355867593,3720996.0,4149267.0,0.0
1579355867642,3677740.0,4096843.0,0.0
1579355867692,3606097.0,4005966.0,0.0
1579355867742,3553170.0,3947927.0,0.0
1579355867789,3528858.0,3927764.0,0.0
1579355867836,3518023.0,3931882.0,0.0
1579355867885,3502342.0,3918661.0,0.0
1579355867934,3485937.0,3899162.0,0.0
1579355867984,3467020.0,3877102.0,0.0
1579355868032,3463293.0,3769291.0,0.0
1579355868081,3464141.0,3779000.0,0.0
1579355868129,3459959.0,3782873.0,0.0
1579355868176,3461993.0,3788787.0,0.0
1579355868226,3442941.0,3766499.0,0.0
1579355868279,3391516.0,3666171.0,0.0
1579355868325,3357023.0,3615006.0,0.0
1579355868375,3348971.0,3616288.0,0.0
1579355868429,3352775.0,3622288.0,0.0
1579355868474,3354595.0,3622769.0,0.0
1579355868521,3358921.0,3626526.0,0.0
1579355868571,3357494.0,3624551.0,0.0
1579355868619,3360280.0,3623001.0,0.0
1579355868666,3365981.0,3629320.0,0.0
1579355868716,3374226.0,3639251.0,0.0
1579355868761,3382895.0,3654334.0,0.0
1579355868814,3396534.0,3669802.0,0.0
1579355868861,3382818.0,3646041.0,0.0
1579355868913,3347421.0,3578548.0,0.0
1579355868961,3314700.0,3532594.0,0.0
1579355869002,3306254.0,3517637.0,0.0
1579355869056,3313198.0,3523059.0,0.0
1579355869105,3319893.0,3541678.0,0.0
1579355869152,3319680.0,3525516.0,0.0
1579355869201,3315876.0,3514526.0,0.0
1579355869250,3318745.0,3518118.0,0.0
1579355869298,3326394.0,3530361.0,0.0
1579355869341,3329783.0,3525717.0,0.0
1579355869395,3335718.0,3536786.0,0.0
1579355869447,3345310.0,3550906.0,0.0
1579355869499,3310896.0,3490243.0,0.0
1579355869541,3268053.0,3410135.0,0.0
1579355869590,3247420.0,3383868.0,0.0
1579355869639,3245332.0,3383771.0,0.0
1579355869682,3262640.0,3398306.0,0.0
1579355869737,3277693.0,3422703.0,0.0
1579355869788,3280325.0,3428772.0,0.0
1579355869835,3282887.0,3425103.0,0.0
1579355869882,3287519.0,3433059.0,0.0
1579355869936,3298856.0,3452283.0,0.0
1579355869980,3316319.0,3474765.0,0.0
1579355870025,3331990.0,3494395.0,0.0
1579355870076,3340871.0,3504095.0,0.0
1579355870128,3308960.0,3441940.0,0.0
1579355870173,3277232.0,3387605.0,0.0
1579355870222,3271694.0,3376932.0,0.0
1579355870272,3269979.0,3378840.0,0.0
1579355870319,3279400.0,3389502.0,0.0
1579355870364,3287413.0,3402861.0,0.0
1579355870418,3293153.0,3409450.0,0.0
1579355870466,3293905.0,3404239.0,0.0
1579355870516,3295869.0,3405742.0,0.0
1579355870562,3299829.0,3421952.0,0.0
1579355870613,3316183.0,3439164.0,0.0
1579355870659,3328406.0,3462946.0,0.0
1579355870703,3342266.0,3477953.0,0.0
1579355870757,3324940.0,3433098.0,0.0
1579355870806,3291824.0,3373060.0,0.0
1579355870854,3278705.0,3350310.0,0.0
1579355870903,3275450.0,3351639.0,0.0
1579355870960,3299145.0,3384389.0,0.0
1579355871000,3314960.0,3405395.0,0.0
1579355871066,3318389.0,3413256.0,0.0
1579355871111,3333020.0,3437161.0,0.0
1579355871149,3335044.0,3450059.0,0.0
1579355871190,3342266.0,3456579.0,0.0
1579355871237,3349654.0,3473964.0,0.0
1579355871291,3366972.0,3493644.0,0.0
1579355871344,3373850.0,3499952.0,0.0
1579355871385,3345253.0,3437354.0,0.0
1579355871441,3321492.0,3391150.0,0.0
1579355871487,3321106.0,3387672.0,0.0
1579355871538,3330486.0,3405982.0,0.0
1579355871587,3335458.0,3425922.0,0.0
1579355871634,3337287.0,3426625.0,0.0
1579355871684,3340216.0,3426094.0,0.0
1579355871725,3348104.0,3435505.0,0.0
1579355871775,3351474.0,3449876.0,0.0
1579355871828,3360896.0,3451398.0,0.0
1579355871871,3372310.0,3468619.0,0.0
1579355871923,3382942.0,3490966.0,0.0
1579355871968,3368899.0,3454951.0,0.0
1579355872015,3331084.0,3377434.0,0.0
1579355872067,3308795.0,3347238.0,0.0
1579355872118,3305597.0,3353853.0,0.0
1579355872168,3315356.0,3372088.0,0.0
1579355872214,3318072.0,3388174.0,0.0
1579355872264,3325836.0,3397217.0,0.0
1579355872315,3376180.0,3464756.0,0.0
1579355872365,3412677.0,3523407.0,0.0
1579355872406,3443325.0,3584406.0,0.0
1579355872463,3454817.0,3622347.0,0.0
1579355872508,3461069.0,3629590.0,0.0
1579355872561,3483308.0,3665420.0,0.0
1579355872609,3478406.0,3669995.0,0.0
1579355872657,3468186.0,3619139.0,0.0
1579355872706,3460961.0,3587766.0,0.0
1579355872747,3464815.0,3579261.0,0.0
1579355872803,3467792.0,3585503.0,0.0
1579355872847,3473552.0,3595347.0,0.0
1579355872901,3468600.0,3586139.0,0.0
1579355872953,3471181.0,3583741.0,0.0
1579355872996,3471028.0,3587277.0,0.0
1579355873047,3477790.0,3602350.0,0.0
1579355873089,3488461.0,3616075.0,0.0
1579355873144,3491746.0,3632757.0,0.0
1579355873187,3489097.0,3618204.0,0.0
1579355873241,3459210.0,3554470.0,0.0
1579355873290,3434349.0,3501513.0,0.0
1579355873337,3427606.0,3493508.0,0.0
1579355873387,3427462.0,3509642.0,0.0
1579355873433,3432423.0,3525382.0,0.0
1579355873484,3432413.0,3517281.0,0.0
1579355873529,3416964.0,3498181.0,0.0
1579355873580,3417002.0,3483944.0,0.0
1579355873629,3420440.0,3493634.0,0.0
1579355873673,3431025.0,3516452.0,0.0
1579355873726,3449037.0,3545935.0,0.0
1579355873776,3460538.0,3574552.0,0.0
1579355873824,3437326.0,3527568.0,0.0
1579355873870,3404942.0,3464527.0,0.0
1579355873922,3396081.0,3446397.0,0.0
1579355873971,3402534.0,3457147.0,0.0
1579355874016,3409854.0,3477211.0,0.0
1579355874067,3415354.0,3488973.0,0.0
1579355874109,3414564.0,3499115.0,0.0
1579355874165,3418349.0,3504451.0,0.0
1579355874210,3426267.0,3515093.0,0.0
1579355874261,3437498.0,3523301.0,0.0
1579355874310,3442383.0,3537412.0,0.0
1579355874350,3458139.0,3571884.0,0.0
1579355874400,3462408.0,3578664.0,0.0
1579355874450,3437112.0,3514083.0,0.0
1579355874505,3424668.0,3480996.0,0.0
1579355874551,3421655.0,3482250.0,0.0
1579355874600,3428010.0,3506145.0,0.0
1579355874650,3433453.0,3518908.0,0.0
1579355874696,3432529.0,3519920.0,0.0
1579355874746,3428849.0,3521769.0,0.0
1579355874791,3429957.0,3524465.0,0.0
1579355874835,3432490.0,3530957.0,0.0
1579355874889,3439579.0,3545260.0,0.0
1579355874933,3449770.0,3566181.0,0.0
1579355874981,3461973.0,3584020.0,0.0
1579355875039,3444829.0,3562754.0,0.0
1579355875087,3421403.0,3507069.0,0.0
1579355875131,3411695.0,3490060.0,0.0
1579355875184,3411569.0,3498132.0,0.0
1579355875232,3428358.0,3526912.0,0.0
1579355875279,3437990.0,3549519.0,0.0
1579355875330,3445445.0,3567443.0,0.0
1579355875372,3453352.0,3578126.0,0.0
1579355875426,3462503.0,3595164.0,0.0
1579355875471,3476807.0,3613051.0,0.0
1579355875524,3484925.0,3630880.0,0.0
1579355875573,3498758.0,3649556.0,0.0
1579355875619,3500174.0,3653400.0,0.0
1579355875670,3491458.0,3628684.0,0.0
1579355875713,3495531.0,3626863.0,0.0
1579355875760,3504258.0,3628800.0,0.0
1579355875814,3514034.0,3643979.0,0.0
1579355875864,3522750.0,3665353.0,0.0
1579355875914,3524514.0,3674321.0,0.0
1579355875955,3526950.0,3676448.0,0.0
1579355876010,3523137.0,3681978.0,0.0
1579355876052,3525544.0,3694663.0,0.0
1579355876107,3530101.0,3706288.0,0.0
1579355876153,3529128.0,3715082.0,0.0
1579355876203,3534069.0,3717790.0,0.0
1579355876249,3537826.0,3714234.0,0.0
1579355876296,3552774.0,3728625.0,0.0
1579355876350,3563513.0,3745097.0,0.0
1579355876398,3564824.0,3739865.0,0.0
1579355876439,3547379.0,3722556.0,0.0
1579355876492,3544395.0,3710045.0,0.0
1579355876537,3542747.0,3707666.0,0.0
1579355876588,3548082.0,3716961.0,0.0
1579355876636,3553487.0,3732228.0,0.0
1579355876685,3563513.0,3743016.0,0.0
1579355876739,3566403.0,3755008.0,0.0
1579355876787,3541524.0,3709476.0,0.0
1579355876833,3510383.0,3653225.0,0.0
1579355876883,3495974.0,3633432.0,0.0
1579355876933,3535774.0,3687584.0,0.0
1579355876976,3610209.0,3825021.0,0.0
1579355877022,3639153.0,3891386.0,0.0
1579355877073,3644306.0,3894391.0,0.0
1579355877121,3645405.0,3882140.0,0.0
1579355877174,3643286.0,3880474.0,0.0
1579355877218,3630620.0,3869685.0,0.0
1579355877274,3622924.0,3859976.0,0.0
1579355877315,3591860.0,3814647.0,0.0
1579355877370,3532489.0,3714986.0,0.0
1579355877419,3492727.0,3657175.0,0.0
1579355877466,3476796.0,3636014.0,0.0
1579355877517,3472097.0,3642660.0,0.0
1579355877558,3481526.0,3662145.0,0.0
1579355877613,3482307.0,3669254.0,0.0
1579355877654,3488298.0,3675717.0,0.0
1579355877709,3493662.0,3681477.0,0.0
1579355877755,3499548.0,3694315.0,0.0
1579355877799,3501945.0,3712329.0,0.0
1579355877854,3501456.0,3713117.0,0.0
1579355877899,3478310.0,3681438.0,0.0
1579355877948,3444386.0,3616731.0,0.0
1579355877997,3418496.0,3581622.0,0.0
1579355878045,3416781.0,3578993.0,0.0
1579355878096,3424601.0,3590733.0,0.0
1579355878146,3426249.0,3596590.0,0.0
1579355878197,3427925.0,3603246.0,0.0
1579355878239,3422665.0,3606635.0,0.0
1579355878295,3426509.0,3611347.0,0.0
1579355878334,3432913.0,3627288.0,0.0
1579355878391,3451879.0,3649440.0,0.0
1579355878438,3469901.0,3672606.0,0.0
1579355878485,3454904.0,3646685.0,0.0
1579355878537,3414700.0,3575659.0,0.0
1579355878579,3386825.0,3536235.0,0.0
1579355878634,3378917.0,3524591.0,0.0
1579355878675,3380969.0,3530977.0,0.0
1579355878731,3376739.0,3529358.0,0.0
1579355878780,3376538.0,3526170.0,0.0
1579355878825,3381248.0,3538625.0,0.0
1579355878873,3393895.0,3554517.0,0.0
1579355878918,3405261.0,3560210.0,0.0
1579355878978,3416462.0,3581429.0,0.0
1579355879016,3436005.0,3602620.0,0.0
1579355879071,3448460.0,3621855.0,0.0
1579355879113,3425247.0,3578790.0,0.0
1579355879167,3402256.0,3525130.0,0.0
1579355879213,3387335.0,3508959.0,0.0
1579355879262,3392420.0,3520969.0,0.0
1579355879315,3402457.0,3540764.0,0.0
1579355879355,3405125.0,3555722.0,0.0
1579355879411,3410452.0,3556059.0,0.0
1579355879459,3411492.0,3558013.0,0.0
1579355879506,3416317.0,3569572.0,0.0
1579355879553,3421539.0,3577384.0,0.0
1579355879603,3430680.0,3580871.0,0.0
1579355879653,3433858.0,3591667.0,0.0
1579355879695,3423744.0,3576758.0,0.0
1579355879751,3390360.0,3495657.0,0.0
1579355879796,3361588.0,3442950.0,0.0
1579355879847,3358468.0,3439618.0,0.0
1579355879893,3362744.0,3457987.0,0.0
1579355879936,3368785.0,3466144.0,0.0
1579355879995,3363640.0,3451513.0,0.0
1579355880037,3364547.0,3442344.0,0.0
1579355880082,3373263.0,3451070.0,0.0
1579355880134,3390370.0,3478050.0,0.0
1579355880186,3409836.0,3508293.0,0.0
1579355880232,3420334.0,3526247.0,0.0
1579355880282,3437143.0,3537661.0,0.0
1579355880334,3408449.0,3478704.0,0.0
1579355880375,3378560.0,3409643.0,0.0
1579355880429,3365991.0,3387749.0,0.0
1579355880478,3372838.0,3402621.0,0.0
1579355880526,3385274.0,3421722.0,0.0
1579355880573,3397438.0,3437210.0,0.0
1579355880623,3394982.0,3434146.0,0.0
1579355880673,3398278.0,3427742.0,0.0
1579355880714,3402882.0,3431517.0,0.0
1579355880763,3415393.0,3457678.0,0.0
1579355880821,3430747.0,3475535.0,0.0
1579355880861,3438366.0,3481305.0,0.0
1579355880913,3427943.0,3460480.0,0.0
1579355880964,3396061.0,3383655.0,0.0
1579355881014,3361617.0,3325854.0,0.0
1579355881057,3357929.0,3320490.0,0.0
1579355881111,3367675.0,3340178.0,0.0
1579355881157,3376770.0,3353797.0,0.0
1579355881198,3369274.0,3340812.0,0.0
1579355881253,3363514.0,3326953.0,0.0
1579355881300,3358980.0,3317552.0,0.0
1579355881353,3361166.0,3324015.0,0.0
1579355881402,3373466.0,3352313.0,0.0
1579355881450,3396282.0,3386758.0,0.0
1579355881499,3417118.0,3409980.0,0.0
1579355881546,3415625.0,3395358.0,0.0
1579355881593,3387615.0,3325767.0,0.0
1579355881636,3371664.0,3285438.0,0.0
1579355881694,3376682.0,3286391.0,0.0
1579355881742,3390736.0,3308450.0,0.0
1579355881791,3406821.0,3329987.0,0.0
1579355881837,3411502.0,3337768.0,0.0
1579355881887,3415403.0,3340928.0,0.0
1579355881932,3427356.0,3348268.0,0.0
1579355881978,3439213.0,3367088.0,0.0
1579355882026,3452157.0,3393519.0,0.0
1579355882075,3471335.0,3425950.0,0.0
1579355882122,3484521.0,3449423.0,0.0
1579355882172,3482471.0,3432586.0,0.0
1579355882223,3449750.0,3357206.0,0.0
1579355882273,3425275.0,3310376.0,0.0
1579355882320,3426980.0,3306658.0,0.0
1579355882367,3435881.0,3329909.0,0.0
1579355882420,3445550.0,3351688.0,0.0
1579355882471,3449317.0,3349684.0,0.0
1579355882520,3444713.0,3339956.0,0.0
1579355882568,3449770.0,3340109.0,0.0
1579355882614,3456686.0,3346178.0,0.0
1579355882659,3471595.0,3372300.0,0.0
1579355882715,3495060.0,3410529.0,0.0
1579355882759,3507543.0,3437344.0,0.0
1579355882813,3496051.0,3400994.0,0.0
1579355882859,3471510.0,3345928.0,0.0
1579355882907,3461790.0,3322705.0,0.0
1579355882958,3470959.0,3332886.0,0.0
1579355883004,3482479.0,3355849.0,0.0
1579355883053,3498624.0,3383251.0,0.0
1579355883097,3507291.0,3391882.0,0.0
1579355883147,3513360.0,3396534.0,0.0
1579355883200,3522385.0,3404076.0,0.0
1579355883245,3526412.0,3414227.0,0.0
1579355883295,3540118.0,3438770.0,0.0
1579355883340,3559950.0,3470699.0,0.0
1579355883393,3553198.0,3460307.0,0.0
1579355883446,3524043.0,3385004.0,0.0
1579355883494,3498160.0,3344550.0,0.0
1579355883543,3492228.0,3339030.0,0.0
1579355883591,3500424.0,3357110.0,0.0
1579355883637,3515461.0,3376335.0,0.0
1579355883688,3516548.0,3380920.0,0.0
1579355883733,3516867.0,3374659.0,0.0
1579355883777,3511192.0,3373976.0,0.0
1579355883834,3519418.0,3383241.0,0.0
1579355883880,3524571.0,3396148.0,0.0
1579355883931,3537497.0,3423089.0,0.0
1579355883977,3556049.0,3454575.0,0.0
1579355884022,3526237.0,3400165.0,0.0
1579355884075,3495155.0,3338386.0,0.0
1579355884118,3484271.0,3325931.0,0.0
1579355884174,3498276.0,3346110.0,0.0
1579355884222,3507600.0,3369218.0,0.0
1579355884268,3516808.0,3384175.0,0.0
1579355884319,3519179.0,3386026.0,0.0
1579355884366,3525680.0,3401157.0,0.0
1579355884409,3530833.0,3417301.0,0.0
1579355884460,3541428.0,3436497.0,0.0
1579355884513,3554643.0,3458834.0,0.0
1579355884562,3564245.0,3472020.0,0.0
1579355884608,3537566.0,3430245.0,0.0
1579355884660,3501031.0,3366192.0,0.0
1579355884699,3489271.0,3345503.0,0.0
1579355884752,3482875.0,3347045.0,0.0
1579355884802,3490224.0,3365317.0,0.0
1579355884854,3491128.0,3382066.0,0.0
1579355884902,3489722.0,3384417.0,0.0
1579355884947,3492583.0,3389791.0,0.0
1579355885003,3499278.0,3404692.0,0.0
1579355885040,3502457.0,3418707.0,0.0
1579355885090,3507793.0,3430168.0,0.0
1579355885142,3517116.0,3439368.0,0.0
1579355885194,3515461.0,3440542.0,0.0
1579355885242,3485716.0,3388751.0,0.0
1579355885284,3460008.0,3343268.0,0.0
1579355885340,3456136.0,3341131.0,0.0
1579355885379,3461540.0,3357216.0,0.0
1579355885434,3475275.0,3379774.0,0.0
1579355885483,3482904.0,3395793.0,0.0
1579355885531,3488154.0,3407620.0,0.0
1579355885582,3493595.0,3418619.0,0.0
1579355885627,3503315.0,3442373.0,0.0
1579355885680,3518041.0,3465866.0,0.0
1579355885721,3528801.0,3486120.0,0.0
1579355885774,3539760.0,3500858.0,0.0
1579355885823,3555096.0,3530081.0,0.0
1579355885874,3553997.0,3516462.0,0.0
1579355885922,3533905.0,3473704.0,0.0
1579355885963,3514969.0,3455693.0,0.0
1579355886020,3508929.0,3455837.0,0.0
1579355886060,3515268.0,3470035.0,0.0
1579355886114,3520132.0,3482662.0,0.0
1579355886164,3526546.0,3491004.0,0.0
1579355886210,3536564.0,3509922.0,0.0
1579355886261,3546745.0,3526922.0,0.0
1579355886302,3547227.0,3539655.0,0.0
1579355886360,3552879.0,3545136.0,0.0
1579355886401,3558891.0,3556425.0,0.0
1579355886454,3583953.0,3590840.0,0.0
1579355886504,3595751.0,3619581.0,0.0
1579355886550,3564245.0,3561240.0,0.0
1579355886601,3535205.0,3513532.0,0.0
1579355886641,3530794.0,3510259.0,0.0
1579355886693,3536418.0,3524187.0,0.0
1579355886746,3546599.0,3541467.0,0.0
1579355886790,3546697.0,3551839.0,0.0
1579355886845,3548556.0,3556742.0,0.0
1579355886887,3554401.0,3561106.0,0.0
1579355886941,3553863.0,3565285.0,0.0
1579355886982,3560884.0,3578435.0,0.0
1579355887040,3576913.0,3594798.0,0.0
1579355887084,3597466.0,3635021.0,0.0
1579355887134,3622790.0,3672905.0,0.0
1579355887176,3610046.0,3633692.0,0.0
1579355887225,3585050.0,3579686.0,0.0
1579355887276,3568820.0,3567136.0,0.0
1579355887323,3565710.0,3573069.0,0.0
1579355887374,3571181.0,3584936.0,0.0
1579355887423,3562126.0,3587208.0,0.0
1579355887478,3556896.0,3577134.0,0.0
1579355887524,3552292.0,3573416.0,0.0
1579355887569,3551108.0,3573944.0,0.0
1579355887622,3560066.0,3580611.0,0.0
1579355887662,3570960.0,3603486.0,0.0
1579355887719,3588518.0,3634492.0,0.0
1579355887764,3587323.0,3643469.0,0.0
1579355887816,3554133.0,3578453.0,0.0
1579355887864,3530928.0,3539405.0,0.0
1579355887907,3524831.0,3534935.0,0.0
1579355887962,3532586.0,3546475.0,0.0
1579355888007,3542564.0,3564757.0,0.0
1579355888058,3544009.0,3572953.0,0.0
1579355888106,3545579.0,3571923.0,0.0
1579355888156,3549740.0,3580350.0,0.0
1579355888204,3553160.0,3593228.0,0.0
1579355888247,3555712.0,3599461.0,0.0
1579355888295,3564602.0,3618696.0,0.0
1579355888344,3576921.0,3639068.0,0.0
1579355888393,3582210.0,3650616.0,0.0
1579355888440,3545185.0,3584174.0,0.0
1579355888490,3509768.0,3534618.0,0.0
1579355888538,3503217.0,3522606.0,0.0
1579355888586,3511145.0,3536698.0,0.0
1579355888635,3517155.0,3550683.0,0.0
1579355888684,3518764.0,3557089.0,0.0
1579355888732,3513370.0,3546292.0,0.0
1579355888779,3502342.0,3538797.0,0.0
1579355888830,3504422.0,3536698.0,0.0
1579355888876,3512407.0,3546262.0,0.0
1579355888927,3519650.0,3567857.0,0.0
1579355888975,3536969.0,3603679.0,0.0
1579355889025,3542353.0,3607619.0,0.0
1579355889072,3519668.0,3556098.0,0.0
1579355889120,3501878.0,3520497.0,0.0
1579355889170,3497313.0,3508284.0,0.0
1579355889223,3505395.0,3520585.0,0.0
1579355889265,3517299.0,3543594.0,0.0
1579355889321,3519418.0,3552794.0,0.0
1579355889366,3521345.0,3551311.0,0.0
1579355889418,3522742.0,3552841.0,0.0
1579355889466,3531526.0,3566027.0,0.0
1579355889515,3536178.0,3576344.0,0.0
1579355889564,3548661.0,3595001.0,0.0
1579355889605,3560730.0,3618830.0,0.0
1579355889661,3546561.0,3600164.0,0.0
1579355889707,3517492.0,3532769.0,0.0
1579355889759,3498093.0,3504201.0,0.0
1579355889802,3494846.0,3500925.0,0.0
1579355889855,3500029.0,3513293.0,0.0
1579355889904,3503140.0,3522925.0,0.0
1579355889946,3499442.0,3515170.0,0.0
1579355890001,3496986.0,3508929.0,0.0
1579355890049,3504778.0,3514680.0,0.0
1579355890099,3516336.0,3539492.0,0.0
1579355890146,3531314.0,3559411.0,0.0
1579355890192,3548862.0,3589154.0,0.0
1579355890243,3578502.0,3638200.0,0.0
1579355890285,3579627.0,3644231.0,0.0
1579355890341,3595713.0,3650192.0,0.0
1579355890388,3614862.0,3674252.0,0.0
1579355890439,3624649.0,3678616.0,0.0
1579355890487,3623742.0,3669648.0,0.0
1579355890534,3611404.0,3655200.0,0.0
1579355890584,3601233.0,3635783.0,0.0
1579355890625,3592901.0,3622712.0,0.0
1579355890681,3596271.0,3622105.0,0.0
1579355890728,3596271.0,3628076.0,0.0
1579355890780,3604729.0,3633086.0,0.0
1579355890827,3613080.0,3645511.0,0.0
1579355890874,3616162.0,3669755.0,0.0
1579355890924,3588634.0,3608216.0,0.0
1579355890965,3553968.0,3540002.0,0.0
1579355891019,3543604.0,3521123.0,0.0
1579355891069,3544462.0,3526749.0,0.0
1579355891116,3545010.0,3536640.0,0.0
1579355891166,3546514.0,3536833.0,0.0
1579355891208,3539317.0,3529406.0,0.0
1579355891264,3539260.0,3528647.0,0.0
1579355891309,3540839.0,3525977.0,0.0
1579355891360,3542016.0,3534214.0,0.0
1579355891409,3548458.0,3539531.0,0.0
1579355891457,3548844.0,3549133.0,0.0
1579355891506,3552851.0,3555779.0,0.0
1579355891549,3526912.0,3499383.0,0.0
1579355891604,3501639.0,3446966.0,0.0
1579355891651,3498006.0,3443490.0,0.0
1579355891694,3509111.0,3466636.0,0.0
1579355891750,3519447.0,3487758.0,0.0
1579355891796,3521854.0,3493258.0,0.0
1579355891845,3521162.0,3493806.0,0.0
1579355891887,3527009.0,3499182.0,0.0
1579355891943,3536188.0,3518466.0,0.0
1579355891990,3541168.0,3533683.0,0.0
1579355892038,3551532.0,3541099.0,0.0
1579355892089,3555683.0,3554102.0,0.0
1579355892136,3534734.0,3505568.0,0.0
1579355892185,3499365.0,3439636.0,0.0
1579355892227,3490533.0,3416606.0,0.0
1579355892277,3487325.0,3420633.0,0.0
1579355892329,3495165.0,3432374.0,0.0
1579355892380,3495068.0,3439522.0,0.0
1579355892429,3495724.0,3434022.0,0.0
1579355892477,3495050.0,3436458.0,0.0
1579355892527,3500722.0,3452737.0,0.0
1579355892570,3506637.0,3463909.0,0.0
1579355892624,3510682.0,3476989.0,0.0
1579355892670,3520016.0,3493191.0,0.0
1579355892719,3512966.0,3474948.0,0.0
1579355892763,3482286.0,3413776.0,0.0
1579355892818,3466500.0,3379456.0,0.0
1579355892867,3460914.0,3371278.0,0.0
1579355892909,3462609.0,3379293.0,0.0
1579355892956,3471981.0,3395464.0,0.0
1579355893014,3469139.0,3395031.0,0.0
1579355893060,3470825.0,3389474.0,0.0
1579355893111,3477067.0,3399694.0,0.0
1579355893152,3486602.0,3416415.0,0.0
1579355893208,3496167.0,3437923.0,0.0
1579355893250,3511637.0,3460028.0,0.0
1579355893304,3522444.0,3479031.0,0.0
1579355893352,3515721.0,3462966.0,0.0
1579355893400,3490397.0,3404952.0,0.0
1579355893450,3470401.0,3363707.0,0.0
1579355893493,3465451.0,3351291.0,0.0
1579355893547,3464527.0,3354240.0,0.0
1579355893592,3463669.0,3362196.0,0.0
1579355893644,3459508.0,3354914.0,0.0
1579355893692,3459516.0,3356080.0,0.0
1579355893733,3462619.0,3359469.0,0.0
1579355893781,3459189.0,3359672.0,0.0
1579355893835,3456146.0,3363265.0,0.0
1579355893879,3468986.0,3382471.0,0.0
1579355893932,3474937.0,3389559.0,0.0
1579355893977,3462485.0,3362582.0,0.0
1579355894035,3435331.0,3304549.0,0.0
1579355894080,3420643.0,3279418.0,0.0
1579355894130,3421210.0,3277116.0,0.0
1579355894171,3418802.0,3287009.0,0.0
1579355894228,3433039.0,3307755.0,0.0
1579355894272,3434733.0,3313101.0,0.0
1579355894322,3430477.0,3305242.0,0.0
1579355894375,3433183.0,3311030.0,0.0
1579355894418,3443537.0,3325661.0,0.0
1579355894469,3454971.0,3346265.0,0.0
1579355894517,3466597.0,3366530.0,0.0
1579355894568,3478666.0,3380959.0,0.0
1579355894613,3473223.0,3375699.0,0.0
1579355894663,3434869.0,3290390.0,0.0
1579355894714,3402264.0,3234062.0,0.0
1579355894755,3390813.0,3223129.0,0.0
1579355894810,3395214.0,3231662.0,0.0
1579355894852,3399096.0,3245322.0,0.0
1579355894908,3403180.0,3243723.0,0.0
1579355894953,3399385.0,3243385.0,0.0
1579355895001,3405299.0,3241295.0,0.0
1579355895054,3411222.0,3257851.0,0.0
1579355895093,3419505.0,3271001.0,0.0
1579355895149,3424755.0,3280613.0,0.0
1579355895198,3432259.0,3291121.0,0.0
1579355895239,3440869.0,3299317.0,0.0
1579355895293,3420046.0,3258479.0,0.0
1579355895336,3383868.0,3189686.0,0.0
1579355895387,3364181.0,3166088.0,0.0
1579355895436,3360221.0,3162014.0,0.0
1579355895484,3364459.0,3173727.0,0.0
1579355895536,3378714.0,3197710.0,0.0
1579355895583,3381806.0,3204173.0,0.0
1579355895637,3378570.0,3194936.0,0.0
1579355895677,3385053.0,3204953.0,0.0
1579355895732,3396370.0,3225528.0,0.0
1579355895774,3409816.0,3251043.0,0.0
1579355895829,3421076.0,3270548.0,0.0
1579355895876,3430814.0,3287056.0,0.0
1579355895925,3455906.0,3320393.0,0.0
1579355895978,3453468.0,3305232.0,0.0
1579355896019,3417020.0,3231394.0,0.0
1579355896075,3394068.0,3190448.0,0.0
1579355896114,3380670.0,3176261.0,0.0
1579355896170,3370412.0,3181307.0,0.0
1579355896213,3379388.0,3203269.0,0.0
1579355896257,3401744.0,3225344.0,0.0
1579355896307,3400443.0,3222658.0,0.0
1579355896354,3406522.0,3221367.0,0.0
1579355896405,3409432.0,3239119.0,0.0
1579355896455,3419129.0,3264961.0,0.0
1579355896511,3423676.0,3277521.0,0.0
1579355896556,3429197.0,3286276.0,0.0
1579355896602,3433203.0,3294945.0,0.0
1579355896653,3432027.0,3292450.0,0.0
1579355896696,3402150.0,3227830.0,0.0
1579355896751,3370556.0,3180950.0,0.0
1579355896795,3361550.0,3162861.0,0.0
1579355896850,3360934.0,3164365.0,0.0
1579355896898,3367176.0,3183589.0,0.0
1579355896939,3372405.0,3192047.0,0.0
1579355896995,3367598.0,3180324.0,0.0
1579355897040,3364691.0,3186354.0,0.0
1579355897092,3375670.0,3200812.0,0.0
1579355897135,3388097.0,3224594.0,0.0
1579355897189,3401860.0,3248298.0,0.0
1579355897239,3413333.0,3269276.0,0.0
1579355897282,3429542.0,3286566.0,0.0
1579355897335,3426547.0,3282789.0,0.0
1579355897375,3390262.0,3219990.0,0.0
1579355897432,3350473.0,3166455.0,0.0
1579355897473,3336362.0,3149994.0,0.0
1579355897528,3343520.0,3158123.0,0.0
1579355897577,3353624.0,3180566.0,0.0
1579355897621,3357051.0,3184390.0,0.0
1579355897675,3342835.0,3175220.0,0.0
1579355897715,3340446.0,3168660.0,0.0
1579355897764,3347429.0,3185304.0,0.0
1579355897813,3358998.0,3204492.0,0.0
1579355897869,3367714.0,3219027.0,0.0
1579355897914,3371836.0,3233330.0,0.0
1579355897962,3380341.0,3241150.0,0.0
1579355898017,3384610.0,3253018.0,0.0
1579355898055,3344684.0,3192470.0,0.0
1579355898111,3301542.0,3128533.0,0.0
1579355898159,3282596.0,3110068.0,0.0
1579355898208,3289975.0,3126414.0,0.0
1579355898254,3308267.0,3133391.0,0.0
1579355898302,3315279.0,3130024.0,0.0
1579355898356,3312938.0,3133962.0,0.0
1579355898394,3317205.0,3143501.0,0.0
1579355898451,3332587.0,3173599.0,0.0
1579355898500,3350483.0,3205764.0,0.0
1579355898547,3369439.0,3234110.0,0.0
1579355898593,3385467.0,3253447.0,0.0
1579355898643,3398046.0,3267880.0,0.0
1579355898686,3407398.0,3291026.0,0.0
1579355898735,3365124.0,3223783.0,0.0
1579355898787,3306609.0,3151845.0,0.0
1579355898841,3292576.0,3131430.0,0.0
1579355898888,3300512.0,3150874.0,0.0
1579355898937,3312514.0,3175275.0,0.0
1579355898982,3317079.0,3179910.0,0.0
1579355899036,3307969.0,3172467.0,0.0
1579355899077,3306725.0,3175558.0,0.0
1579355899132,3313814.0,3185271.0,0.0
1579355899177,3319044.0,3198000.0,0.0
1579355899230,3332404.0,3215225.0,0.0
1579355899273,3340283.0,3228779.0,0.0
1579355899323,3353073.0,3250616.0,0.0
1579355899372,3344772.0,3245238.0,0.0
1579355899419,3302660.0,3181249.0,0.0
1579355899473,3276288.0,3147684.0,0.0
1579355899521,3277096.0,3151715.0,0.0
1579355899560,3292277.0,3180499.0,0.0
1579355899618,3299636.0,3195773.0,0.0
1579355899663,3297661.0,3191751.0,0.0
1579355899714,3297113.0,3192149.0,0.0
1579355899757,3303738.0,3207598.0,0.0
1579355899812,3316358.0,3227272.0,0.0
1579355899861,3325614.0,3244726.0,0.0
1579355899910,3347053.0,3265418.0,0.0
1579355899955,3360702.0,3288478.0,0.0
1579355900005,3351312.0,3279093.0,0.0
1579355900051,3294657.0,3200148.0,0.0
1579355900096,3248375.0,3137893.0,0.0
1579355900153,3239127.0,3127996.0,0.0
1579355900204,3248229.0,3139661.0,0.0
1579355900249,3256427.0,3159066.0,0.0
1579355900291,3250320.0,3152619.0,0.0
1579355900339,3247624.0,3142184.0,0.0
1579355900391,3250523.0,3150179.0,0.0
1579355900437,3259788.0,3163182.0,0.0
1579355900488,3268545.0,3175635.0,0.0
1579355900539,3281576.0,3190962.0,0.0
1579355900590,3292932.0,3206605.0,0.0
1579355900638,3310260.0,3229535.0,0.0
1579355900683,3274593.0,3186334.0,0.0
1579355900733,3223870.0,3112110.0,0.0
1579355900775,3205290.0,3085637.0,0.0
1579355900823,3214557.0,3098686.0,0.0
1579355900876,3231258.0,3126054.0,0.0
1579355900924,3242057.0,3135660.0,0.0
1579355900974,3242768.0,3136853.0,0.0
1579355901021,3246776.0,3142643.0,0.0
1579355901072,3255454.0,3156742.0,0.0
1579355901118,3272551.0,3180346.0,0.0
1579355901173,3286873.0,3202253.0,0.0
1579355901221,3301099.0,3220532.0,0.0
1579355901268,3313015.0,3241973.0,0.0
1579355901316,3329399.0,3263733.0,0.0
1579355901363,3291912.0,3211958.0,0.0
1579355901412,3235988.0,3136548.0,0.0
1579355901463,3218564.0,3108859.0,0.0
1579355901512,3231018.0,3120103.0,0.0
1579355901560,3246882.0,3146378.0,0.0
1579355901609,3248442.0,3143929.0,0.0
1579355901657,3235189.0,3127980.0,0.0
1579355901703,3238570.0,3129465.0,0.0
1579355901756,3245765.0,3136891.0,0.0
1579355901799,3249676.0,3139791.0,0.0
1579355901852,3259605.0,3151402.0,0.0
1579355901900,3266820.0,3160421.0,0.0
1579355901948,3267311.0,3160222.0,0.0
1579355901996,3239495.0,3114166.0,0.0
1579355902040,3198596.0,3056318.0,0.0
1579355902093,3187781.0,3033226.0,0.0
1579355902141,3186779.0,3031413.0,0.0
1579355902192,3202854.0,3056656.0,0.0
1579355902241,3223302.0,3079854.0,0.0
1579355902285,3218139.0,3075043.0,0.0
1579355902335,3219267.0,3073231.0,0.0
1579355902377,3229525.0,3088146.0,0.0
1579355902433,3247989.0,3111076.0,0.0
1579355902481,3261618.0,3138958.0,0.0
1579355902531,3274449.0,3151319.0,0.0
1579355902580,3285044.0,3165836.0,0.0
1579355902625,3281296.0,3159257.0,0.0
1579355902679,3219508.0,3070545.0,0.0
1579355902720,3160145.0,2987479.0,0.0
1579355902775,3152286.0,2969358.0,0.0
1579355902820,3164885.0,2981152.0,0.0
1579355902868,3179312.0,3002989.0,0.0
1579355902921,3178686.0,2996924.0,0.0
1579355902961,3173380.0,2985360.0,0.0
1579355903019,3177906.0,2993184.0,0.0
1579355903060,3193327.0,3013032.0,0.0
1579355903113,3207535.0,3031543.0,0.0
1579355903162,3213535.0,3044998.0,0.0
1579355903209,3232589.0,3061794.0,0.0
1579355903260,3251833.0,3081337.0,0.0
1579355903301,3250667.0,3079005.0,0.0
1579355903356,3193780.0,2991945.0,0.0
1579355903398,3154820.0,2934977.0,0.0
1579355903455,3160397.0,2939627.0,0.0
1579355903503,3180046.0,2969557.0,0.0
1579355903548,3196613.0,2991723.0,0.0
1579355903600,3199223.0,2998103.0,0.0
1579355903640,3196785.0,2995212.0,0.0
1579355903695,3206727.0,3004696.0,0.0
1579355903743,3218659.0,3030290.0,0.0
1579355903795,3240275.0,3055676.0,0.0
1579355903836,3252603.0,3073621.0,0.0
1579355903891,3267214.0,3095259.0,0.0
1579355903939,3283783.0,3115804.0,0.0
1579355903979,3269469.0,3095779.0,0.0
1579355904035,3208931.0,3006256.0,0.0
1579355904083,3165598.0,2938877.0,0.0
1579355904131,3159058.0,2925460.0,0.0
1579355904181,3168111.0,2946580.0,0.0
1579355904227,3185093.0,2974047.0,0.0
1579355904280,3175239.0,2968248.0,0.0
1579355904321,3157583.0,2958596.0,0.0
1579355904378,3161185.0,2969801.0,0.0
1579355904423,3176781.0,2988052.0,0.0
1579355904475,3187413.0,3001782.0,0.0
1579355904522,3202826.0,3013843.0,0.0
1579355904568,3218247.0,3027596.0,0.0
1579355904620,3223188.0,3025011.0,0.0
1579355904660,3180151.0,2959299.0,0.0
1579355904719,3155831.0,2914736.0,0.0
1579355904763,3152065.0,2900945.0,0.0
1579355904815,3163950.0,2923105.0,0.0
1579355904863,3193732.0,2962275.0,0.0
1579355904905,3206196.0,2976761.0,0.0
1579355904960,3207293.0,2975026.0,0.0
1579355905001,3210146.0,2979439.0,0.0
1579355905059,3224911.0,2997254.0,0.0
1579355905104,3238521.0,3024599.0,0.0
1579355905151,3258122.0,3050016.0,0.0
1579355905203,3276674.0,3066812.0,0.0
1579355905248,3280806.0,3078377.0,0.0
1579355905300,3235594.0,3017707.0,0.0
1579355905342,3181047.0,2938548.0,0.0
1579355905389,3163036.0,2905421.0,0.0
1579355905444,3168188.0,2912434.0,0.0
1579355905490,3184668.0,2936734.0,0.0
1579355905537,3206977.0,2965625.0,0.0
1579355905586,3207324.0,2965266.0,0.0
1579355905631,3205676.0,2962427.0,0.0
1579355905683,3207458.0,2967598.0,0.0
1579355905736,3221203.0,2989665.0,0.0
1579355905785,3238723.0,3013217.0,0.0
1579355905832,3253682.0,3034656.0,0.0
1579355905876,3272204.0,3056363.0,0.0
1579355905926,3285920.0,3070315.0,0.0
1579355905975,3259144.0,3023030.0,0.0
1579355906021,3225652.0,2975943.0,0.0
1579355906070,3215646.0,2963047.0,0.0
1579355906125,3225884.0,2973090.0,0.0
1579355906172,3244107.0,2998562.0,0.0
1579355906219,3251350.0,3014341.0,0.0
1579355906263,3247585.0,3011029.0,0.0
1579355906321,3247874.0,3009338.0,0.0
1579355906365,3262033.0,3024453.0,0.0
1579355906416,3277049.0,3048569.0,0.0
1579355906464,3298797.0,3080496.0,0.0
1579355906512,3315953.0,3102992.0,0.0
1579355906562,3328022.0,3121586.0,0.0
1579355906603,3296410.0,3078363.0,0.0
1579355906660,3253095.0,3016490.0,0.0
1579355906705,3239302.0,2997682.0,0.0
1579355906757,3235563.0,2990622.0,0.0
1579355906805,3237713.0,2997384.0,0.0
1579355906851,3247171.0,3007518.0,0.0
1579355906903,3248654.0,3013967.0,0.0
1579355906943,3255436.0,3020084.0,0.0
1579355906999,3259162.0,3028760.0,0.0
1579355907050,3255165.0,3033234.0,0.0
1579355907088,3258112.0,3042153.0,0.0
1579355907144,3262110.0,3051782.0,0.0
1579355907187,3264922.0,3055453.0,0.0
1579355907242,3218824.0,2985390.0,0.0
1579355907284,3174121.0,2928765.0,0.0
1579355907340,3177638.0,2929491.0,0.0
1579355907387,3195678.0,2950580.0,0.0
1579355907435,3203354.0,2969441.0,0.0
1579355907485,3216830.0,2985512.0,0.0
1579355907528,3215934.0,2986223.0,0.0
1579355907582,3214585.0,2986315.0,0.0
1579355907624,3227396.0,3005813.0,0.0
1579355907680,3240427.0,3030542.0,0.0
1579355907728,3253373.0,3055599.0,0.0
1579355907775,3275816.0,3080764.0,0.0
1579355907825,3294531.0,3105968.0,0.0
1579355907867,3265347.0,3055806.0,0.0
1579355907923,3225354.0,3001476.0,0.0
1579355907966,3233483.0,3006785.0,0.0
1579355908019,3256330.0,3039796.0,0.0
1579355908069,3274207.0,3064862.0,0.0
1579355908117,3276501.0,3072351.0,0.0
1579355908165,3276645.0,3071073.0,0.0
1579355908204,3270028.0,3070285.0,0.0
1579355908262,3268246.0,3072036.0,0.0
1579355908306,3274719.0,3084956.0,0.0
1579355908360,3289695.0,3102311.0,0.0
1579355908407,3296650.0,3121542.0,0.0
1579355908454,3300687.0,3127163.0,0.0
1579355908504,3252343.0,3064533.0,0.0
1579355908544,3205839.0,2996297.0,0.0
1579355908602,3202113.0,2995248.0,0.0
1579355908648,3221501.0,3023628.0,0.0
1579355908697,3242546.0,3047651.0,0.0
1579355908746,3240834.0,3051958.0,0.0
1579355908793,3241323.0,3059508.0,0.0
1579355908844,3244127.0,3063653.0,0.0
1579355908885,3255117.0,3076037.0,0.0
1579355908941,3273957.0,3102770.0,0.0
1579355908986,3294031.0,3137718.0,0.0
1579355909038,3315462.0,3166348.0,0.0
1579355909087,3338973.0,3216128.0,0.0
1579355909128,3336305.0,3204914.0,0.0
1579355909175,3389618.0,3255734.0,0.0
1579355909226,3512011.0,3444662.0,0.0
1579355909273,3607753.0,3600485.0,0.0
1579355909325,3660615.0,3728865.0,0.0
1579355909372,3689567.0,3810411.0,0.0
1579355909420,3711904.0,3828945.0,0.0
1579355909470,3704506.0,3787257.0,0.0
1579355909516,3677037.0,3716811.0,0.0
1579355909565,3668069.0,3689260.0,0.0
1579355909615,3699460.0,3724682.0,0.0
1579355909668,3698324.0,3732177.0,0.0
1579355909713,3639375.0,3616158.0,0.0
1579355909760,3571575.0,3517228.0,0.0
1579355909811,3540224.0,3475693.0,0.0
1579355909858,3534888.0,3475815.0,0.0
1579355909909,3551262.0,3504973.0,0.0
1579355909956,3554903.0,3508110.0,0.0
1579355910007,3529329.0,3469023.0,0.0
1579355910054,3503758.0,3441976.0,0.0
1579355910102,3491427.0,3426939.0,0.0
1579355910151,3480486.0,3418686.0,0.0
1579355910205,3468678.0,3406608.0,0.0
1579355910247,3459547.0,3397729.0,0.0
1579355910302,3401571.0,3315134.0,0.0
1579355910350,3334686.0,3227050.0,0.0
1579355910400,3303903.0,3179259.0,0.0
1579355910448,3284118.0,3151922.0,0.0
1579355910494,3277029.0,3144082.0,0.0
1579355910545,3287529.0,3157851.0,0.0
1579355910588,3287818.0,3159196.0,0.0
1579355910643,3269227.0,3131538.0,0.0
1579355910691,3257967.0,3116507.0,0.0
1579355910739,3263622.0,3130130.0,0.0
1579355910789,3278744.0,3145971.0,0.0
1579355910830,3286605.0,3158684.0,0.0
1579355910886,3256821.0,3111237.0,0.0
1579355910931,3196448.0,3034357.0,0.0
1579355910983,3175143.0,2996382.0,0.0
1579355911031,3173755.0,2997757.0,0.0
1579355911079,3182212.0,3016061.0,0.0
1579355911130,3191306.0,3022793.0,0.0
1579355911170,3196921.0,3033065.0,0.0
1579355911226,3208238.0,3051950.0,0.0
1579355911270,3214758.0,3060457.0,0.0
1579355911323,3219681.0,3066140.0,0.0
1579355911373,3231644.0,3086563.0,0.0
1579355911419,3248481.0,3110672.0,0.0
1579355911468,3217196.0,3062560.0,0.0
1579355911510,3158777.0,2987111.0,0.0
1579355911566,3143637.0,2966641.0,0.0
1579355911609,3154799.0,2983868.0,0.0
1579355911663,3174979.0,3015013.0,0.0
1579355911709,3183628.0,3022594.0,0.0
1579355911754,3174074.0,3007410.0,0.0
1579355911809,3173158.0,3012138.0,0.0
1579355911850,3187760.0,3034756.0,0.0
1579355911907,3201149.0,3047651.0,0.0
1579355911950,3206196.0,3059531.0,0.0
1579355912003,3216926.0,3071723.0,0.0
1579355912056,3182299.0,3020452.0,0.0
1579355912099,3118275.0,2931128.0,0.0
1579355912149,3100023.0,2900524.0,0.0
1579355912191,3109038.0,2913505.0,0.0
1579355912247,3110712.0,2935472.0,0.0
1579355912292,3089920.0,2936864.0,0.0
1579355912341,3079411.0,2925598.0,0.0
1579355912393,3075151.0,2918056.0,0.0
1579355912437,3086854.0,2936819.0,0.0
1579355912489,3116432.0,2981512.0,0.0
1579355912531,3145742.0,3022319.0,0.0
1579355912587,3161307.0,3044477.0,0.0
1579355912632,3166807.0,3048265.0,0.0
1579355912675,3113226.0,2973541.0,0.0
1579355912733,3070896.0,2910583.0,0.0
1579355912774,3067225.0,2903714.0,0.0
1579355912829,3080519.0,2925996.0,0.0
1579355912871,3104920.0,2960140.0,0.0
1579355912927,3118153.0,2976020.0,0.0
1579355912971,3122436.0,2979447.0,0.0
1579355913022,3127147.0,2984425.0,0.0
1579355913073,3129236.0,2989023.0,0.0
1579355913113,3143714.0,3016216.0,0.0
1579355913168,3169485.0,3052302.0,0.0
1579355913211,3182411.0,3067219.0,0.0
1579355913267,3151571.0,3018166.0,0.0
1579355913312,3096116.0,2934899.0,0.0
1579355913361,3071746.0,2888968.0,0.0
1579355913413,3073353.0,2894482.0,0.0
1579355913453,3096643.0,2924220.0,0.0
1579355913509,3112766.0,2946364.0,0.0
1579355913552,3104552.0,2932636.0,0.0
1579355913597,3096407.0,2920076.0,0.0
1579355913653,3107620.0,2928566.0,0.0
1579355913701,3119506.0,2942961.0,0.0
1579355913753,3144754.0,2981321.0,0.0
1579355913794,3181348.0,3034855.0,0.0
1579355913850,3203484.0,3058291.0,0.0
1579355913897,3146644.0,2978054.0,0.0
1579355913945,3096200.0,2901083.0,0.0
1579355913996,3092926.0,2889977.0,0.0
1579355914036,3110916.0,2911112.0,0.0
1579355914093,3134858.0,2943695.0,0.0
1579355914136,3152404.0,2969220.0,0.0
1579355914190,3159801.0,2981373.0,0.0
1579355914235,3164237.0,2988220.0,0.0
1579355914284,3177860.0,3000535.0,0.0
1579355914336,3188215.0,3014761.0,0.0
1579355914378,3200272.0,3035367.0,0.0
1579355914433,3226170.0,3071303.0,0.0
1579355914473,3233842.0,3081888.0,0.0
1579355914529,3175107.0,3000742.0,0.0
1579355914575,3126735.0,2924704.0,0.0
1579355914624,3120408.0,2910240.0,0.0
1579355914672,3134017.0,2931242.0,0.0
1579355914717,3153436.0,2956324.0,0.0
1579355914766,3166470.0,2971522.0,0.0
1579355914815,3165399.0,2972462.0,0.0
1579355914860,3164842.0,2964898.0,0.0
1579355914913,3171067.0,2975431.0,0.0
1579355914958,3177240.0,2985413.0,0.0
1579355915011,3195735.0,3019879.0,0.0
1579355915058,3239464.0,3075541.0,0.0
1579355915107,3268545.0,3115904.0,0.0
1579355915156,3249623.0,3091840.0,0.0
1579355915209,3195926.0,3021141.0,0.0
1579355915255,3175572.0,2986920.0,0.0
1579355915303,3188500.0,2998178.0,0.0
1579355915352,3210268.0,3032376.0,0.0
1579355915396,3229031.0,3062377.0,0.0
1579355915452,3235242.0,3072390.0,0.0
1579355915494,3232381.0,3073651.0,0.0
1579355915548,3238316.0,3080092.0,0.0
1579355915596,3245377.0,3090295.0,0.0
1579355915640,3257975.0,3110855.0,0.0
1579355915695,3282222.0,3148550.0,0.0
1579355915735,3299876.0,3172788.0,0.0
1579355915792,3260613.0,3125993.0,0.0
1579355915834,3203783.0,3048777.0,0.0
1579355915889,3186801.0,3019298.0,0.0
1579355915942,3199077.0,3034388.0,0.0
1579355915980,3213389.0,3057970.0,0.0
1579355916030,3220839.0,3065703.0,0.0
1579355916078,3211324.0,3055071.0,0.0
1579355916126,3207667.0,3048868.0,0.0
1579355916178,3216495.0,3055973.0,0.0
1579355916229,3231930.0,3080466.0,0.0
1579355916276,3252904.0,3112714.0,0.0
1579355916324,3280532.0,3154440.0,0.0
1579355916374,3299462.0,3176590.0,0.0
1579355916417,3253554.0,3127614.0,0.0
1579355916472,3199636.0,3059829.0,0.0
1579355916514,3188522.0,3041954.0,0.0
1579355916568,3204538.0,3059921.0,0.0
1579355916614,3226018.0,3091588.0,0.0
1579355916663,3236144.0,3114260.0,0.0
1579355916715,3239174.0,3123177.0,0.0
1579355916757,3234401.0,3119804.0,0.0
1579355916812,3244582.0,3137428.0,0.0
1579355916856,3257226.0,3152642.0,0.0
1579355916908,3270442.0,3171167.0,0.0
1579355916957,3288433.0,3201152.0,0.0
1579355917003,3306790.0,3230722.0,0.0
1579355917055,3272929.0,3190320.0,0.0
1579355917095,3200745.0,3107360.0,0.0
1579355917151,3169056.0,3067922.0,0.0
1579355917201,3170990.0,3071792.0,0.0
1579355917248,3186740.0,3089584.0,0.0
1579355917296,3200117.0,3110083.0,0.0
1579355917343,3202458.0,3113402.0,0.0
1579355917394,3192224.0,3105103.0,0.0
1579355917434,3193945.0,3107222.0,0.0
1579355917491,3203805.0,3121603.0,0.0
1579355917541,3220557.0,3143722.0,0.0
1579355917589,3243089.0,3178869.0,0.0
1579355917635,3268912.0,3213045.0,0.0
1579355917683,3260997.0,3202972.0,0.0
1579355917736,3206123.0,3142972.0,0.0
1579355917776,3174204.0,3104491.0,0.0
1579355917832,3173798.0,3100651.0,0.0
1579355917881,3184568.0,3120729.0,0.0
1579355917929,3204746.0,3144029.0,0.0
1579355917977,3210506.0,3156067.0,0.0
1579355918023,3211806.0,3162018.0,0.0
1579355918076,3218429.0,3170417.0,0.0
1579355918117,3228212.0,3184422.0,0.0
1579355918172,3237605.0,3200737.0,0.0
1579355918220,3258532.0,3228550.0,0.0
1579355918269,3281473.0,3259611.0,0.0
1579355918316,3239976.0,3211095.0,0.0
1579355918363,3167045.0,3125075.0,0.0
1579355918412,3142958.0,3086569.0,0.0
1579355918455,3148702.0,3088871.0,0.0
1579355918512,3165116.0,3107529.0,0.0
1579355918561,3173065.0,3116017.0,0.0
1579355918608,3166165.0,3110672.0,0.0
1579355918657,3154600.0,3094678.0,0.0
1579355918704,3152381.0,3095665.0,0.0
1579355918755,3166854.0,3109333.0,0.0
1579355918796,3188989.0,3136188.0,0.0
1579355918852,3209947.0,3167579.0,0.0
1579355918900,3214268.0,3175037.0,0.0
1579355918948,3145988.0,3087930.0,0.0
1579355918997,3101952.0,3027206.0,0.0
1579355919042,3101348.0,3018632.0,0.0
1579355919092,3108943.0,3028246.0,0.0
1579355919141,3122718.0,3047163.0,0.0
1579355919193,3128287.0,3054122.0,0.0
1579355919244,3128616.0,3055630.0,0.0
1579355919289,3135660.0,3065528.0,0.0
1579355919330,3150010.0,3081719.0,0.0
1579355919379,3164092.0,3100674.0,0.0
1579355919430,3178097.0,3121769.0,0.0
1579355919477,3195904.0,3144167.0,0.0
1579355919527,3199492.0,3150201.0,0.0
1579355919578,3132999.0,3061597.0,0.0
1579355919628,3089056.0,2994501.0,0.0
1579355919674,3088711.0,2988450.0,0.0
1579355919723,3102900.0,3003266.0,0.0
1579355919775,3113441.0,3018288.0,0.0
1579355919821,3115292.0,3020667.0,0.0
1579355919873,3110489.0,3013552.0,0.0
1579355919920,3112147.0,3012445.0,0.0
1579355919968,3118902.0,3018181.0,0.0
1579355920017,3130758.0,3033823.0,0.0
1579355920064,3147585.0,3052432.0,0.0
1579355920110,3166594.0,3083869.0,0.0
1579355920157,3194305.0,3121473.0,0.0
1579355920211,3189623.0,3110534.0,0.0
1579355920260,3123689.0,3021470.0,0.0
1579355920301,3095901.0,2975997.0,0.0
1579355920350,3106525.0,2985083.0,0.0
1579355920398,3126765.0,3007366.0,0.0
1579355920447,3141888.0,3025731.0,0.0
1579355920496,3146835.0,3032041.0,0.0
1579355920553,3151869.0,3040272.0,0.0
1579355920601,3161254.0,3050221.0,0.0
1579355920646,3178081.0,3068365.0,0.0
1579355920699,3196523.0,3089170.0,0.0
1579355920740,3213909.0,3112766.0,0.0
1579355920793,3232365.0,3142920.0,0.0
1579355920839,3251106.0,3168574.0,0.0
1579355920895,3234844.0,3141757.0,0.0
1579355920941,3169026.0,3050024.0,0.0
1579355920987,3134697.0,2992885.0,0.0
1579355921039,3139141.0,2989811.0,0.0
1579355921081,3161506.0,3013201.0,0.0
1579355921135,3175749.0,3034626.0,0.0
1579355921182,3170509.0,3023435.0,0.0
1579355921233,3166494.0,3013729.0,0.0
1579355921282,3168030.0,3012016.0,0.0
1579355921328,3176307.0,3021661.0,0.0
1579355921379,3204065.0,3060073.0,0.0
1579355921420,3235724.0,3103559.0,0.0
1579355921472,3248176.0,3116332.0,0.0
1579355921521,3254036.0,3124004.0,0.0
1579355921568,3226262.0,3083755.0,0.0
1579355921616,3177088.0,3007540.0,0.0
1579355921665,3159088.0,2977367.0,0.0
1579355921714,3173477.0,2992772.0,0.0
1579355921760,3196172.0,3022878.0,0.0
1579355921816,3212724.0,3047919.0,0.0
1579355921859,3217857.0,3047836.0,0.0
1579355921915,3208295.0,3038228.0,0.0
1579355921962,3216648.0,3041127.0,0.0
1579355922008,3233275.0,3064029.0,0.0
1579355922060,3252146.0,3090011.0,0.0
1579355922101,3265401.0,3105210.0,0.0
1579355922158,3273884.0,3115367.0,0.0
1579355922204,3283155.0,3129435.0,0.0
1579355922254,3247479.0,3076902.0,0.0
1579355922300,3190786.0,2987645.0,0.0
1579355922350,3172445.0,2956078.0,0.0
1579355922400,3186328.0,2969955.0,0.0
1579355922441,3204142.0,2996451.0,0.0
1579355922498,3212440.0,3005285.0,0.0
1579355922543,3209748.0,2999732.0,0.0
1579355922594,3212288.0,3001597.0,0.0
1579355922643,3228464.0,3022854.0,0.0
1579355922690,3251801.0,3052976.0,0.0
1579355922739,3263276.0,3070760.0,0.0
1579355922781,3278421.0,3092191.0,0.0
1579355922838,3297848.0,3119522.0,0.0
1579355922883,3317735.0,3149864.0,0.0
1579355922933,3296548.0,3113494.0,0.0
1579355922983,3244956.0,3038648.0,0.0
1579355923029,3226522.0,3007991.0,0.0
1579355923083,3235380.0,3015779.0,0.0
1579355923120,3253829.0,3044248.0,0.0
1579355923179,3270993.0,3065352.0,0.0
1579355923220,3275964.0,3072863.0,0.0
1579355923273,3282206.0,3082784.0,0.0
1579355923322,3288439.0,3091045.0,0.0
1579355923370,3292365.0,3088904.0,0.0
1579355923420,3302499.0,3103382.0,0.0
1579355923467,3319633.0,3125977.0,0.0
1579355923519,3338731.0,3155187.0,0.0
1579355923562,3329277.0,3139102.0,0.0
1579355923614,3264193.0,3048868.0,0.0
1579355923665,3226644.0,2994866.0,0.0
1579355923711,3224978.0,2990766.0,0.0
1579355923760,3241146.0,3008597.0,0.0
1579355923802,3257478.0,3035398.0,0.0
1579355923859,3260101.0,3034932.0,0.0
1579355923904,3263780.0,3046588.0,0.0
1579355923955,3270879.0,3059760.0,0.0
1579355924004,3277387.0,3063379.0,0.0
1579355924044,3290315.0,3080482.0,0.0
1579355924102,3309482.0,3106710.0,0.0
1579355924143,3330860.0,3143102.0,0.0
1579355924200,3338626.0,3155740.0,0.0
1579355924246,3279201.0,3079533.0,0.0
1579355924289,3222032.0,3005651.0,0.0
1579355924343,3212570.0,2990896.0,0.0
1579355924392,3225573.0,3010027.0,0.0
1579355924441,3236282.0,3030074.0,0.0
1579355924482,3239090.0,3031964.0,0.0
1579355924539,3237827.0,3032025.0,0.0
1579355924588,3234952.0,3034183.0,0.0
1579355924637,3227731.0,3030916.0,0.0
1579355924676,3230531.0,3032470.0,0.0
1579355924731,3244619.0,3048165.0,0.0
1579355924779,3257386.0,3071524.0,0.0
1579355924823,3273892.0,3092376.0,0.0
1579355924880,3261157.0,3080198.0,0.0
1579355924924,3199628.0,2993491.0,0.0
1579355924976,3169767.0,2946525.0,0.0
1579355925023,3172559.0,2947161.0,0.0
1579355925070,3187888.0,2961548.0,0.0
1579355925122,3203208.0,2983929.0,0.0
1579355925164,3217021.0,3007036.0,0.0
1579355925211,3220150.0,3012689.0,0.0
1579355925263,3216792.0,3013906.0,0.0
1579355925311,3228672.0,3031582.0,0.0
1579355925359,3247120.0,3060701.0,0.0
1579355925408,3265639.0,3091244.0,0.0
1579355925453,3285739.0,3118205.0,0.0
1579355925506,3304510.0,3145689.0,0.0
1579355925559,3288730.0,3124929.0,0.0
1579355925607,3228909.0,3053848.0,0.0
1579355925655,3196844.0,3012719.0,0.0
1579355925704,3197273.0,3009491.0,0.0
1579355925746,3210414.0,3028981.0,0.0
1579355925801,3229795.0,3058330.0,0.0
1579355925845,3226270.0,3056363.0,0.0
1579355925900,3204792.0,3030083.0,0.0
1579355925947,3204087.0,3026304.0,0.0
1579355925994,3219943.0,3050199.0,0.0
1579355926044,3235815.0,3073261.0,0.0
1579355926086,3251687.0,3092689.0,0.0
1579355926142,3261982.0,3108851.0,0.0
1579355926186,3244383.0,3084834.0,0.0
1579355926239,3166746.0,2985711.0,0.0
1579355926288,3122259.0,2921437.0,0.0
1579355926335,3116913.0,2907930.0,0.0
1579355926384,3131507.0,2933798.0,0.0
1579355926426,3163993.0,2981955.0,0.0
1579355926481,3177356.0,2998515.0,0.0
1579355926526,3162599.0,2985014.0,0.0
1579355926579,3171311.0,2994545.0,0.0
1579355926627,3192279.0,3024024.0,0.0
1579355926674,3212791.0,3052357.0,0.0
1579355926724,3226124.0,3071073.0,0.0
1579355926766,3242363.0,3092191.0,0.0
1579355926822,3257646.0,3117326.0,0.0
1579355926866,3221329.0,3070506.0,0.0
1579355926920,3158462.0,2984389.0,0.0
1579355926968,3132769.0,2944912.0,0.0
1579355927014,3129059.0,2943451.0,0.0
1579355927064,3143730.0,2975851.0,0.0
1579355927106,3159572.0,2998225.0,0.0
1579355927163,3148113.0,2984840.0,0.0
1579355927207,3138056.0,2971782.0,0.0
1579355927258,3144785.0,2978673.0,0.0
1579355927308,3163387.0,3004350.0,0.0
1579355927354,3183963.0,3031820.0,0.0
1579355927406,3201212.0,3056548.0,0.0
1579355927446,3216365.0,3081744.0,0.0
1579355927494,3227822.0,3094822.0,0.0
1579355927548,3182892.0,3033502.0,0.0
1579355927599,3119193.0,2945393.0,0.0
1579355927649,3092360.0,2910110.0,0.0
1579355927696,3100842.0,2921506.0,0.0
1579355927745,3128196.0,2963368.0,0.0
1579355927786,3149665.0,2994423.0,0.0
1579355927843,3147869.0,2994606.0,0.0
1579355927889,3148198.0,2997536.0,0.0
1579355927939,3161514.0,3010921.0,0.0
1579355927988,3178930.0,3038565.0,0.0
1579355928033,3194457.0,3061122.0,0.0
1579355928088,3212730.0,3087618.0,0.0
1579355928128,3230025.0,3113372.0,0.0
1579355928183,3247977.0,3137893.0,0.0
1579355928229,3217505.0,3093690.0,0.0
1579355928279,3155900.0,3015151.0,0.0
1579355928328,3127637.0,2973549.0,0.0
1579355928374,3133978.0,2982668.0,0.0
1579355928425,3155937.0,3013262.0,0.0
1579355928467,3168436.0,3025202.0,0.0
1579355928523,3166563.0,3018908.0,0.0
1579355928569,3169430.0,3022333.0,0.0
1579355928620,3178136.0,3029961.0,0.0
1579355928660,3187023.0,3041962.0,0.0
1579355928716,3201204.0,3063982.0,0.0
1579355928759,3212088.0,3082057.0,0.0
1579355928807,3217887.0,3090746.0,0.0
1579355928863,3210995.0,3079318.0,0.0
1579355928909,3150049.0,2997002.0,0.0
1579355928958,3102388.0,2932252.0,0.0
1579355929009,3108935.0,2936421.0,0.0
1579355929050,3125609.0,2959002.0,0.0
1579355929107,3140817.0,2975561.0,0.0
1579355929149,3148259.0,2988265.0,0.0
1579355929194,3154011.0,2997796.0,0.0
1579355929250,3158676.0,3003969.0,0.0
1579355929299,3170876.0,3020338.0,0.0
1579355929350,3186702.0,3046773.0,0.0
1579355929394,3210298.0,3074484.0,0.0
1579355929446,3226904.0,3100062.0,0.0
1579355929489,3240681.0,3119077.0,0.0
1579355929543,3247695.0,3126779.0,0.0
1579355929590,3197165.0,3057542.0,0.0
1579355929640,3143172.0,2989405.0,0.0
1579355929690,3132869.0,2970711.0,0.0
1579355929732,3138927.0,2975018.0,0.0
1579355929786,3151632.0,2989161.0,0.0
1579355929829,3158974.0,3000565.0,0.0
1579355929883,3159564.0,3000228.0,0.0
1579355929931,3162502.0,3003144.0,0.0
1579355929977,3171151.0,3018134.0,0.0
1579355930028,3191682.0,3042734.0,0.0
1579355930078,3207850.0,3063852.0,0.0
1579355930120,3215746.0,3073001.0,0.0
1579355930169,3228655.0,3092177.0,0.0
1579355930217,3242975.0,3110265.0,0.0
1579355930268,3224649.0,3089064.0,0.0
1579355930315,3178357.0,3029753.0,0.0
1579355930363,3157721.0,2994805.0,0.0
1579355930412,3164856.0,3002837.0,0.0
1579355930461,3188545.0,3033226.0,0.0
1579355930511,3211737.0,3066896.0,0.0
1579355930557,3214368.0,3071516.0,0.0
1579355930610,3211767.0,3069214.0,0.0
1579355930655,3222538.0,3085576.0,0.0
1579355930703,3243595.0,3113677.0,0.0
1579355930753,3259536.0,3139002.0,0.0
1579355930801,3275505.0,3160573.0,0.0
1579355930850,3291989.0,3182793.0,0.0
1579355930897,3304007.0,3201312.0,0.0
1579355930949,3277710.0,3166210.0,0.0
1579355930995,3222078.0,3094357.0,0.0
1579355931044,3194290.0,3052678.0,0.0
1579355931095,3194780.0,3051469.0,0.0
1579355931142,3215477.0,3077627.0,0.0
1579355931194,3229444.0,3095497.0,0.0
1579355931244,3224419.0,3090830.0,0.0
1579355931294,3220120.0,3085200.0,0.0
1579355931340,3225734.0,3100422.0,0.0
1579355931382,3236811.0,3109172.0,0.0
1579355931432,3247770.0,3124347.0,0.0
1579355931479,3253538.0,3134598.0,0.0
1579355931532,3264837.0,3150201.0,0.0
1579355931578,3285709.0,3181616.0,0.0
1579355931628,3257295.0,3144793.0,0.0
1579355931675,3189709.0,3055522.0,0.0
1579355931722,3167106.0,3020239.0,0.0
1579355931779,3180499.0,3035146.0,0.0
1579355931828,3204043.0,3069551.0,0.0
1579355931873,3211745.0,3082187.0,0.0
1579355931923,3206773.0,3077727.0,0.0
1579355931974,3210605.0,3082615.0,0.0
1579355932019,3221558.0,3102120.0,0.0
1579355932071,3243725.0,3132080.0,0.0
1579355932112,3255680.0,3153284.0,0.0
1579355932160,3266848.0,3168879.0,0.0
1579355932216,3281273.0,3191444.0,0.0
1579355932261,3299929.0,3219240.0,0.0
1579355932312,3265907.0,3172605.0,0.0
1579355932355,3193984.0,3076557.0,0.0
1579355932412,3165553.0,3033195.0,0.0
1579355932455,3173569.0,3041418.0,0.0
1579355932507,3189363.0,3065329.0,0.0
1579355932557,3198466.0,3077597.0,0.0
1579355932599,3196117.0,3073123.0,0.0
1579355932656,3193839.0,3073751.0,0.0
1579355932695,3198886.0,3079708.0,0.0
1579355932751,3206475.0,3093256.0,0.0
1579355932795,3221398.0,3105952.0,0.0
1579355932842,3234799.0,3127767.0,0.0
1579355932896,3262740.0,3170984.0,0.0
1579355932942,3292487.0,3210315.0,0.0
1579355932991,3294025.0,3214468.0,0.0
1579355933037,3241943.0,3140656.0,0.0
1579355933096,3205802.0,3084696.0,0.0
1579355933134,3200272.0,3075057.0,0.0
1579355933189,3212418.0,3094050.0,0.0
1579355933235,3232550.0,3122566.0,0.0
1579355933282,3243641.0,3137572.0,0.0
1579355933333,3239304.0,3133350.0,0.0
1579355933375,3237973.0,3130498.0,0.0
1579355933432,3248879.0,3148320.0,0.0
1579355933477,3261226.0,3164519.0,0.0
1579355933529,3274244.0,3183473.0,0.0
1579355933576,3292027.0,3210666.0,0.0
1579355933623,3295538.0,3219937.0,0.0
1579355933672,3269648.0,3182563.0,0.0
1579355933721,3195790.0,3085133.0,0.0
1579355933766,3158997.0,3031131.0,0.0
1579355933816,3157353.0,3028331.0,0.0
1579355933870,3172689.0,3055087.0,0.0
1579355933916,3184422.0,3073850.0,0.0
1579355933963,3176307.0,3063645.0,0.0
1579355934011,3168574.0,3053220.0,0.0
1579355934055,3171197.0,3056640.0,0.0
1579355934115,3180980.0,3066140.0,0.0
1579355934153,3200883.0,3092819.0,0.0
1579355934209,3231065.0,3137503.0,0.0
1579355934257,3252124.0,3165850.0,0.0
1579355934303,3259962.0,3173867.0,0.0
1579355934352,3235380.0,3143102.0,0.0
1579355934401,3176460.0,3060817.0,0.0
1579355934454,3142247.0,3018839.0,0.0
1579355934494,3150354.0,3023360.0,0.0
1579355934549,3162164.0,3044234.0,0.0
1579355934600,3172866.0,3063570.0,0.0
1579355934644,3170304.0,3060372.0,0.0
1579355934687,3168873.0,3056426.0,0.0
1579355934736,3173469.0,3059362.0,0.0
1579355934787,3184621.0,3076872.0,0.0
1579355934836,3208096.0,3113801.0,0.0
1579355934890,3234891.0,3145144.0,0.0
1579355934941,3239962.0,3153084.0,0.0
1579355934987,3243672.0,3156947.0,0.0
1579355935031,3232365.0,3142192.0,0.0
1579355935081,3170348.0,3056341.0,0.0
1579355935126,3133328.0,3004588.0,0.0
1579355935174,3134772.0,3001077.0,0.0
1579355935230,3149206.0,3022425.0,0.0
1579355935281,3151961.0,3029510.0,0.0
1579355935325,3143011.0,3014631.0,0.0
1579355935372,3132348.0,2996894.0,0.0
1579355935417,3132074.0,2997688.0,0.0
1579355935474,3152105.0,3025424.0,0.0
1579355935515,3176712.0,3066193.0,0.0
1579355935569,3201357.0,3098280.0,0.0
1579355935620,3213917.0,3118717.0,0.0
1579355935667,3232481.0,3145153.0,0.0
1579355935712,3215829.0,3118864.0,0.0
1579355935758,3159777.0,3043783.0,0.0
1579355935813,3137649.0,3011082.0,0.0
1579355935854,3144740.0,3021027.0,0.0
1579355935908,3166409.0,3049748.0,0.0
1579355935958,3181838.0,3067578.0,0.0
1579355936009,3182602.0,3062353.0,0.0
1579355936052,3169783.0,3047675.0,0.0
1579355936104,3172030.0,3055087.0,0.0
1579355936155,3192163.0,3079218.0,0.0
1579355936196,3198695.0,3086577.0,0.0
1579355936251,3206887.0,3094617.0,0.0
1579355936299,3219027.0,3118742.0,0.0
1579355936347,3212074.0,3106228.0,0.0
1579355936394,3150959.0,3021960.0,0.0
1579355936437,3118665.0,2985886.0,0.0
1579355936489,3127293.0,2983424.0,0.0
1579355936536,3144212.0,3003219.0,0.0
1579355936585,3150354.0,3011151.0,0.0
1579355936638,3145374.0,3002790.0,0.0
1579355936683,3141558.0,2992091.0,0.0
1579355936732,3155541.0,3012282.0,0.0
1579355936779,3183473.0,3051347.0,0.0
1579355936829,3201334.0,3071762.0,0.0
1579355936875,3209504.0,3085484.0,0.0
1579355936931,3219478.0,3102724.0,0.0
1579355936978,3229070.0,3115765.0,0.0
1579355937029,3184843.0,3054927.0,0.0
1579355937076,3131385.0,2977381.0,0.0
1579355937121,3117502.0,2956025.0,0.0
1579355937172,3129136.0,2968616.0,0.0
1579355937213,3147792.0,2995403.0,0.0
1579355937263,3155411.0,3007319.0,0.0
1579355937311,3150799.0,2999296.0,0.0
1579355937360,3150951.0,3000513.0,0.0
1579355937410,3167219.0,3022228.0,0.0
1579355937462,3188179.0,3045579.0,0.0
1579355937513,3196233.0,3051936.0,0.0
1579355937561,3202748.0,3062162.0,0.0
1579355937609,3218805.0,3078363.0,0.0
1579355937659,3234324.0,3103374.0,0.0
1579355937709,3192905.0,3045404.0,0.0
1579355937754,3138247.0,2968990.0,0.0
1579355937801,3124142.0,2945922.0,0.0
1579355937852,3133297.0,2953242.0,0.0
1579355937902,3140922.0,2965036.0,0.0
1579355937952,3141971.0,2962909.0,0.0
1579355938000,3137978.0,2953516.0,0.0
1579355938048,3149612.0,2968821.0,0.0
1579355938098,3172644.0,3002049.0,0.0
1579355938139,3187955.0,3021362.0,0.0
1579355938192,3196416.0,3036141.0,0.0
1579355938237,3214827.0,3058360.0,0.0
1579355938293,3234996.0,3087274.0,0.0
1579355938342,3230254.0,3075013.0,0.0
1579355938390,3171388.0,3000604.0,0.0
1579355938436,3140380.0,2955918.0,0.0
1579355938483,3144649.0,2959437.0,0.0
1579355938532,3163083.0,2982391.0,0.0
1579355938582,3181448.0,3007770.0,0.0
1579355938632,3192492.0,3019940.0,0.0
1579355938681,3208478.0,3044087.0,0.0
1579355938730,3234025.0,3078056.0,0.0
1579355938779,3260928.0,3106588.0,0.0
1579355938825,3268049.0,3112836.0,0.0
1579355938872,3273441.0,3123315.0,0.0
1579355938917,3283124.0,3139677.0,0.0
1579355938974,3288860.0,3140922.0,0.0
1579355939022,3217052.0,3047415.0,0.0
1579355939068,3159174.0,2965839.0,0.0
1579355939118,3150431.0,2946196.0,0.0
1579355939159,3155525.0,2947573.0,0.0
1579355939214,3164527.0,2959813.0,0.0
1579355939259,3165889.0,2958573.0,0.0
1579355939314,3167166.0,2954703.0,0.0
1579355939361,3180186.0,2973970.0,0.0
1579355939408,3203232.0,3005147.0,0.0
1579355939458,3216280.0,3019971.0,0.0
1579355939500,3226170.0,3034481.0,0.0
1579355939554,3246234.0,3064311.0,0.0
1579355939603,3266633.0,3093109.0,0.0
1579355939652,3276285.0,3108171.0,0.0
1579355939697,3229803.0,3043116.0,0.0
1579355939751,3187543.0,2982674.0,0.0
1579355939800,3183213.0,2970957.0,0.0
1579355939848,3201907.0,2991953.0,0.0
1579355939894,3249745.0,3049081.0,0.0
1579355939942,3314606.0,3139998.0,0.0
1579355939993,3361777.0,3204983.0,0.0
1579355940035,3391219.0,3231402.0,0.0
1579355940083,3403396.0,3237790.0,0.0
1579355940133,3415015.0,3260820.0,0.0
1579355940185,3429654.0,3286735.0,0.0
1579355940236,3436860.0,3292050.0,0.0
1579355940282,3438191.0,3294965.0,0.0
1579355940331,3443468.0,3304878.0,0.0
1579355940382,3405598.0,3250379.0,0.0
1579355940429,3332888.0,3148013.0,0.0
1579355940481,3300358.0,3091435.0,0.0
1579355940520,3301221.0,3087831.0,0.0
1579355940578,3315013.0,3102203.0,0.0
1579355940621,3349562.0,3150882.0,0.0
1579355940674,3368677.0,3179672.0,0.0
1579355940722,3364608.0,3168705.0,0.0
1579355940770,3355859.0,3162684.0,0.0
1579355940821,3364768.0,3175580.0,0.0
1579355940869,3377145.0,3196928.0,0.0
1579355940917,3392412.0,3220012.0,0.0
1579355940960,3407449.0,3239610.0,0.0
1579355941014,3416194.0,3257325.0,0.0
1579355941063,3396213.0,3224450.0,0.0
1579355941115,3342931.0,3151646.0,0.0
1579355941161,3321085.0,3110916.0,0.0
1579355941202,3325147.0,3112202.0,0.0
1579355941260,3339198.0,3133450.0,0.0
1579355941300,3365418.0,3169607.0,0.0
1579355941354,3366322.0,3165919.0,0.0
1579355941403,3352622.0,3152871.0,0.0
1579355941446,3353463.0,3153666.0,0.0
1579355941495,3368066.0,3172536.0,0.0
1579355941541,3384098.0,3195467.0,0.0
1579355941594,3394653.0,3213312.0,0.0
1579355941641,3401630.0,3232006.0,0.0
1579355941690,3412130.0,3246104.0,0.0
1579355941739,3365418.0,3179727.0,0.0
1579355941788,3298391.0,3091427.0,0.0
1579355941836,3267283.0,3051040.0,0.0
1579355941885,3272874.0,3059707.0,0.0
1579355941939,3296058.0,3099237.0,0.0
1579355941982,3308182.0,3121127.0,0.0
1579355942034,3300510.0,3111820.0,0.0
1579355942084,3297306.0,3114932.0,0.0
1579355942134,3308978.0,3135553.0,0.0
1579355942181,3324131.0,3161008.0,0.0
1579355942222,3338930.0,3184599.0,0.0
1579355942279,3357196.0,3213939.0,0.0
1579355942321,3374254.0,3243227.0,0.0
1579355942369,3390943.0,3272185.0,0.0
1579355942425,3370827.0,3246012.0,0.0
1579355942467,3298460.0,3158767.0,0.0
1579355942523,3268315.0,3125993.0,0.0
1579355942562,3278734.0,3143387.0,0.0
1579355942620,3297290.0,3169324.0,0.0
1579355942665,3308948.0,3188132.0,0.0
1579355942718,3303210.0,3189831.0,0.0
1579355942764,3296241.0,3185517.0,0.0
1579355942812,3295347.0,3188920.0,0.0
1579355942855,3299332.0,3200554.0,0.0
1579355942906,3312680.0,3219401.0,0.0
1579355942957,3316512.0,3229758.0,0.0
1579355943002,3323036.0,3243182.0,0.0
1579355943059,3335129.0,3254395.0,0.0
1579355943107,3293496.0,3206842.0,0.0
1579355943149,3251006.0,3160198.0,0.0
1579355943203,3243564.0,3153292.0,0.0
1579355943246,3245553.0,3157766.0,0.0
1579355943302,3254479.0,3175840.0,0.0
1579355943342,3271712.0,3200814.0,0.0
1579355943400,3274213.0,3213618.0,0.0
1579355943446,3274489.0,3217826.0,0.0
1579355943496,3277403.0,3233405.0,0.0
1579355943544,3297572.0,3254739.0,0.0
1579355943591,3320634.0,3287269.0,0.0
1579355943642,3339298.0,3311815.0,0.0
1579355943683,3347750.0,3328359.0,0.0
1579355943740,3316520.0,3287950.0,0.0
1579355943786,3273984.0,3240657.0,0.0
1579355943836,3261118.0,3222590.0,0.0
1579355943885,3265647.0,3222009.0,0.0
1579355943930,3277907.0,3238645.0,0.0
1579355943983,3286489.0,3252475.0,0.0
1579355944023,3280761.0,3247900.0,0.0
1579355944072,3273295.0,3241667.0,0.0
1579355944128,3276930.0,3250210.0,0.0
1579355944177,3286873.0,3265418.0,0.0
1579355944224,3297909.0,3279782.0,0.0
1579355944273,3304549.0,3287623.0,0.0
1579355944322,3292019.0,3267919.0,0.0
1579355944365,3239602.0,3205548.0,0.0
1579355944421,3221888.0,3181708.0,0.0
1579355944466,3231709.0,3190871.0,0.0
1579355944516,3235350.0,3197251.0,0.0
1579355944564,3249920.0,3215110.0,0.0
1579355944606,3253554.0,3223233.0,0.0
1579355944655,3250846.0,3222674.0,0.0
1579355944703,3254609.0,3228962.0,0.0
1579355944759,3266671.0,3245988.0,0.0
1579355944808,3284906.0,3274244.0,0.0
1579355944851,3306018.0,3306837.0,0.0
1579355944906,3324474.0,3329538.0,0.0
1579355944954,3318011.0,3324773.0,0.0
1579355945003,3261990.0,3251159.0,0.0
1579355945043,3243312.0,3223899.0,0.0
1579355945091,3277976.0,3262687.0,0.0
1579355945144,3335159.0,3330058.0,0.0
1579355945189,3383218.0,3393261.0,0.0
1579355945245,3415834.0,3438665.0,0.0
1579355945292,3423902.0,3455707.0,0.0
1579355945342,3415115.0,3445946.0,0.0
1579355945386,3404344.0,3435536.0,0.0
1579355945441,3398836.0,3432124.0,0.0
1579355945488,3396169.0,3429432.0,0.0
1579355945538,3396321.0,3432118.0,0.0
1579355945586,3423069.0,3455301.0,0.0
1579355945628,3450880.0,3491419.0,0.0
1579355945684,3485736.0,3536924.0,0.0
1579355945726,3531983.0,3595444.0,0.0
1579355945780,3587750.0,3653469.0,0.0
1579355945830,3639832.0,3709521.0,0.0
1579355945878,3669227.0,3751482.0,0.0
1579355945919,3690162.0,3757610.0,0.0
1579355945967,3688295.0,3747285.0,0.0
1579355946023,3728881.0,3782026.0,0.0
1579355946068,3774529.0,3829518.0,0.0
1579355946123,3794356.0,3849756.0,0.0
1579355946170,3805830.0,3861054.0,0.0
1579355946217,3795297.0,3841672.0,0.0
1579355946266,3742549.0,3757060.0,0.0
1579355946307,3692005.0,3687653.0,0.0
1579355946364,3672578.0,3658296.0,0.0
1579355946408,3663650.0,3646862.0,0.0
1579355946454,3661945.0,3646187.0,0.0
1579355946509,3644734.0,3628580.0,0.0
1579355946556,3617926.0,3586098.0,0.0
1579355946606,3574395.0,3533328.0,0.0
1579355946647,3555862.0,3519575.0,0.0
1579355946703,3556490.0,3527446.0,0.0
1579355946751,3554622.0,3529872.0,0.0
1579355946792,3559395.0,3540679.0,0.0
1579355946849,3513618.0,3473154.0,0.0
1579355946892,3444311.0,3372127.0,0.0
1579355946937,3414326.0,3331618.0,0.0
1579355946989,3409017.0,3319862.0,0.0
1579355947035,3401276.0,3312780.0,0.0
1579355947090,3405484.0,3317306.0,0.0
1579355947135,3399005.0,3309200.0,0.0
1579355947184,3386140.0,3295018.0,0.0
1579355947230,3381245.0,3296012.0,0.0
1579355947279,3398119.0,3317912.0,0.0
1579355947329,3407993.0,3336185.0,0.0
1579355947382,3420775.0,3359254.0,0.0
1579355947430,3428699.0,3373350.0,0.0
1579355947479,3378369.0,3304173.0,0.0
1579355947529,3316551.0,3220510.0,0.0
1579355947575,3295240.0,3194327.0,0.0
1579355947627,3295776.0,3192194.0,0.0
1579355947668,3296111.0,3198894.0,0.0
1579355947723,3300878.0,3205526.0,0.0
1579355947771,3301481.0,3207438.0,0.0
1579355947821,3292005.0,3197334.0,0.0
1579355947863,3286956.0,3194213.0,0.0
1579355947917,3299417.0,3208049.0,0.0
1579355947967,3310699.0,3226231.0,0.0
1579355948009,3322211.0,3243188.0,0.0
1579355948064,3330899.0,3258242.0,0.0
1579355948111,3286918.0,3195306.0,0.0
1579355948155,3230691.0,3115383.0,0.0
1579355948209,3220762.0,3096598.0,0.0
1579355948251,3236803.0,3120333.0,0.0
1579355948307,3248207.0,3138582.0,0.0
1579355948350,3249255.0,3143669.0,0.0
1579355948402,3250724.0,3142934.0,0.0
1579355948451,3251344.0,3142897.0,0.0
1579355948499,3253591.0,3150943.0,0.0
1579355948550,3263329.0,3162112.0,0.0
1579355948591,3278327.0,3185042.0,0.0
1579355948647,3295914.0,3212418.0,0.0
1579355948691,3308984.0,3231701.0,0.0
1579355948743,3266358.0,3169125.0,0.0
1579355948792,3206582.0,3083509.0,0.0
1579355948841,3183681.0,3054636.0,0.0
1579355948889,3193585.0,3071164.0,0.0
1579355948931,3212066.0,3094922.0,0.0
1579355948987,3207009.0,3089491.0,0.0
1579355949032,3193281.0,3068259.0,0.0
1579355949084,3190243.0,3061107.0,0.0
1579355949136,3198405.0,3073605.0,0.0
1579355949175,3214514.0,3093875.0,0.0
1579355949231,3230155.0,3114296.0,0.0
1579355949271,3245423.0,3133848.0,0.0
1579355949327,3233405.0,3113220.0,0.0
1579355949372,3157865.0,3009714.0,0.0
1579355949422,3107191.0,2938693.0,0.0
1579355949475,3114061.0,2950036.0,0.0
1579355949520,3139470.0,2988976.0,0.0
1579355949570,3152725.0,3006616.0,0.0
1579355949611,3143982.0,2997101.0,0.0
1579355949659,3145772.0,3002179.0,0.0
1579355949712,3159724.0,3020009.0,0.0
1579355949758,3185470.0,3050658.0,0.0
1579355949814,3211845.0,3086876.0,0.0
1579355949856,3232916.0,3121349.0,0.0
1579355949911,3252345.0,3152091.0,0.0
1579355949954,3262151.0,3169584.0,0.0
1579355950005,3208240.0,3092390.0,0.0
1579355950056,3133106.0,2985880.0,0.0
1579355950101,3122909.0,2966948.0,0.0
1579355950155,3181876.0,3037899.0,0.0
1579355950194,3226118.0,3101630.0,0.0
1579355950251,3233115.0,3114504.0,0.0
1579355950293,3221069.0,3099780.0,0.0
1579355950347,3215217.0,3088475.0,0.0
1579355950395,3216457.0,3094150.0,0.0
1579355950440,3224580.0,3106893.0,0.0
1579355950485,3238018.0,3125443.0,0.0
1579355950534,3249239.0,3137076.0,0.0
1579355950591,3259022.0,3151654.0,0.0
1579355950633,3261952.0,3150331.0,0.0
1579355950679,3206544.0,3066682.0,0.0
1579355950737,3169828.0,3009690.0,0.0
1579355950784,3176246.0,3018784.0,0.0
1579355950834,3196797.0,3043813.0,0.0
1579355950881,3207247.0,3056487.0,0.0
1579355950931,3209213.0,3057702.0,0.0
1579355950974,3209120.0,3059943.0,0.0
1579355951027,3216426.0,3071416.0,0.0
1579355951076,3229009.0,3089745.0,0.0
1579355951118,3250104.0,3117265.0,0.0
1579355951167,3265944.0,3142928.0,0.0
1579355951214,3287927.0,3174058.0,0.0
1579355951265,3301115.0,3193914.0,0.0
1579355951312,3263282.0,3134421.0,0.0
1579355951361,3205296.0,3049488.0,0.0
1579355951415,3191100.0,3026259.0,0.0
1579355951458,3202795.0,3039299.0,0.0
1579355951508,3215859.0,3054988.0,0.0
1579355951555,3223332.0,3063302.0,0.0
1579355951604,3230829.0,3069214.0,0.0
1579355951651,3232650.0,3072274.0,0.0
1579355951701,3237743.0,3081163.0,0.0
1579355951754,3254296.0,3103053.0,0.0
1579355951798,3272216.0,3127767.0,0.0
1579355951848,3287332.0,3149864.0,0.0
1579355951896,3295845.0,3165598.0,0.0
1579355951944,3288309.0,3154852.0,0.0
1579355951991,3232589.0,3071800.0,0.0
1579355952041,3208149.0,3034686.0,0.0
1579355952092,3217696.0,3042688.0,0.0
1579355952140,3226315.0,3053893.0,0.0
1579355952189,3236612.0,3071967.0,0.0
1579355952237,3251297.0,3088735.0,0.0
1579355952288,3259910.0,3100704.0,0.0
1579355952333,3271590.0,3115268.0,0.0
1579355952389,3287554.0,3139492.0,0.0
1579355952439,3309880.0,3169147.0,0.0
1579355952485,3329454.0,3199934.0,0.0
1579355952532,3350893.0,3230531.0,0.0
1579355952580,3372578.0,3257508.0,0.0
1579355952634,3413737.0,3311242.0,0.0
1579355952674,3436271.0,3348110.0,0.0
1579355952730,3424629.0,3331397.0,0.0
1579355952778,3408887.0,3296089.0,0.0
1579355952827,3398615.0,3278535.0,0.0
1579355952871,3404452.0,3287139.0,0.0
1579355952922,3403473.0,3284967.0,0.0
1579355952973,3386798.0,3263374.0,0.0
1579355953015,3378805.0,3253026.0,0.0
1579355953070,3381512.0,3258991.0,0.0
1579355953119,3387999.0,3267177.0,0.0
1579355953160,3391900.0,3272730.0,0.0
1579355953214,3397361.0,3279185.0,0.0
1579355953260,3401843.0,3285963.0,0.0
1579355953313,3415314.0,3306577.0,0.0
1579355953354,3376564.0,3257569.0,0.0
1579355953410,3321622.0,3182884.0,0.0
1579355953460,3301993.0,3158087.0,0.0
1579355953506,3315663.0,3176559.0,0.0
1579355953552,3337278.0,3207324.0,0.0
1579355953600,3345523.0,3226721.0,0.0
1579355953653,3341860.0,3223064.0,0.0
1579355953695,3340422.0,3224098.0,0.0
1579355953749,3347474.0,3242892.0,0.0
1579355953797,3362596.0,3266082.0,0.0
1579355953847,3375997.0,3284463.0,0.0
1579355953892,3383172.0,3297466.0,0.0
1579355953937,3399564.0,3326173.0,0.0
1579355953992,3426037.0,3359331.0,0.0
1579355954036,3372503.0,3294031.0,0.0
1579355954090,3292647.0,3202076.0,0.0
1579355954140,3264989.0,3164474.0,0.0
1579355954187,3265019.0,3165797.0,0.0
1579355954231,3268774.0,3177171.0,0.0
1579355954283,3267559.0,3180919.0,0.0
1579355954331,3256521.0,3168420.0,0.0
1579355954377,3247908.0,3155456.0,0.0
1579355954430,3246256.0,3155701.0,0.0
1579355954476,3247189.0,3158408.0,0.0
1579355954527,3265899.0,3183459.0,0.0
1579355954573,3336047.0,3271980.0,0.0
1579355954617,3399694.0,3364256.0,0.0
1579355954674,3438856.0,3413463.0,0.0
1579355954718,3431444.0,3408038.0,0.0
1579355954761,3352240.0,3314393.0,0.0
1579355954817,3294980.0,3254105.0,0.0
1579355954860,3284165.0,3245133.0,0.0
1579355954912,3292724.0,3258365.0,0.0
1579355954957,3303401.0,3274971.0,0.0
1579355955012,3303348.0,3279177.0,0.0
1579355955058,3292777.0,3271858.0,0.0
1579355955110,3278167.0,3257768.0,0.0
1579355955157,3280264.0,3259627.0,0.0
1579355955206,3299837.0,3286566.0,0.0
1579355955252,3317674.0,3311746.0,0.0
1579355955296,3326929.0,3323702.0,0.0
1579355955354,3331756.0,3331740.0,0.0
1579355955396,3334891.0,3335497.0,0.0
1579355955450,3272752.0,3263796.0,0.0
1579355955496,3221841.0,3197486.0,0.0
1579355955540,3210857.0,3180576.0,0.0
1579355955587,3225681.0,3194855.0,0.0
1579355955635,3239547.0,3210774.0,0.0
1579355955686,3238767.0,3208990.0,0.0
1579355955737,3229015.0,3197257.0,0.0
1579355955784,3243595.0,3213748.0,0.0
1579355955834,3291591.0,3276233.0,0.0
1579355955881,3323771.0,3314484.0,0.0
1579355955931,3333499.0,3325683.0,0.0
1579355955977,3334930.0,3336161.0,0.0
1579355956032,3347307.0,3353823.0,0.0
1579355956082,3320864.0,3323503.0,0.0
1579355956130,3246677.0,3236847.0,0.0
1579355956179,3204569.0,3185722.0,0.0
1579355956217,3206779.0,3185379.0,0.0
1579355956273,3226010.0,3209404.0,0.0
1579355956322,3249584.0,3238767.0,0.0
1579355956374,3255596.0,3244812.0,0.0
1579355956421,3248046.0,3233889.0,0.0
1579355956470,3253134.0,3247175.0,0.0
1579355956517,3270954.0,3268384.0,0.0
1579355956565,3282574.0,3277472.0,0.0
1579355956612,3284463.0,3282551.0,0.0
1579355956657,3293765.0,3298958.0,0.0
1579355956713,3302842.0,3316297.0,0.0
1579355956760,3233223.0,3223348.0,0.0
1579355956808,3169078.0,3140884.0,0.0
1579355956857,3160222.0,3117312.0,0.0
1579355956904,3168000.0,3122198.0,0.0
1579355956952,3180009.0,3138681.0,0.0
1579355956999,3180797.0,3136700.0,0.0
1579355957052,3178012.0,3126536.0,0.0
1579355957100,3188821.0,3142668.0,0.0
1579355957148,3212954.0,3171435.0,0.0
1579355957198,3229214.0,3192576.0,0.0
1579355957239,3241705.0,3212791.0,0.0
1579355957293,3260017.0,3238830.0,0.0
1579355957341,3281403.0,3267390.0,0.0
1579355957393,3285022.0,3270664.0,0.0
1579355957441,3231616.0,3202696.0,0.0
1579355957483,3195926.0,3154692.0,0.0
1579355957538,3193793.0,3149001.0,0.0
1579355957578,3201556.0,3159885.0,0.0
1579355957627,3209114.0,3169989.0,0.0
1579355957678,3228879.0,3192622.0,0.0
1579355957723,3263053.0,3231685.0,0.0
1579355957780,3284547.0,3249347.0,0.0
1579355957825,3290880.0,3253898.0,0.0
1579355957871,3300892.0,3265050.0,0.0
1579355957918,3310614.0,3280684.0,0.0
1579355957973,3320756.0,3296501.0,0.0
1579355958020,3330854.0,3314216.0,0.0
1579355958069,3302560.0,3274091.0,0.0
1579355958120,3229665.0,3175480.0,0.0
1579355958159,3194833.0,3118466.0,0.0
1579355958218,3195605.0,3110564.0,0.0
1579355958259,3212188.0,3127698.0,0.0
1579355958313,3238286.0,3167695.0,0.0
1579355958362,3250494.0,3181293.0,0.0
1579355958410,3234836.0,3159785.0,0.0
1579355958460,3227517.0,3145207.0,0.0
1579355958501,3240972.0,3163725.0,0.0
1579355958558,3265517.0,3195261.0,0.0
1579355958599,3288074.0,3224074.0,0.0
1579355958654,3305467.0,3247908.0,0.0
1579355958698,3314653.0,3261249.0,0.0
1579355958743,3261279.0,3192569.0,0.0
1579355958796,3214360.0,3124477.0,0.0
1579355958840,3202084.0,3096315.0,0.0
1579355958891,3209020.0,3101301.0,0.0
1579355958941,3226024.0,3131560.0,0.0
1579355958993,3245116.0,3147753.0,0.0
1579355959043,3231073.0,3128005.0,0.0
1579355959089,3226339.0,3116147.0,0.0
1579355959140,3227194.0,3119483.0,0.0
1579355959180,3238241.0,3140817.0,0.0
1579355959238,3254725.0,3160358.0,0.0
1579355959284,3265761.0,3172788.0,0.0
1579355959332,3275782.0,3180613.0,0.0
1579355959382,3267031.0,3162959.0,0.0
1579355959430,3201885.0,3071203.0,0.0
1579355959480,3153322.0,2991280.0,0.0
1579355959520,3158294.0,2993682.0,0.0
1579355959577,3189272.0,3037525.0,0.0
1579355959624,3208187.0,3059630.0,0.0
1579355959673,3202375.0,3045778.0,0.0
1579355959722,3196210.0,3038787.0,0.0
1579355959764,3204975.0,3049449.0,0.0
1579355959819,3215652.0,3065404.0,0.0
1579355959861,3235059.0,3087863.0,0.0
1579355959919,3249003.0,3112362.0,0.0
1579355959963,3266234.0,3135101.0,0.0
1579355960016,3280371.0,3152451.0,0.0
1579355960061,3295469.0,3170984.0,0.0
1579355960104,3277035.0,3139226.0,0.0
1579355960151,3220693.0,3061520.0,0.0
1579355960201,3190849.0,3017967.0,0.0
1579355960258,3191942.0,3014158.0,0.0
1579355960304,3204049.0,3029953.0,0.0
1579355960351,3217857.0,3048456.0,0.0
1579355960401,3219132.0,3051645.0,0.0
1579355960443,3215286.0,3048890.0,0.0
1579355960499,3222261.0,3055920.0,0.0
1579355960542,3238316.0,3077536.0,0.0
1579355960588,3253416.0,3097102.0,0.0
1579355960636,3259948.0,3106060.0,0.0
1579355960689,3272171.0,3119193.0,0.0
1579355960736,3281481.0,3131729.0,0.0
1579355960785,3299638.0,3160023.0,0.0
1579355960834,3278130.0,3130024.0,0.0
1579355960887,3226024.0,3062123.0,0.0
1579355960937,3206322.0,3034426.0,0.0
1579355960985,3219325.0,3052088.0,0.0
1579355961031,3249859.0,3091059.0,0.0
1579355961074,3264024.0,3113815.0,0.0
1579355961122,3268882.0,3118902.0,0.0
1579355961171,3278504.0,3129311.0,0.0
1579355961223,3293909.0,3148588.0,0.0
1579355961270,3315220.0,3178042.0,0.0
1579355961318,3333950.0,3209006.0,0.0
1579355961367,3346671.0,3232296.0,0.0
1579355961416,3362765.0,3259152.0,0.0
1579355961466,3387211.0,3295010.0,0.0
1579355961517,3346143.0,3249659.0,0.0
1579355961565,3260192.0,3157124.0,0.0
1579355961608,3227127.0,3117968.0,0.0
1579355961663,3237666.0,3126359.0,0.0
1579355961707,3254097.0,3146928.0,0.0
1579355961762,3263733.0,3160543.0,0.0
1579355961803,3255021.0,3156006.0,0.0
1579355961858,3245576.0,3146843.0,0.0
1579355961904,3242906.0,3144334.0,0.0
1579355961954,3258097.0,3165805.0,0.0
1579355962003,3271344.0,3184331.0,0.0
1579355962046,3295101.0,3218590.0,0.0
1579355962102,3318637.0,3256697.0,0.0
1579355962143,3338479.0,3283606.0,0.0
1579355962199,3347161.0,3299707.0,0.0
1579355962247,3313184.0,3270160.0,0.0
1579355962291,3254601.0,3208240.0,0.0
1579355962338,3230951.0,3185739.0,0.0
1579355962387,3235671.0,3193923.0,0.0
1579355962436,3253845.0,3216479.0,0.0
1579355962486,3268782.0,3239503.0,0.0
1579355962539,3267728.0,3246860.0,0.0
1579355962587,3265974.0,3254786.0,0.0
1579355962634,3269709.0,3268124.0,0.0
1579355962683,3287393.0,3286345.0,0.0
1579355962723,3311380.0,3319456.0,0.0
1579355962780,3336039.0,3349449.0,0.0
1579355962828,3345371.0,3367568.0,0.0
1579355962872,3355599.0,3385268.0,0.0
1579355962926,3367897.0,3408674.0,0.0
1579355962973,3319182.0,3367454.0,0.0
1579355963023,3259666.0,3310982.0,0.0
1579355963064,3245675.0,3293488.0,0.0
1579355963121,3256598.0,3302231.0,0.0
1579355963170,3269089.0,3315685.0,0.0
1579355963218,3272600.0,3320994.0,0.0
1579355963266,3268331.0,3319426.0,0.0
1579355963310,3286674.0,3340682.0,0.0
1579355963364,3317790.0,3377887.0,0.0
1579355963405,3340446.0,3402012.0,0.0
1579355963452,3351184.0,3419765.0,0.0
1579355963506,3367009.0,3441946.0,0.0
1579355963555,3381428.0,3466477.0,0.0
1579355963605,3392343.0,3484092.0,0.0
1579355963653,3343116.0,3438971.0,0.0
1579355963695,3284837.0,3384771.0,0.0
1579355963745,3265974.0,3368348.0,0.0
1579355963800,3272354.0,3377184.0,0.0
1579355963849,3290774.0,3396045.0,0.0
1579355963896,3299232.0,3413073.0,0.0
1579355963944,3300656.0,3421600.0,0.0
1579355963987,3294069.0,3417187.0,0.0
1579355964042,3280593.0,3405094.0,0.0
1579355964089,3283927.0,3409568.0,0.0
1579355964139,3304236.0,3433762.0,0.0
1579355964183,3325078.0,3458545.0,0.0
1579355964234,3341456.0,3476360.0,0.0
1579355964285,3341976.0,3479289.0,0.0
1579355964326,3273126.0,3404237.0,0.0
1579355964382,3209474.0,3327963.0,0.0
1579355964429,3192515.0,3299462.0,0.0
1579355964481,3198681.0,3294689.0,0.0
1579355964528,3212739.0,3308810.0,0.0
1579355964568,3232373.0,3331220.0,0.0
1579355964624,3226989.0,3323542.0,0.0
1579355964666,3214177.0,3312702.0,0.0
1579355964722,3223669.0,3324015.0,0.0
1579355964766,3251236.0,3347590.0,0.0
1579355964819,3274556.0,3375386.0,0.0
1579355964867,3292578.0,3399625.0,0.0
1579355964910,3308350.0,3419757.0,0.0
1579355964963,3324917.0,3442184.0,0.0
1579355965007,3291576.0,3409767.0,0.0
1579355965060,3227020.0,3337616.0,0.0
1579355965109,3192155.0,3290810.0,0.0
1579355965156,3199146.0,3294728.0,0.0
1579355965207,3227493.0,3327136.0,0.0
1579355965247,3240864.0,3341440.0,0.0
1579355965304,3223822.0,3322126.0,0.0
1579355965350,3218889.0,3315579.0,0.0
1579355965398,3228135.0,3326035.0,0.0
1579355965450,3244613.0,3340789.0,0.0
1579355965496,3263512.0,3359101.0,0.0
1579355965546,3279514.0,3380181.0,0.0
1579355965588,3293956.0,3393765.0,0.0
1579355965644,3306057.0,3408674.0,0.0
1579355965688,3312611.0,3414861.0,0.0
1579355965735,3268049.0,3359926.0,0.0
1579355965783,3229803.0,3308771.0,0.0
1579355965834,3227142.0,3301260.0,0.0
1579355965878,3238700.0,3309307.0,0.0
1579355965934,3250677.0,3323733.0,0.0
1579355965983,3265692.0,3341096.0,0.0
1579355966030,3270503.0,3345822.0,0.0
1579355966078,3272301.0,3343772.0,0.0
1579355966122,3283139.0,3356730.0,0.0
1579355966173,3299218.0,3376136.0,0.0
1579355966220,3318593.0,3400206.0,0.0
1579355966269,3336070.0,3419857.0,0.0
1579355966313,3347667.0,3435904.0,0.0
1579355966371,3348453.0,3437295.0,0.0
1579355966416,3295325.0,3373596.0,0.0
1579355966468,3250625.0,3313521.0,0.0
1579355966509,3236542.0,3283628.0,0.0
1579355966565,3234736.0,3274993.0,0.0
1579355966610,3250954.0,3290000.0,0.0
1579355966654,3261041.0,3304228.0,0.0
1579355966711,3252498.0,3291477.0,0.0
1579355966754,3244804.0,3277157.0,0.0
1579355966807,3253134.0,3286779.0,0.0
1579355966850,3266557.0,3302347.0,0.0
1579355966903,3275016.0,3312000.0,0.0
1579355966950,3290904.0,3326976.0,0.0
1579355966999,3300922.0,3339146.0,0.0
1579355967051,3306981.0,3345976.0,0.0
1579355967091,3258731.0,3281058.0,0.0
1579355967148,3215546.0,3220496.0,0.0
1579355967192,3204746.0,3199262.0,0.0
1579355967244,3217466.0,3206956.0,0.0
1579355967292,3230829.0,3222109.0,0.0
1579355967340,3230799.0,3216625.0,0.0
1579355967386,3225053.0,3209916.0,0.0
1579355967432,3237705.0,3224259.0,0.0
1579355967488,3259046.0,3251474.0,0.0
1579355967532,3278045.0,3276279.0,0.0
1579355967582,3283927.0,3283982.0,0.0
1579355967634,3292273.0,3290849.0,0.0
1579355967679,3313208.0,3321140.0,0.0
1579355967729,3327869.0,3340743.0,0.0
1579355967778,3266818.0,3257547.0,0.0
1579355967827,3216847.0,3181998.0,0.0
1579355967872,3213557.0,3168321.0,0.0
1579355967923,3233154.0,3184599.0,0.0
1579355967973,3252360.0,3210376.0,0.0
1579355968014,3259245.0,3216471.0,0.0
1579355968070,3256261.0,3207858.0,0.0
1579355968114,3252551.0,3196982.0,0.0
1579355968166,3256070.0,3200958.0,0.0
1579355968215,3270290.0,3215301.0,0.0
1579355968257,3286826.0,3235386.0,0.0
1579355968313,3318997.0,3278711.0,0.0
1579355968354,3355322.0,3319090.0,0.0
1579355968409,3344967.0,3303753.0,0.0
1579355968453,3289604.0,3228611.0,0.0
1579355968505,3261968.0,3187252.0,0.0
1579355968556,3268859.0,3190251.0,0.0
1579355968596,3289900.0,3219646.0,0.0
1579355968653,3316427.0,3252047.0,0.0
1579355968696,3323946.0,3260812.0,0.0
1579355968750,3316037.0,3255970.0,0.0
1579355968795,3316175.0,3253430.0,0.0
1579355968845,3320474.0,3256941.0,0.0
1579355968899,3343979.0,3287369.0,0.0
1579355968937,3394171.0,3345127.0,0.0
1579355968992,3429164.0,3386353.0,0.0
1579355969033,3444364.0,3398103.0,0.0
1579355969090,3391609.0,3328032.0,0.0
1579355969133,3344806.0,3259993.0,0.0
1579355969190,3325919.0,3232205.0,0.0
1579355969234,3337264.0,3237262.0,0.0
1579355969278,3349853.0,3258808.0,0.0
1579355969332,3343559.0,3254601.0,0.0
1579355969378,3319893.0,3223202.0,0.0
1579355969429,3303119.0,3196424.0,0.0
1579355969473,3311288.0,3204234.0,0.0
1579355969524,3342953.0,3245177.0,0.0
1579355969572,3368937.0,3283858.0,0.0
1579355969617,3369709.0,3288608.0,0.0
1579355969664,3371538.0,3290069.0,0.0
1579355969712,3324978.0,3231272.0,0.0
1579355969761,3276883.0,3167327.0,0.0
1579355969814,3268201.0,3150929.0,0.0
1579355969860,3284341.0,3172016.0,0.0
1579355969910,3307103.0,3203047.0,0.0
1579355969955,3312136.0,3213175.0,0.0
1579355970014,3303600.0,3202015.0,0.0
1579355970052,3295225.0,3193754.0,0.0
1579355970109,3299317.0,3194321.0,0.0
1579355970155,3317337.0,3221550.0,0.0
1579355970202,3342372.0,3255275.0,0.0
1579355970251,3352508.0,3269349.0,0.0
1579355970299,3345639.0,3256996.0,0.0
1579355970352,3276470.0,3175848.0,0.0
1579355970393,3231364.0,3114971.0,0.0
1579355970449,3224649.0,3106381.0,0.0
1579355970496,3235120.0,3115873.0,0.0
1579355970543,3249798.0,3136050.0,0.0
1579355970593,3249590.0,3138230.0,0.0
1579355970636,3243969.0,3129595.0,0.0
1579355970684,3244474.0,3130376.0,0.0
1579355970735,3254708.0,3144234.0,0.0
1579355970789,3284026.0,3184353.0,0.0
1579355970835,3311189.0,3218407.0,0.0
1579355970878,3316321.0,3229949.0,0.0
1579355970932,3318883.0,3238202.0,0.0
1579355970979,3273029.0,3189219.0,0.0
1579355971031,3219386.0,3128884.0,0.0
1579355971078,3212058.0,3112927.0,0.0
1579355971127,3227999.0,3134581.0,0.0
1579355971175,3249753.0,3162256.0,0.0
1579355971225,3260690.0,3183183.0,0.0
1579355971270,3256728.0,3183099.0,0.0
1579355971314,3247083.0,3180109.0,0.0
1579355971370,3254081.0,3190924.0,0.0
1579355971416,3275032.0,3220961.0,0.0
1579355971467,3294797.0,3247916.0,0.0
1579355971512,3308428.0,3265930.0,0.0
1579355971561,3322546.0,3288525.0,0.0
1579355971613,3336476.0,3310110.0,0.0
1579355971654,3282521.0,3254800.0,0.0
1579355971711,3226193.0,3193945.0,0.0
1579355971760,3216786.0,3175702.0,0.0
1579355971807,3226843.0,3186434.0,0.0
1579355971854,3238936.0,3204378.0,0.0
1579355971904,3239747.0,3210268.0,0.0
1579355971954,3231975.0,3204555.0,0.0
1579355971994,3240045.0,3214384.0,0.0
1579355972050,3267482.0,3254235.0,0.0
1579355972094,3294667.0,3289098.0,0.0
1579355972140,3311471.0,3315173.0,0.0
1579355972191,3326248.0,3339627.0,0.0
1579355972237,3352301.0,3373244.0,0.0
1579355972286,3376694.0,3409186.0,0.0
1579355972337,3341899.0,3378238.0,0.0
1579355972383,3293696.0,3333378.0,0.0
1579355972436,3279384.0,3318371.0,0.0
1579355972480,3285418.0,3327258.0,0.0
1579355972530,3301146.0,3348224.0,0.0
1579355972577,3309421.0,3361694.0,0.0
1579355972627,3310569.0,3366337.0,0.0
1579355972676,3314354.0,3380311.0,0.0
1579355972723,3323595.0,3392741.0,0.0
1579355972770,3324275.0,3396910.0,0.0
1579355972820,3329676.0,3405163.0,0.0
1579355972869,3346411.0,3425930.0,0.0
1579355972917,3367706.0,3455646.0,0.0
1579355972966,3377771.0,3466837.0,0.0
1579355973014,3329446.0,3416100.0,0.0
1579355973069,3284516.0,3367714.0,0.0
1579355973117,3266618.0,3344499.0,0.0
1579355973165,3263833.0,3338258.0,0.0
1579355973212,3277486.0,3347413.0,0.0
1579355973260,3299149.0,3373978.0,0.0
1579355973312,3307562.0,3389468.0,0.0
1579355973359,3300366.0,3385758.0,0.0
1579355973409,3309521.0,3396496.0,0.0
1579355973456,3338877.0,3426488.0,0.0
1579355973504,3366428.0,3456310.0,0.0
1579355973551,3385039.0,3486831.0,0.0
1579355973595,3402914.0,3508309.0,0.0
1579355973652,3358482.0,3467969.0,0.0
1579355973700,3316183.0,3422502.0,0.0
1579355973748,3306768.0,3408099.0,0.0
1579355973797,3318225.0,3418327.0,0.0
1579355973843,3336645.0,3437051.0,0.0
1579355973888,3352813.0,3454147.0,0.0
1579355973943,3348224.0,3451308.0,0.0
1579355973992,3339276.0,3440875.0,0.0
1579355974039,3341188.0,3438092.0,0.0
1579355974087,3357580.0,3457726.0,0.0
1579355974135,3377389.0,3481315.0,0.0
1579355974178,3395090.0,3502145.0,0.0
1579355974230,3406516.0,3514229.0,0.0
1579355974281,3345019.0,3447554.0,0.0
1579355974330,3280416.0,3365672.0,0.0
1579355974379,3256315.0,3327106.0,0.0
1579355974420,3254174.0,3313720.0,0.0
1579355974474,3270099.0,3327687.0,0.0
1579355974521,3297688.0,3360562.0,0.0
1579355974574,3305512.0,3367393.0,0.0
1579355974617,3292816.0,3349180.0,0.0
1579355974671,3296258.0,3356974.0,0.0
1579355974717,3323274.0,3383417.0,0.0
1579355974761,3349548.0,3414326.0,0.0
1579355974812,3371875.0,3440554.0,0.0
1579355974856,3393330.0,3468962.0,0.0
1579355974915,3415176.0,3494855.0,0.0
1579355974959,3363307.0,3442291.0,0.0
1579355975009,3299630.0,3366588.0,0.0
1579355975059,3276294.0,3325958.0,0.0
1579355975100,3277594.0,3325216.0,0.0
1579355975156,3301910.0,3349548.0,0.0
1579355975199,3318141.0,3368165.0,0.0
1579355975255,3305053.0,3353862.0,0.0
1579355975300,3296388.0,3340637.0,0.0
1579355975349,3305963.0,3351911.0,0.0
1579355975399,3325224.0,3373029.0,0.0
1579355975441,3345976.0,3398509.0,0.0
1579355975495,3360280.0,3418288.0,0.0
1579355975539,3374614.0,3439047.0,0.0
1579355975593,3381979.0,3448884.0,0.0
1579355975641,3337195.0,3391280.0,0.0
1579355975688,3280256.0,3316924.0,0.0
1579355975731,3269908.0,3291776.0,0.0
1579355975779,3288685.0,3313253.0,0.0
1579355975831,3310569.0,3332154.0,0.0
1579355975879,3313696.0,3335986.0,0.0
1579355975928,3316985.0,3339696.0,0.0
1579355975975,3323802.0,3350198.0,0.0
1579355976027,3332354.0,3359384.0,0.0
1579355976078,3348477.0,3379998.0,0.0
1579355976119,3373535.0,3408453.0,0.0
1579355976172,3395350.0,3440593.0,0.0
1579355976221,3408566.0,3459768.0,0.0
1579355976268,3404911.0,3453259.0,0.0
1579355976315,3339987.0,3371363.0,0.0
1579355976364,3307150.0,3325033.0,0.0
1579355976412,3310025.0,3322065.0,0.0
1579355976459,3319165.0,3333225.0,0.0
1579355976513,3327573.0,3343697.0,0.0
1579355976559,3331098.0,3343741.0,0.0
1579355976609,3330143.0,3338955.0,0.0
1579355976661,3332614.0,3341821.0,0.0
1579355976701,3344331.0,3353754.0,0.0
1579355976758,3358795.0,3371018.0,0.0
1579355976801,3368785.0,3380037.0,0.0
1579355976852,3372763.0,3383747.0,0.0
1579355976900,3374705.0,3386278.0,0.0
1579355976950,3349877.0,3349493.0,0.0
1579355977000,3309505.0,3298659.0,0.0
1579355977041,3290085.0,3273602.0,0.0
1579355977098,3296755.0,3276584.0,0.0
1579355977139,3322563.0,3306583.0,0.0
1579355977194,3357511.0,3346787.0,0.0
1579355977242,3367233.0,3369327.0,0.0
1579355977290,3368165.0,3369557.0,0.0
1579355977340,3376938.0,3383149.0,0.0
1579355977380,3390592.0,3402150.0,0.0
1579355977430,3408942.0,3423376.0,0.0
1579355977481,3426442.0,3445587.0,0.0
1579355977526,3435652.0,3458338.0,0.0
1579355977574,3437090.0,3465238.0,0.0
1579355977629,3381796.0,3397339.0,0.0
1579355977679,3334930.0,3332230.0,0.0
1579355977720,3322463.0,3305819.0,0.0
1579355977778,3337906.0,3321697.0,0.0
1579355977824,3363896.0,3353051.0,0.0
1579355977871,3367576.0,3358742.0,0.0
1579355977922,3360247.0,3347642.0,0.0
1579355977965,3364961.0,3351153.0,0.0
1579355978020,3371745.0,3359016.0,0.0
1579355978061,3380518.0,3371003.0,0.0
1579355978117,3389789.0,3383877.0,0.0
1579355978163,3402311.0,3395533.0,0.0
1579355978213,3397032.0,3387847.0,0.0
1579355978262,3346381.0,3327634.0,0.0
1579355978303,3312136.0,3282344.0,0.0
1579355978355,3309437.0,3272899.0,0.0
1579355978403,3333975.0,3299248.0,0.0
1579355978458,3359796.0,3335015.0,0.0
1579355978505,3367017.0,3344530.0,0.0
1579355978551,3365006.0,3344262.0,0.0
1579355978602,3371958.0,3354910.0,0.0
1579355978642,3385307.0,3373771.0,0.0
1579355978699,3403603.0,3395984.0,0.0
1579355978745,3414968.0,3415419.0,0.0
1579355978795,3420850.0,3423902.0,0.0
1579355978844,3388832.0,3387188.0,0.0
1579355978886,3330104.0,3315976.0,0.0
1579355978941,3306400.0,3276905.0,0.0
1579355978980,3314263.0,3280386.0,0.0
1579355979038,3339849.0,3308503.0,0.0
1579355979084,3359376.0,3331626.0,0.0
1579355979135,3348729.0,3320397.0,0.0
1579355979186,3335419.0,3310041.0,0.0
1579355979230,3339312.0,3316496.0,0.0
1579355979281,3345227.0,3324995.0,0.0
1579355979326,3356493.0,3336460.0,0.0
1579355979378,3370268.0,3353640.0,0.0
1579355979425,3382117.0,3369419.0,0.0
1579355979475,3344820.0,3329247.0,0.0
1579355979524,3289803.0,3272309.0,0.0
1579355979568,3268370.0,3248749.0,0.0
1579355979623,3278917.0,3256322.0,0.0
1579355979663,3302040.0,3283951.0,0.0
1579355979711,3322538.0,3312434.0,0.0
1579355979763,3325003.0,3320443.0,0.0
1579355979807,3323855.0,3322294.0,0.0
1579355979854,3332559.0,3339085.0,0.0
1579355979903,3349150.0,3363407.0,0.0
1579355979953,3370260.0,3388763.0,0.0
1579355980001,3386286.0,3408788.0,0.0
1579355980053,3394440.0,3421271.0,0.0
1579355980101,3364668.0,3398310.0,0.0
1579355980147,3311471.0,3344851.0,0.0
1579355980204,3280593.0,3306843.0,0.0
1579355980245,3279146.0,3303592.0,0.0
1579355980300,3300258.0,3322532.0,0.0
1579355980345,3317981.0,3345814.0,0.0
1579355980396,3320391.0,3348644.0,0.0
1579355980446,3318202.0,3350694.0,0.0
1579355980493,3330937.0,3366879.0,0.0
1579355980543,3346771.0,3384206.0,0.0
1579355980584,3354565.0,3396910.0,0.0
1579355980640,3371538.0,3414373.0,0.0
1579355980686,3382651.0,3429977.0,0.0
1579355980738,3352415.0,3399350.0,0.0
1579355980785,3311250.0,3360814.0,0.0
1579355980834,3305146.0,3345661.0,0.0
1579355980882,3316313.0,3355499.0,0.0
1579355980924,3344010.0,3384129.0,0.0
1579355980979,3367308.0,3408392.0,0.0
1579355981026,3371668.0,3414609.0,0.0
1579355981076,3375079.0,3422510.0,0.0
1579355981125,3391280.0,3441846.0,0.0
1579355981173,3411588.0,3464527.0,0.0
1579355981223,3426190.0,3485468.0,0.0
1579355981264,3438833.0,3501899.0,0.0
1579355981319,3445434.0,3513004.0,0.0
1579355981367,3402723.0,3469283.0,0.0
1579355981415,3349341.0,3411037.0,0.0
1579355981465,3332597.0,3386292.0,0.0
1579355981506,3344461.0,3391900.0,0.0
1579355981553,3367814.0,3415826.0,0.0
1579355981603,3378789.0,3424308.0,0.0
1579355981651,3372456.0,3417461.0,0.0
1579355981703,3375737.0,3420330.0,0.0
1579355981750,3389933.0,3434459.0,0.0
1579355981805,3405293.0,3453565.0,0.0
1579355981847,3423719.0,3470921.0,0.0
1579355981895,3437572.0,3486754.0,0.0
1579355981945,3456717.0,3507108.0,0.0
1579355982000,3426748.0,3473873.0,0.0
1579355982048,3367944.0,3411825.0,0.0
1579355982095,3351009.0,3383700.0,0.0
1579355982145,3367759.0,3400496.0,0.0
1579355982188,3396673.0,3430312.0,0.0
1579355982241,3414869.0,3449045.0,0.0
1579355982289,3418388.0,3452793.0,0.0
1579355982338,3420032.0,3455616.0,0.0
1579355982388,3433065.0,3470124.0,0.0
1579355982434,3449734.0,3491382.0,0.0
1579355982484,3469490.0,3515889.0,0.0
1579355982525,3492782.0,3542194.0,0.0
1579355982581,3530162.0,3590412.0,0.0
1579355982629,3560803.0,3632268.0,0.0
1579355982678,3514191.0,3584989.0,0.0
1579355982727,3485041.0,3538950.0,0.0
1579355982774,3477054.0,3526154.0,0.0
1579355982824,3488428.0,3536213.0,0.0
1579355982866,3494916.0,3545681.0,0.0
1579355982920,3484491.0,3535898.0,0.0
1579355982969,3468312.0,3519843.0,0.0
1579355983014,3463470.0,3515353.0,0.0
1579355983066,3470730.0,3519782.0,0.0
1579355983108,3477705.0,3529321.0,0.0
1579355983163,3489324.0,3541597.0,0.0
1579355983209,3520715.0,3577608.0,0.0
1579355983261,3557162.0,3619807.0,0.0
1579355983310,3526016.0,3581334.0,0.0
1579355983357,3453964.0,3506029.0,0.0
1579355983406,3423597.0,3466942.0,0.0
1579355983448,3425852.0,3469100.0,0.0
1579355983504,3446245.0,3488406.0,0.0
1579355983550,3462095.0,3508951.0,0.0
1579355983602,3463127.0,3511834.0,0.0
1579355983650,3455760.0,3504477.0,0.0
1579355983696,3457060.0,3510857.0,0.0
1579355983746,3467908.0,3522322.0,0.0
1579355983787,3482967.0,3543448.0,0.0
1579355983844,3510121.0,3578067.0,0.0
1579355983889,3529543.0,3603086.0,0.0
1579355983939,3523561.0,3599055.0,0.0
1579355983990,3458889.0,3531499.0,0.0
1579355984034,3410279.0,3476144.0,0.0
1579355984086,3392664.0,3455569.0,0.0
1579355984130,3396412.0,3456457.0,0.0
1579355984182,3403617.0,3463226.0,0.0
1579355984230,3398576.0,3462062.0,0.0
1579355984278,3386124.0,3447277.0,0.0
1579355984326,3383172.0,3440631.0,0.0
1579355984369,3393145.0,3450987.0,0.0
1579355984425,3414204.0,3470378.0,0.0
1579355984471,3430099.0,3490119.0,0.0
1579355984520,3434030.0,3500781.0,0.0
1579355984572,3452862.0,3516783.0,0.0
1579355984618,3449059.0,3518336.0,0.0
1579355984660,3390829.0,3449902.0,0.0
1579355984709,3350658.0,3404007.0,0.0
1579355984760,3352185.0,3402150.0,0.0
1579355984809,3366666.0,3419345.0,0.0
1579355984860,3378346.0,3437580.0,0.0
1579355984908,3379907.0,3437785.0,0.0
1579355984953,3378452.0,3437486.0,0.0
1579355985008,3385398.0,3446842.0,0.0
1579355985049,3394570.0,3464297.0,0.0
1579355985105,3399326.0,3475065.0,0.0
1579355985151,3395189.0,3476864.0,0.0
1579355985193,3396656.0,3488843.0,0.0
1579355985250,3406019.0,3503420.0,0.0
1579355985291,3372478.0,3467081.0,0.0
1579355985347,3309482.0,3392528.0,0.0
1579355985390,3289358.0,3360814.0,0.0
1579355985443,3296418.0,3359240.0,0.0
1579355985492,3311195.0,3368112.0,0.0
1579355985539,3311150.0,3365617.0,0.0
1579355985589,3306101.0,3351200.0,0.0
1579355985630,3314905.0,3362344.0,0.0
1579355985687,3338136.0,3388948.0,0.0
1579355985731,3354229.0,3407266.0,0.0
1579355985783,3358665.0,3412805.0,0.0
1579355985832,3374161.0,3433892.0,0.0
1579355985879,3399846.0,3458545.0,0.0
1579355985929,3419550.0,3483648.0,0.0
1579355985971,3388052.0,3447875.0,0.0
1579355986018,3342106.0,3390331.0,0.0
1579355986074,3326998.0,3369175.0,0.0
1579355986115,3337898.0,3379409.0,0.0
1579355986167,3356241.0,3399740.0,0.0
1579355986215,3364181.0,3409507.0,0.0
1579355986266,3375217.0,3420416.0,0.0
1579355986313,3378031.0,3422021.0,0.0
1579355986364,3368043.0,3417409.0,0.0
1579355986416,3369695.0,3415328.0,0.0
1579355986457,3379210.0,3432714.0,0.0
1579355986509,3398775.0,3454750.0,0.0
1579355986552,3416017.0,3475449.0,0.0
1579355986599,3395311.0,3450193.0,0.0
1579355986654,3328879.0,3369870.0,0.0
1579355986697,3290016.0,3317101.0,0.0
1579355986749,3290873.0,3309253.0,0.0
1579355986795,3296211.0,3307769.0,0.0
1579355986852,3309344.0,3317483.0,0.0
1579355986893,3324787.0,3337270.0,0.0
1579355986948,3329883.0,3342098.0,0.0
1579355986995,3327579.0,3335657.0,0.0
1579355987042,3338435.0,3348362.0,0.0
1579355987092,3362222.0,3373535.0,0.0
1579355987134,3386812.0,3404231.0,0.0
1579355987193,3406724.0,3429081.0,0.0
1579355987233,3427703.0,3454498.0,0.0
1579355987287,3405797.0,3432271.0,0.0
1579355987335,3340407.0,3356684.0,0.0
1579355987381,3312030.0,3316803.0,0.0
1579355987434,3312650.0,3310675.0,0.0
1579355987475,3318064.0,3319135.0,0.0
1579355987530,3329363.0,3341401.0,0.0
1579355987573,3332323.0,3342602.0,0.0
1579355987627,3311311.0,3318891.0,0.0
1579355987679,3297832.0,3303769.0,0.0
1579355987718,3308503.0,3317406.0,0.0
1579355987769,3335826.0,3344599.0,0.0
1579355987815,3355261.0,3369258.0,0.0
1579355987871,3375516.0,3393621.0,0.0
1579355987911,3395594.0,3414341.0,0.0
1579355987967,3376961.0,3396014.0,0.0
1579355988015,3320521.0,3328995.0,0.0
1579355988055,3290467.0,3295347.0,0.0
1579355988112,3301932.0,3293679.0,0.0
1579355988155,3328229.0,3325476.0,0.0
1579355988213,3363744.0,3364217.0,0.0
1579355988252,3367493.0,3370788.0,0.0
1579355988308,3359904.0,3363445.0,0.0
1579355988359,3371546.0,3377657.0,0.0
1579355988398,3395104.0,3403855.0,0.0
1579355988454,3414824.0,3431604.0,0.0
1579355988496,3432515.0,3455997.0,0.0
1579355988551,3456335.0,3484574.0,0.0
1579355988599,3484322.0,3516838.0,0.0
1579355988646,3505525.0,3545628.0,0.0
1579355988691,3483503.0,3529396.0,0.0
1579355988742,3432515.0,3472489.0,0.0
1579355988793,3419932.0,3462391.0,0.0
1579355988834,3434611.0,3474501.0,0.0
1579355988890,3450445.0,3494144.0,0.0
1579355988938,3456335.0,3505960.0,0.0
1579355988986,3456595.0,3507382.0,0.0
1579355989031,3458537.0,3511084.0,0.0
1579355989080,3468082.0,3521970.0,0.0
1579355989132,3480131.0,3537084.0,0.0
1579355989172,3494227.0,3553552.0,0.0
1579355989230,3507827.0,3567916.0,0.0
1579355989281,3516645.0,3578894.0,0.0
1579355989325,3530544.0,3593234.0,0.0
1579355989371,3523492.0,3588193.0,0.0
1579355989421,3490027.0,3552857.0,0.0
1579355989472,3469537.0,3529986.0,0.0
1579355989513,3467578.0,3521556.0,0.0
1579355989569,3470890.0,3527377.0,0.0
1579355989613,3491894.0,3548879.0,0.0
1579355989663,3502358.0,3563097.0,0.0
1579355989707,3503221.0,3561500.0,0.0
1579355989755,3508530.0,3568436.0,0.0
1579355989806,3523653.0,3585357.0,0.0
1579355989858,3543877.0,3612472.0,0.0
1579355989901,3571053.0,3641539.0,0.0
1579355989956,3587299.0,3665891.0,0.0
1579355990002,3596761.0,3680753.0,0.0
1579355990051,3613964.0,3705031.0,0.0
1579355990097,3586596.0,3683600.0,0.0
1579355990151,3517939.0,3615234.0,0.0
1579355990200,3489737.0,3583888.0,0.0
1579355990248,3495635.0,3587116.0,0.0
1579355990294,3510694.0,3604670.0,0.0
1579355990342,3516424.0,3610467.0,0.0
1579355990392,3507053.0,3601810.0,0.0
1579355990436,3504048.0,3599309.0,0.0
1579355990490,3513853.0,3607797.0,0.0
1579355990541,3526137.0,3621085.0,0.0
1579355990588,3535173.0,3636130.0,0.0
1579355990633,3558891.0,3662006.0,0.0
1579355990681,3594971.0,3707938.0,0.0
1579355990734,3632534.0,3744377.0,0.0
1579355990778,3643847.0,3760302.0,0.0
1579355990830,3594061.0,3716498.0,0.0
1579355990880,3536020.0,3656590.0,0.0
1579355990927,3507941.0,3630921.0,0.0
1579355990976,3513388.0,3631762.0,0.0
1579355991022,3527661.0,3647642.0,0.0
1579355991071,3539976.0,3666472.0,0.0
1579355991115,3545022.0,3675331.0,0.0
1579355991163,3541315.0,3674957.0,0.0
1579355991219,3544167.0,3679934.0,0.0
1579355991264,3547869.0,3685044.0,0.0
1579355991311,3563487.0,3709927.0,0.0
1579355991359,3595154.0,3742266.0,0.0
1579355991414,3617259.0,3771087.0,0.0
1579355991455,3625155.0,3778423.0,0.0
1579355991502,3627617.0,3788925.0,0.0
1579355991550,3580980.0,3746566.0,0.0
1579355991598,3512179.0,3683094.0,0.0
1579355991648,3487213.0,3654105.0,0.0
1579355991699,3495604.0,3656622.0,0.0
1579355991748,3509501.0,3674000.0,0.0
1579355991797,3507712.0,3672218.0,0.0
1579355991847,3493317.0,3657898.0,0.0
1579355991896,3484123.0,3644604.0,0.0
1579355991947,3491986.0,3651374.0,0.0
1579355991991,3514114.0,3675607.0,0.0
1579355992039,3538714.0,3703547.0,0.0
1579355992091,3551043.0,3716567.0,0.0
1579355992136,3557544.0,3726455.0,0.0
1579355992189,3569952.0,3744485.0,0.0
1579355992238,3548909.0,3726632.0,0.0
1579355992284,3488093.0,3660056.0,0.0
1579355992331,3458950.0,3625476.0,0.0
1579355992379,3465161.0,3627448.0,0.0
1579355992433,3479572.0,3644743.0,0.0
1579355992481,3502419.0,3668516.0,0.0
1579355992526,3501868.0,3669180.0,0.0
1579355992575,3492805.0,3659995.0,0.0
1579355992622,3500806.0,3670849.0,0.0
1579355992672,3505678.0,3677289.0,0.0
1579355992716,3494410.0,3671377.0,0.0
1579355992768,3495289.0,3674152.0,0.0
1579355992820,3511659.0,3688838.0,0.0
1579355992866,3526566.0,3711067.0,0.0
1579355992912,3532962.0,3718914.0,0.0
1579355992958,3471128.0,3645700.0,0.0
1579355993011,3415084.0,3578158.0,0.0
1579355993059,3396979.0,3553544.0,0.0
1579355993105,3406563.0,3555961.0,0.0
1579355993154,3416551.0,3561882.0,0.0
1579355993202,3427084.0,3570647.0,0.0
1579355993251,3437419.0,3587017.0,0.0
1579355993299,3445833.0,3596034.0,0.0
1579355993349,3439232.0,3586281.0,0.0
1579355993397,3453427.0,3602184.0,0.0
1579355993444,3477674.0,3628306.0,0.0
1579355993493,3504453.0,3656882.0,0.0
1579355993541,3522726.0,3680516.0,0.0
1579355993590,3535317.0,3698208.0,0.0
1579355993636,3534935.0,3702361.0,0.0
1579355993688,3482302.0,3639052.0,0.0
1579355993737,3439989.0,3585509.0,0.0
1579355993784,3427214.0,3566724.0,0.0
1579355993832,3435812.0,3576224.0,0.0
1579355993881,3462347.0,3608181.0,0.0
1579355993931,3476589.0,3625642.0,0.0
1579355993985,3461642.0,3610392.0,0.0
1579355994031,3452074.0,3593480.0,0.0
1579355994082,3455294.0,3598336.0,0.0
1579355994128,3467471.0,3614384.0,0.0
1579355994179,3479121.0,3631104.0,0.0
1579355994219,3492116.0,3643910.0,0.0
1579355994277,3505379.0,3657807.0,0.0
1579355994325,3494625.0,3645301.0,0.0
1579355994374,3434122.0,3567855.0,0.0
1579355994421,3391051.0,3506671.0,0.0
1579355994469,3403855.0,3512232.0,0.0
1579355994519,3452700.0,3568635.0,0.0
1579355994561,3483473.0,3599018.0,0.0
1579355994610,3471754.0,3579351.0,0.0
1579355994659,3457771.0,3562853.0,0.0
1579355994712,3461406.0,3564137.0,0.0
1579355994762,3470868.0,3576744.0,0.0
1579355994812,3482286.0,3594298.0,0.0
1579355994860,3496706.0,3611706.0,0.0
1579355994902,3511980.0,3635181.0,0.0
1579355994949,3528165.0,3655084.0,0.0
1579355994997,3545949.0,3677350.0,0.0
1579355995046,3502502.0,3624405.0,0.0
1579355995094,3445755.0,3550669.0,0.0
1579355995142,3424018.0,3520936.0,0.0
1579355995202,3420706.0,3515859.0,0.0
1579355995239,3422419.0,3514114.0,0.0
1579355995298,3424967.0,3516485.0,0.0
1579355995341,3426909.0,3517884.0,0.0
1579355995392,3422579.0,3509648.0,0.0
1579355995441,3424646.0,3510044.0,0.0
1579355995488,3432722.0,3520501.0,0.0
1579355995538,3452418.0,3537879.0,0.0
1579355995580,3462958.0,3549001.0,0.0
1579355995636,3472794.0,3557491.0,0.0
1579355995683,3483832.0,3567343.0,0.0
1579355995733,3491573.0,3581417.0,0.0
1579355995782,3455065.0,3531034.0,0.0
1579355995825,3416484.0,3477575.0,0.0
1579355995879,3405576.0,3455164.0,0.0
1579355995921,3416064.0,3468129.0,0.0
1579355995976,3443797.0,3498197.0,0.0
1579355996024,3462515.0,3522023.0,0.0
1579355996074,3463808.0,3520883.0,0.0
1579355996121,3463188.0,3518742.0,0.0
1579355996161,3471181.0,3531324.0,0.0
1579355996212,3532862.0,3597350.0,0.0
1579355996260,3577256.0,3653241.0,0.0
1579355996313,3590359.0,3665326.0,0.0
1579355996363,3615630.0,3698889.0,0.0
1579355996408,3642349.0,3742833.0,0.0
1579355996462,3596310.0,3674573.0,0.0
1579355996501,3515729.0,3570755.0,0.0
1579355996551,3475748.0,3521572.0,0.0
1579355996600,3473850.0,3520837.0,0.0
1579355996649,3487227.0,3539141.0,0.0
1579355996698,3493447.0,3550262.0,0.0
1579355996747,3485072.0,3534002.0,0.0
1579355996795,3471043.0,3516241.0,0.0
1579355996844,3467272.0,3513004.0,0.0
1579355996898,3473911.0,3514229.0,0.0
1579355996943,3488262.0,3528248.0,0.0
1579355996992,3508469.0,3556100.0,0.0
1579355997042,3535203.0,3590298.0,0.0
1579355997088,3538216.0,3594069.0,0.0
1579355997140,3464419.0,3496789.0,0.0
1579355997181,3412675.0,3430694.0,0.0
1579355997238,3405476.0,3420797.0,0.0
1579355997286,3423689.0,3439270.0,0.0
1579355997334,3445097.0,3470187.0,0.0
1579355997383,3461788.0,3494074.0,0.0
1579355997423,3459226.0,3491037.0,0.0
1579355997479,3451928.0,3485584.0,0.0
1579355997527,3447125.0,3476299.0,0.0
1579355997578,3450652.0,3483863.0,0.0
1579355997625,3478042.0,3519674.0,0.0
1579355997675,3512271.0,3553934.0,0.0
1579355997722,3519674.0,3558761.0,0.0
1579355997763,3544657.0,3592860.0,0.0
1579355997819,3516990.0,3560283.0,0.0
1579355997864,3486403.0,3526436.0,0.0
1579355997909,3482402.0,3524738.0,0.0
1579355997965,3500828.0,3544411.0,0.0
1579355998013,3510649.0,3554974.0,0.0
1579355998058,3502037.0,3541749.0,0.0
1579355998102,3482256.0,3519270.0,0.0
1579355998159,3475419.0,3503459.0,0.0
1579355998209,3511123.0,3549368.0,0.0
1579355998257,3555364.0,3607064.0,0.0
1579355998304,3568881.0,3627938.0,0.0
1579355998350,3565393.0,3622928.0,0.0
1579355998402,3565645.0,3628220.0,0.0
1579355998444,3573499.0,3638141.0,0.0
1579355998498,3526345.0,3580515.0,0.0
1579355998547,3474409.0,3513762.0,0.0
1579355998593,3451064.0,3489186.0,0.0
1579355998644,3456440.0,3491848.0,0.0
1579355998684,3475976.0,3517112.0,0.0
1579355998741,3485943.0,3529833.0,0.0
1579355998785,3476274.0,3517265.0,0.0
1579355998839,3479381.0,3520150.0,0.0
1579355998886,3506220.0,3552459.0,0.0
1579355998931,3526721.0,3573822.0,0.0
1579355998984,3527338.0,3576758.0,0.0
1579355999025,3525495.0,3579857.0,0.0
1579355999081,3530766.0,3589977.0,0.0
1579355999126,3527698.0,3587927.0,0.0
1579355999178,3463808.0,3512998.0,0.0
1579355999228,3417386.0,3458100.0,0.0
1579355999273,3405437.0,3442045.0,0.0
1579355999324,3409920.0,3445518.0,0.0
1579355999364,3423329.0,3459500.0,0.0
1579355999420,3428124.0,3460419.0,0.0
1579355999467,3432838.0,3467792.0,0.0
