time,value
1575576248394,2491841.0
1575576248430,2511941.0
1575576248461,2559819.0
1575576248518,2561497.0
1575576248547,2522552.0
1575576248594,2478841.0
1575576248646,2465349.0
1575576248691,2472943.0
1575576248743,2466655.0
1575576248791,2471133.0
1575576248840,2468033.0
1575576248887,2413964.0
1575576248937,2356729.0
1575576248987,2327430.0
1575576249035,2302376.0
1575576249084,2278613.0
1575576249132,2265890.0
1575576249183,2282847.0
1575576249228,2307317.0
1575576249280,2275222.0
1575576249328,2249776.0
1575576249376,2276599.0
1575576249426,2235743.0
1575576249474,2192430.0
1575576249524,2210921.0
1575576249572,2232582.0
1575576249620,2194149.0
1575576249668,2144778.0
1575576249719,2079093.0
1575576249768,2072179.0
1575576249816,2098996.0
1575576249866,2135415.0
1575576249914,2085936.0
1575576249965,2033633.0
1575576250010,2050807.0
1575576250065,2092623.0
1575576250109,2178025.0
1575576250156,2205821.0
1575576250211,2173620.0
1575576250259,2128337.0
1575576250308,2137374.0
1575576250355,2193379.0
1575576250405,2261792.0
1575576250448,2314865.0
1575576250503,2330959.0
1575576250552,2328504.0
1575576250596,2348856.0
1575576250649,2390849.0
1575576250696,2430277.0
1575576250748,2450872.0
1575576250789,2470816.0
1575576250844,2500096.0
1575576250892,2522737.0
1575576250940,2537004.0
1575576250991,2541425.0
1575576251039,2497316.0
1575576251087,2468750.0
1575576251134,2453095.0
1575576251185,2443418.0
1575576251235,2434535.0
1575576251276,2428483.0
1575576251332,2442357.0
1575576251380,2481391.0
1575576251429,2519019.0
1575576251478,2549589.0
1575576251526,2542476.0
1575576251572,2522467.0
1575576251626,2519137.0
1575576251676,2523180.0
1575576251722,2529938.0
1575576251771,2530580.0
1575576251819,2519556.0
1575576251864,2481877.0
1575576251911,2477527.0
1575576251965,2563750.0
1575576252012,2572619.0
1575576252063,2507832.0
1575576252108,2486312.0
1575576252161,2539284.0
1575576252203,2577412.0
1575576252253,2610464.0
1575576252307,2645731.0
1575576252351,2706866.0
1575576252404,2767869.0
1575576252453,2772148.0
1575576252501,2730839.0
1575576252551,2685307.0
1575576252595,2664263.0
1575576252647,2661457.0
1575576252693,2651617.0
1575576252738,2669576.0
1575576252793,2703475.0
1575576252838,2727738.0
1575576252892,2721798.0
1575576252935,2760368.0
1575576252985,2812968.0
1575576253031,2813657.0
1575576253083,2781730.0
1575576253133,2765336.0
1575576253180,2749405.0
1575576253228,2707781.0
1575576253276,2682309.0
1575576253326,2689877.0
1575576253375,2746132.0
1575576253421,2778079.0
1575576253475,2822550.0
1575576253520,2801769.0
1575576253567,2824797.0
1575576253617,2813594.0
1575576253667,2812076.0
1575576253716,2794278.0
1575576253764,2751613.0
1575576253813,2703867.0
1575576253862,2683491.0
1575576253910,2694842.0
1575576253959,2721156.0
1575576254007,2703347.0
1575576254056,2672079.0
1575576254106,2601537.0
1575576254153,2630536.0
1575576254204,2664848.0
1575576254251,2652121.0
1575576254299,2662217.0
1575576254346,2704690.0
1575576254395,2722216.0
1575576254444,2712736.0
1575576254493,2680616.0
1575576254543,2645170.0
1575576254593,2656920.0
1575576254641,2689513.0
1575576254688,2685277.0
1575576254737,2735443.0
1575576254786,2827674.0
1575576254834,2842991.0
1575576254884,2856582.0
1575576254933,2919956.0
1575576254982,2860763.0
1575576255032,2737574.0
1575576255078,2662162.0
1575576255130,2663310.0
1575576255176,2703593.0
1575576255225,2716745.0
1575576255273,2719744.0
1575576255322,2808291.0
1575576255376,2821719.0
1575576255420,2824931.0
1575576255467,2799333.0
1575576255517,2719711.0
1575576255565,2666664.0
1575576255614,2642076.0
1575576255664,2661172.0
1575576255714,2672298.0
1575576255763,2605769.0
1575576255812,2537449.0
1575576255860,2524602.0
1575576255908,2587524.0
1575576255958,2572109.0
1575576256007,2531594.0
1575576256055,2523042.0
1575576256103,2506302.0
1575576256152,2482346.0
1575576256202,2466746.0
1575576256250,2467313.0
1575576256299,2514064.0
1575576256347,2486282.0
1575576256395,2546082.0
1575576256445,2511555.0
1575576256493,2472809.0
1575576256543,2455860.0
1575576256588,2455320.0
1575576256637,2464855.0
1575576256689,2451943.0
1575576256738,2439511.0
1575576256787,2444661.0
1575576256838,2478715.0
1575576256884,2522406.0
1575576256932,2529263.0
1575576256981,2541007.0
1575576257030,2545586.0
1575576257079,2592154.0
1575576257127,2589655.0
1575576257178,2583684.0
1575576257226,2571211.0
1575576257273,2589598.0
1575576257323,2593958.0
1575576257371,2589324.0
1575576257419,2549589.0
1575576257468,2508306.0
1575576257517,2522997.0
1575576257566,2544282.0
1575576257612,2562226.0
1575576257662,2586977.0
1575576257711,2608048.0
1575576257761,2591557.0
1575576257809,2584218.0
1575576257856,2586274.0
1575576257906,2569457.0
1575576257953,2570032.0
1575576258004,2587548.0
1575576258052,2618823.0
1575576258102,2641887.0
1575576258147,2678611.0
1575576258197,2695822.0
1575576258245,2733974.0
1575576258298,2797206.0
1575576258343,2854440.0
1575576258391,2895453.0
1575576258440,2908517.0
1575576258489,2878626.0
1575576258541,2857305.0
1575576258588,2823115.0
1575576258638,2800310.0
1575576258684,2795003.0
1575576258734,2792832.0
1575576258783,2798384.0
1575576258831,2810351.0
1575576258881,2824374.0
1575576258929,2808858.0
1575576258980,2804228.0
1575576259027,2809953.0
1575576259075,2791718.0
1575576259125,2780015.0
1575576259170,2762240.0
1575576259221,2747983.0
1575576259270,2733184.0
1575576259318,2733220.0
1575576259368,2716653.0
1575576259415,2697669.0
1575576259464,2714934.0
1575576259514,2733929.0
1575576259563,2770031.0
1575576259612,2807072.0
1575576259663,2814478.0
1575576259709,2797828.0
1575576259759,2784146.0
1575576259807,2779765.0
1575576259856,2765671.0
1575576259906,2733750.0
1575576259953,2709652.0
1575576260008,2710574.0
1575576260055,2714756.0
1575576260099,2730374.0
1575576260153,2740803.0
1575576260201,2760021.0
1575576260245,2798884.0
1575576260292,2856118.0
1575576260349,2962218.0
1575576260396,3091807.0
1575576260442,3248264.0
1575576260493,3396116.0
1575576260542,3559249.0
1575576260587,3646216.0
1575576260639,3696562.0
1575576260689,3730899.0
1575576260732,3759209.0
1575576260780,3779634.0
1575576260834,3800931.0
1575576260882,3814454.0
1575576260932,3818875.0
1575576260981,3825920.0
1575576261030,3839301.0
1575576261077,3865463.0
1575576261128,3880324.0
1575576261175,3896478.0
1575576261226,3909912.0
1575576261273,3919274.0
1575576261322,3922045.0
1575576261371,3939506.0
1575576261418,3912068.0
1575576261463,3840014.0
1575576261515,3810344.0
1575576261562,3838277.0
1575576261609,3854526.0
1575576261662,3869624.0
1575576261713,3865516.0
1575576261759,3824426.0
1575576261805,3837377.0
1575576261855,3804533.0
1575576261903,3785260.0
1575576261953,3791530.0
1575576262003,3756393.0
1575576262052,3765093.0
1575576262096,3795744.0
1575576262147,3773563.0
1575576262197,3746950.0
1575576262245,3708891.0
1575576262295,3651238.0
1575576262344,3578955.0
1575576262393,3443959.0
1575576262441,3276212.0
1575576262488,3132367.0
1575576262538,3045416.0
1575576262587,2988359.0
1575576262635,2955367.0
1575576262687,2945820.0
1575576262733,2939148.0
1575576262782,2933745.0
1575576262829,2949274.0
1575576262875,2921285.0
1575576262925,2893598.0
1575576262972,2886532.0
1575576263025,2900315.0
1575576263075,2923217.0
1575576263119,2961141.0
1575576263173,2995045.0
1575576263224,2996146.0
1575576263266,3022650.0
1575576263319,3034798.0
1575576263371,3041702.0
1575576263415,3007922.0
1575576263466,2977405.0
1575576263511,2969209.0
1575576263562,2981530.0
1575576263606,2993828.0
1575576263660,3001398.0
1575576263711,3016929.0
1575576263756,3006980.0
1575576263806,3014737.0
1575576263848,3014855.0
1575576263902,2990945.0
1575576263946,2950269.0
1575576263999,2945373.0
1575576264051,2954640.0
1575576264093,2960160.0
1575576264147,2952336.0
1575576264194,2965034.0
1575576264246,2974240.0
1575576264286,2979108.0
1575576264341,2987763.0
1575576264385,2950211.0
1575576264438,2910348.0
1575576264488,2903094.0
1575576264529,2911758.0
1575576264579,2913861.0
1575576264629,2903407.0
1575576264678,2891534.0
1575576264725,2882348.0
1575576264776,2880930.0
1575576264829,2868610.0
1575576264872,2804754.0
1575576264925,2751136.0
1575576264967,2734937.0
1575576265021,2751774.0
1575576265067,2778130.0
1575576265116,2781555.0
1575576265169,2778963.0
1575576265217,2798199.0
1575576265262,2823680.0
1575576265314,2833688.0
1575576265363,2800808.0
1575576265408,2770113.0
1575576265461,2753454.0
1575576265507,2748111.0
1575576265558,2721310.0
1575576265604,2698083.0
1575576265656,2708670.0
1575576265704,2748275.0
1575576265753,2793876.0
1575576265802,2887060.0
1575576265845,2983781.0
1575576265900,3069328.0
1575576265950,3143720.0
1575576265997,3190948.0
1575576266047,3243123.0
1575576266093,3303606.0
1575576266145,3351421.0
1575576266191,3398054.0
1575576266244,3423207.0
1575576266292,3442399.0
1575576266339,3446085.0
1575576266388,3453344.0
1575576266435,3491120.0
1575576266485,3541818.0
1575576266533,3578999.0
1575576266582,3612578.0
1575576266627,3644432.0
1575576266679,3682334.0
1575576266729,3706445.0
1575576266776,3719486.0
1575576266827,3706014.0
1575576266870,3698027.0
1575576266924,3685225.0
1575576266970,3685329.0
1575576267020,3680298.0
1575576267069,3671702.0
1575576267113,3664197.0
1575576267166,3663884.0
1575576267216,3664233.0
1575576267264,3668343.0
1575576267309,3669837.0
1575576267361,3654306.0
1575576267412,3623493.0
1575576267458,3612995.0
1575576267507,3614606.0
1575576267555,3614502.0
1575576267602,3611656.0
1575576267648,3607503.0
1575576267702,3608892.0
1575576267752,3609642.0
1575576267799,3620819.0
1575576267845,3609910.0
1575576267897,3584698.0
1575576267948,3571458.0
1575576267993,3572937.0
1575576268037,3577721.0
1575576268089,3581452.0
1575576268135,3594930.0
1575576268190,3592218.0
1575576268233,3604240.0
1575576268287,3609108.0
1575576268331,3603699.0
1575576268385,3572475.0
1575576268429,3556916.0
1575576268482,3559763.0
1575576268530,3573465.0
1575576268579,3577559.0
1575576268629,3583695.0
1575576268676,3585948.0
1575576268727,3593935.0
1575576268771,3600020.0
1575576268822,3596038.0
1575576268872,3564592.0
1575576268920,3551597.0
1575576268970,3551664.0
1575576269015,3561843.0
1575576269067,3567937.0
1575576269111,3568835.0
1575576269164,3570604.0
1575576269212,3579268.0
1575576269261,3589172.0
1575576269310,3598386.0
1575576269358,3572431.0
1575576269407,3546908.0
1575576269449,3542174.0
1575576269501,3553060.0
1575576269551,3560342.0
1575576269597,3564852.0
1575576269644,3564852.0
1575576269693,3569586.0
1575576269744,3581429.0
1575576269791,3591907.0
1575576269840,3568552.0
1575576269890,3539939.0
1575576269938,3538860.0
1575576269987,3554673.0
1575576270035,3573233.0
1575576270085,3580901.0
1575576270131,3594315.0
1575576270183,3611790.0
1575576270230,3630545.0
1575576270279,3643109.0
1575576270328,3612310.0
1575576270376,3587025.0
1575576270424,3584282.0
1575576270476,3593837.0
1575576270526,3592724.0
1575576270572,3589491.0
1575576270622,3589276.0
1575576270673,3592962.0
1575576270722,3596647.0
1575576270771,3599122.0
1575576270817,3552837.0
1575576270868,3510424.0
1575576270914,3498558.0
1575576270965,3496850.0
1575576271013,3492435.0
1575576271061,3489166.0
1575576271106,3482561.0
1575576271160,3489314.0
1575576271209,3499517.0
1575576271252,3507630.0
1575576271308,3461028.0
1575576271353,3410954.0
1575576271402,3392304.0
1575576271452,3401971.0
1575576271501,3414290.0
1575576271550,3412939.0
1575576271592,3407223.0
1575576271648,3400730.0
1575576271696,3402016.0
1575576271745,3403784.0
1575576271793,3379791.0
1575576271837,3330163.0
1575576271886,3319730.0
1575576271940,3333418.0
1575576271989,3350426.0
1575576272032,3357299.0
1575576272089,3372285.0
1575576272130,3394614.0
1575576272183,3422998.0
1575576272234,3443655.0
1575576272281,3428207.0
1575576272329,3380244.0
1575576272374,3369136.0
1575576272427,3364075.0
1575576272473,3362210.0
1575576272525,3352960.0
1575576272572,3342683.0
1575576272619,3347476.0
1575576272671,3354260.0
1575576272715,3369984.0
1575576272769,3353793.0
1575576272815,3312658.0
1575576272865,3301229.0
1575576272913,3313178.0
1575576272958,3326782.0
1575576273011,3334005.0
1575576273058,3337654.0
1575576273106,3348516.0
1575576273155,3374360.0
1575576273202,3399050.0
1575576273255,3432933.0
1575576273303,3410025.0
1575576273352,3404103.0
1575576273399,3424946.0
1575576273449,3453397.0
1575576273498,3465746.0
1575576273548,3478458.0
1575576273590,3492496.0
1575576273645,3509993.0
1575576273692,3528480.0
1575576273737,3561092.0
1575576273786,3571592.0
1575576273835,3561181.0
1575576273883,3562229.0
1575576273930,3574467.0
1575576273984,3583955.0
1575576274033,3587953.0
1575576274082,3592263.0
1575576274131,3600302.0
1575576274174,3604969.0
1575576274228,3601454.0
1575576274276,3569911.0
1575576274327,3521058.0
1575576274373,3505379.0
1575576274424,3521064.0
1575576274472,3526601.0
1575576274515,3526853.0
1575576274569,3534626.0
1575576274613,3538192.0
1575576274666,3542078.0
1575576274714,3539076.0
1575576274763,3533905.0
1575576274812,3484426.0
1575576274862,3460768.0
1575576274911,3461621.0
1575576274957,3469074.0
1575576275007,3479633.0
1575576275055,3488461.0
1575576275100,3490511.0
1575576275148,3499101.0
1575576275200,3512023.0
1575576275250,3525560.0
1575576275300,3512230.0
1575576275348,3484255.0
1575576275396,3483704.0
1575576275447,3496923.0
1575576275493,3513561.0
1575576275538,3530591.0
1575576275592,3538578.0
1575576275638,3562132.0
1575576275689,3589699.0
1575576275737,3613655.0
1575576275787,3632217.0
1575576275834,3595755.0
1575576275879,3579318.0
1575576275931,3577587.0
1575576275978,3598579.0
1575576276029,3617162.0
1575576276077,3634885.0
1575576276123,3649239.0
1575576276170,3665572.0
1575576276221,3684132.0
1575576276268,3696934.0
1575576276317,3680469.0
1575576276366,3642404.0
1575576276414,3635508.0
1575576276463,3642634.0
1575576276511,3649879.0
1575576276560,3647916.0
1575576276609,3641750.0
1575576276657,3643229.0
1575576276706,3646935.0
1575576276755,3655852.0
1575576276804,3644097.0
1575576276852,3590814.0
1575576276902,3561329.0
1575576276950,3563194.0
1575576277000,3580137.0
1575576277046,3601432.0
1575576277095,3619651.0
1575576277145,3633003.0
1575576277192,3657992.0
1575576277243,3677437.0
1575576277290,3695211.0
1575576277339,3685164.0
1575576277388,3645880.0
1575576277436,3642122.0
1575576277486,3649261.0
1575576277534,3662614.0
1575576277582,3663282.0
1575576277631,3661663.0
1575576277682,3659857.0
1575576277728,3664219.0
1575576277779,3661143.0
1575576277826,3663573.0
1575576277875,3622206.0
1575576277924,3566726.0
1575576277972,3547465.0
1575576278022,3538141.0
1575576278069,3537836.0
1575576278119,3523600.0
1575576278170,3512697.0
1575576278220,3493268.0
1575576278269,3476699.0
1575576278316,3458190.0
1575576278367,3430243.0
1575576278414,3351125.0
1575576278461,3290782.0
1575576278512,3269591.0
1575576278560,3271255.0
1575576278603,3246498.0
1575576278658,3222684.0
1575576278705,3214925.0
1575576278751,3216739.0
1575576278801,3233420.0
1575576278847,3257969.0
1575576278901,3251594.0
1575576278951,3255950.0
1575576278999,3295717.0
1575576279048,3354869.0
1575576279091,3405381.0
1575576279140,3436544.0
1575576279192,3452357.0
1575576279245,3461191.0
1575576279291,3477605.0
1575576279340,3483111.0
1575576279389,3480970.0
1575576279436,3415174.0
1575576279483,3366625.0
1575576279533,3351600.0
1575576279582,3365124.0
1575576279630,3387593.0
1575576279679,3421996.0
1575576279730,3498357.0
1575576279776,3589447.0
1575576279823,3673537.0
1575576279875,3750507.0
1575576279923,3796673.0
1575576279972,3820881.0
1575576280020,3862907.0
1575576280070,3884678.0
1575576280114,3898069.0
1575576280163,3888142.0
1575576280214,3889985.0
1575576280266,3890399.0
1575576280312,3902512.0
1575576280361,3922618.0
1575576280409,3909822.0
1575576280459,3895816.0
1575576280504,3914193.0
1575576280555,3937084.0
1575576280603,3946374.0
1575576280653,3942070.0
1575576280701,3941692.0
1575576280752,3943401.0
1575576280799,3944746.0
1575576280844,3936081.0
1575576280891,3884739.0
1575576280942,3794094.0
1575576280993,3750895.0
1575576281043,3727392.0
1575576281092,3714322.0
1575576281134,3700354.0
1575576281187,3693167.0
1575576281233,3691190.0
1575576281285,3716477.0
1575576281331,3741992.0
1575576281378,3760672.0
1575576281428,3740619.0
1575576281480,3738530.0
1575576281525,3750552.0
1575576281578,3770160.0
1575576281632,3777659.0
1575576281675,3789287.0
1575576281725,3814891.0
1575576281773,3862737.0
1575576281823,3912163.0
1575576281866,3949196.0
1575576281920,3954330.0
1575576281970,3979950.0
1575576282012,4007310.0
1575576282069,4045746.0
1575576282110,4064211.0
1575576282163,4070550.0
1575576282211,4086361.0
1575576282262,4088933.0
1575576282308,4100049.0
1575576282357,4101422.0
1575576282410,4073872.0
1575576282454,4057457.0
1575576282504,4057063.0
1575576282549,4063453.0
1575576282597,4059322.0
1575576282645,4053615.0
1575576282698,4048042.0
1575576282751,4042209.0
1575576282796,4039409.0
1575576282846,4044068.0
1575576282889,4026800.0
1575576282942,4006448.0
1575576282986,4003118.0
1575576283039,4013045.0
1575576283089,4022058.0
1575576283136,4024927.0
1575576283186,4028143.0
1575576283234,4036124.0
1575576283284,4044068.0
1575576283326,4053044.0
1575576283380,4049857.0
1575576283426,4023708.0
1575576283476,4008149.0
1575576283528,4011077.0
1575576283574,4023982.0
1575576283618,4037648.0
1575576283668,4048065.0
1575576283716,4061574.0
1575576283765,4073900.0
1575576283814,4086777.0
1575576283867,4095678.0
1575576283915,4080223.0
1575576283965,4073246.0
1575576284008,4088799.0
1575576284061,4107708.0
1575576284107,4124019.0
1575576284158,4138195.0
1575576284208,4154609.0
1575576284256,4170563.0
1575576284304,4187542.0
1575576284352,4198314.0
1575576284402,4184888.0
1575576284446,4173876.0
1575576284494,4179047.0
1575576284548,4187282.0
1575576284593,4188938.0
1575576284647,4189740.0
1575576284693,4189094.0
1575576284743,4192981.0
1575576284788,4204698.0
1575576284840,4218615.0
1575576284888,4221714.0
1575576284938,4200061.0
1575576284987,4194436.0
1575576285036,4201904.0
1575576285083,4210537.0
1575576285133,4215478.0
1575576285177,4216557.0
1575576285228,4225428.0
1575576285272,4235125.0
1575576285322,4242436.0
1575576285370,4254549.0
1575576285421,4261034.0
1575576285470,4261369.0
1575576285519,4273592.0
1575576285567,4286171.0
1575576285615,4289269.0
1575576285669,4288595.0
1575576285716,4285362.0
1575576285766,4283184.0
1575576285812,4280754.0
1575576285862,4275888.0
1575576285911,4233973.0
1575576285960,4169159.0
1575576286009,4130133.0
1575576286057,4104884.0
1575576286103,4090760.0
1575576286154,4069493.0
1575576286204,4056409.0
1575576286252,4044113.0
1575576286300,4036719.0
1575576286350,4029385.0
1575576286398,3978479.0
1575576286445,3908731.0
1575576286494,3874342.0
1575576286546,3874974.0
1575576286588,3868791.0
1575576286642,3888178.0
1575576286691,3918197.0
1575576286740,3948371.0
1575576286788,3975655.0
1575576286836,3994388.0
1575576286886,3978278.0
1575576286928,3917661.0
1575576286983,3882865.0
1575576287031,3873473.0
1575576287079,3874499.0
1575576287129,3873340.0
1575576287177,3864043.0
1575576287228,3871585.0
1575576287271,3875620.0
1575576287324,3885972.0
1575576287371,3884663.0
1575576287421,3834723.0
1575576287468,3796234.0
1575576287518,3793121.0
1575576287568,3786107.0
1575576287613,3783328.0
1575576287667,3774768.0
1575576287712,3786955.0
1575576287763,3822449.0
1575576287811,3871185.0
1575576287860,3901850.0
1575576287903,3888290.0
1575576287954,3865433.0
1575576288003,3866363.0
1575576288050,3882018.0
1575576288099,3891990.0
1575576288148,3903455.0
1575576288194,3918049.0
1575576288247,3933496.0
1575576288293,3933519.0
1575576288344,3915233.0
1575576288391,3865671.0
1575576288444,3848322.0
1575576288491,3848159.0
1575576288542,3837346.0
1575576288590,3833884.0
1575576288639,3803442.0
1575576288688,3797126.0
1575576288733,3805523.0
1575576288788,3822234.0
1575576288832,3797601.0
1575576288882,3752655.0
1575576288931,3720013.0
1575576288978,3715376.0
1575576289030,3694409.0
1575576289075,3686822.0
1575576289127,3684839.0
1575576289175,3688903.0
1575576289223,3688226.0
1575576289272,3689140.0
1575576289320,3672013.0
1575576289369,3622505.0
1575576289416,3609776.0
1575576289465,3620878.0
1575576289513,3665192.0
1575576289563,3692513.0
1575576289608,3717168.0
1575576289661,3756430.0
1575576289710,3822002.0
1575576289758,3829552.0
1575576289808,3796449.0
1575576289857,3775934.0
1575576289900,3786717.0
1575576289953,3795216.0
1575576290001,3765784.0
1575576290050,3679272.0
1575576290094,3616225.0
1575576290148,3545541.0
1575576290194,3533206.0
1575576290241,3541581.0
1575576290288,3410576.0
1575576290339,3263579.0
1575576290384,3196483.0
1575576290435,3135792.0
1575576290484,3102163.0
1575576290534,3118248.0
1575576290582,3125723.0
1575576290629,3063070.0
1575576290679,2983907.0
1575576290727,2946005.0
1575576290775,2865223.0
1575576290826,2811999.0
1575576290873,2797450.0
1575576290923,2820343.0
1575576290971,2820610.0
1575576291019,2770781.0
1575576291068,2731698.0
1575576291116,2722358.0
1575576291166,2730197.0
1575576291216,2709451.0
1575576291262,2626306.0
1575576291311,2596152.0
1575576291361,2607878.0
1575576291406,2586561.0
1575576291457,2557464.0
1575576291505,2571284.0
1575576291555,2591189.0
1575576291605,2610761.0
1575576291653,2614172.0
1575576291707,2633000.0
1575576291754,2610352.0
1575576291803,2573149.0
1575576291847,2547915.0
1575576291896,2548798.0
1575576291949,2559349.0
1575576291995,2556891.0
1575576292046,2558004.0
1575576292092,2601569.0
1575576292144,2630674.0
1575576292192,2566105.0
1575576292239,2523877.0
1575576292289,2523595.0
1575576292336,2545655.0
1575576292387,2584005.0
1575576292434,2645796.0
1575576292484,2704050.0
1575576292532,2705082.0
1575576292580,2702073.0
1575576292630,2661034.0
1575576292678,2643856.0
1575576292728,2586502.0
1575576292775,2552892.0
1575576292824,2529554.0
1575576292873,2540314.0
1575576292922,2579069.0
1575576292972,2619857.0
1575576293019,2645625.0
1575576293067,2697793.0
1575576293112,2740183.0
1575576293166,2725835.0
1575576293213,2761679.0
1575576293259,2779662.0
1575576293312,2800073.0
1575576293355,2789432.0
1575576293410,2775700.0
1575576293456,2771287.0
1575576293506,2751849.0
1575576293554,2748818.0
1575576293599,2748164.0
1575576293652,2775107.0
1575576293697,2878976.0
1575576293750,2962501.0
1575576293797,2997059.0
1575576293842,3033193.0
1575576293894,3067217.0
1575576293945,3077323.0
1575576293992,3097518.0
1575576294036,3136684.0
1575576294089,3219220.0
1575576294138,3267102.0
1575576294186,3233806.0
1575576294235,3216552.0
1575576294285,3194894.0
1575576294333,3163477.0
1575576294376,3110485.0
1575576294431,3127596.0
1575576294478,3151150.0
1575576294527,3230537.0
1575576294576,3200280.0
1575576294626,3160261.0
1575576294673,3148328.0
1575576294720,3139017.0
1575576294770,3143415.0
1575576294821,3176955.0
1575576294868,3207489.0
1575576294911,3209004.0
1575576294963,3175395.0
1575576295013,3123933.0
1575576295060,3106598.0
1575576295107,3077829.0
1575576295159,3058962.0
1575576295206,3065679.0
1575576295294,3093542.0
1575576295362,3116243.0
1575576295363,3127529.0
1575576295404,3126393.0
1575576295445,3130896.0
1575576295498,3121570.0
1575576295546,3083125.0
1575576295594,3060998.0
1575576295641,3057127.0
1575576295691,3027911.0
1575576295741,2974145.0
1575576295788,2961007.0
1575576295838,2959506.0
1575576295886,2962092.0
1575576295935,2959106.0
1575576295984,2967174.0
1575576296032,2968423.0
1575576296082,2971284.0
1575576296129,2976002.0
1575576296179,2988641.0
1575576296226,2997662.0
1575576296276,3009342.0
1575576296325,3000120.0
1575576296372,2992251.0
1575576296423,2996971.0
1575576296471,2940700.0
1575576296521,2891733.0
1575576296567,2870215.0
1575576296616,2867265.0
1575576296666,2875268.0
1575576296714,2882661.0
1575576296763,2919308.0
1575576296811,2935298.0
1575576296859,2948471.0
1575576296907,2964559.0
1575576296957,2947059.0
1575576297006,2938091.0
1575576297054,2940759.0
1575576297103,2904470.0
1575576297151,2890664.0
1575576297199,2863498.0
1575576297248,2839253.0
1575576297297,2845635.0
1575576297347,2855363.0
1575576297395,2862726.0
1575576297445,2863045.0
1575576297492,2850316.0
1575576297544,2847396.0
1575576297589,2834988.0
1575576297638,2847620.0
1575576297692,2872074.0
1575576297740,2894045.0
1575576297790,2919062.0
1575576297837,2908667.0
1575576297884,2883835.0
1575576297933,2821599.0
1575576297981,2781838.0
1575576298032,2779735.0
1575576298081,2790912.0
1575576298130,2824437.0
1575576298178,2850086.0
1575576298224,2848475.0
1575576298275,2875268.0
1575576298325,2854893.0
1575576298372,2812846.0
1575576298422,2815030.0
1575576298471,2845718.0
1575576298519,2914582.0
1575576298563,2977324.0
1575576298611,3061764.0
1575576298663,3093609.0
1575576298713,3104006.0
1575576298763,3059482.0
1575576298812,3058738.0
1575576298859,3035771.0
1575576298905,3004348.0
1575576298956,3018957.0
1575576299008,3061711.0
1575576299055,3143795.0
1575576299099,3255659.0
1575576299152,3280379.0
1575576299195,3284904.0
1575576299245,3291660.0
1575576299297,3296028.0
1575576299344,3316447.0
1575576299394,3380912.0
1575576299444,3395447.0
1575576299492,3452818.0
1575576299540,3489694.0
1575576299587,3484292.0
1575576299639,3462966.0
1575576299684,3432964.0
1575576299736,3424857.0
1575576299786,3413652.0
1575576299833,3483044.0
1575576299882,3577730.0
1575576299931,3614510.0
1575576299979,3616426.0
1575576300025,3615461.0
1575576300070,3625604.0
1575576300119,3638257.0
1575576300174,3681651.0
1575576300216,3702076.0
1575576300265,3689490.0
1575576300319,3700345.0
1575576300365,3651246.0
1575576300410,3636473.0
1575576300466,3629653.0
1575576300510,3605853.0
1575576300560,3651238.0
1575576300607,3715994.0
1575576300654,3791242.0
1575576300705,3802550.0
1575576300757,3809980.0
1575576300810,3799950.0
1575576300853,3821848.0
1575576300904,3848523.0
1575576300951,3893327.0
1575576301001,3894026.0
1575576301045,3938304.0
1575576301094,3925457.0
1575576301151,3940384.0
1575576301195,3947383.0
1575576301250,3944100.0
1575576301289,3948320.0
1575576301343,3919786.0
1575576301385,3931958.0
1575576301439,3944033.0
1575576301489,3951701.0
1575576301535,3966575.0
1575576301587,3969794.0
1575576301633,3997962.0
1575576301681,3998764.0
1575576301725,4040055.0
1575576301779,4036823.0
1575576301831,4009463.0
1575576301877,3975233.0
1575576301926,3959064.0
1575576301974,3954606.0
1575576302023,3940124.0
1575576302070,3899912.0
1575576302116,3877099.0
1575576302167,3979461.0
1575576302219,4097885.0
1575576302269,4206563.0
1575576302316,4273363.0
1575576302367,4303863.0
1575576302413,4303455.0
1575576302462,4326564.0
1575576302507,4428769.0
1575576302559,4736134.0
1575576302605,5471347.0
1575576302656,5863233.0
1575576302706,5869440.0
1575576302754,5873747.0
1575576302802,5899981.0
1575576302845,5899753.0
1575576302893,5848250.0
1575576302949,5764803.0
1575576302998,5700331.0
1575576303047,5680961.0
1575576303092,5688470.0
1575576303143,5689860.0
1575576303186,5675467.0
1575576303240,5666263.0
1575576303290,5643715.0
1575576303338,5630216.0
1575576303388,5585019.0
1575576303435,5541623.0
1575576303484,5497276.0
1575576303537,5484613.0
1575576303582,5481469.0
1575576303631,5472266.0
1575576303679,5441330.0
1575576303727,5397209.0
1575576303776,5379230.0
1575576303827,5355203.0
1575576303872,5331978.0
1575576303918,5330452.0
1575576303971,5335631.0
1575576304014,5322199.0
1575576304069,5259635.0
1575576304113,5228802.0
1575576304166,5214057.0
1575576304213,5186681.0
1575576304264,5174334.0
1575576304308,5178812.0
1575576304361,5151313.0
1575576304409,5142290.0
1575576304458,5123803.0
1575576304507,5091104.0
1575576304553,5072174.0
1575576304600,5057487.0
1575576304650,5043907.0
1575576304701,5055508.0
1575576304750,5072119.0
1575576304799,5038695.0
1575576304842,4951460.0
1575576304895,4881525.0
1575576304945,4841114.0
1575576304994,4801787.0
1575576305036,4776539.0
1575576305086,4766939.0
1575576305133,4757577.0
1575576305185,4681955.0
1575576305232,4575488.0
1575576305282,4496802.0
1575576305331,4449379.0
1575576305379,4409171.0
1575576305429,4404987.0
1575576305476,4390458.0
1575576305525,4353123.0
1575576305573,4273237.0
1575576305623,4227015.0
1575576305669,4166601.0
1575576305721,4081989.0
1575576305768,4023677.0
1575576305818,4005587.0
1575576305865,3997163.0
1575576305914,3965344.0
1575576305964,3892358.0
1575576306012,3864734.0
1575576306062,3848068.0
1575576306109,3778494.0
1575576306158,3721892.0
1575576306207,3723713.0
1575576306256,3729726.0
1575576306305,3695388.0
1575576306353,3683876.0
1575576306403,3688163.0
1575576306451,3696089.0
1575576306500,3706038.0
1575576306548,3694019.0
1575576306597,3676934.0
1575576306645,3681458.0
1575576306694,3663309.0
1575576306744,3664067.0
1575576306792,3676346.0
1575576306841,3710742.0
1575576306890,3732193.0
1575576306937,3700443.0
1575576306987,3740560.0
1575576307035,3810834.0
1575576307084,3873147.0
1575576307134,3872422.0
1575576307187,3869494.0
1575576307234,3873700.0
1575576307283,3905767.0
1575576307330,3955360.0
1575576307379,3945795.0
1575576307428,3986253.0
1575576307475,4023135.0
1575576307525,3997525.0
1575576307572,3973463.0
1575576307623,3950973.0
1575576307671,3953846.0
1575576307720,3968341.0
1575576307770,3974617.0
1575576307817,3992425.0
1575576307866,3969609.0
1575576307915,3975600.0
1575576307963,3959929.0
1575576308011,3939655.0
1575576308055,3953822.0
1575576308106,3964598.0
1575576308155,3936388.0
1575576308208,3976064.0
1575576308253,3976133.0
1575576308305,3926020.0
1575576308352,3876268.0
1575576308401,3842980.0
1575576308449,3849888.0
1575576308498,3861004.0
1575576308548,3896157.0
1575576308592,3991046.0
1575576308647,3993963.0
1575576308693,3980995.0
1575576308742,3977827.0
1575576308791,3973225.0
1575576308835,3989327.0
1575576308889,4019088.0
1575576308935,4035427.0
1575576308982,4069189.0
1575576309034,4064361.0
1575576309079,4041520.0
1575576309132,4014949.0
1575576309181,4012802.0
1575576309229,3973950.0
1575576309274,3957012.0
1575576309328,3937789.0
1575576309374,4046711.0
1575576309424,4035358.0
1575576309473,4025092.0
1575576309521,4012145.0
1575576309571,3997956.0
1575576309614,4028676.0
1575576309669,4053032.0
1575576309714,4054536.0
1575576309765,4092233.0
1575576309813,4091192.0
1575576309862,4059217.0
1575576309911,4030214.0
1575576309956,4029738.0
1575576310002,4045941.0
1575576310055,4013299.0
1575576310103,4056966.0
1575576310154,4074877.0
1575576310204,3976301.0
1575576310251,3914146.0
1575576310299,3894867.0
1575576310349,3873802.0
1575576310397,3859273.0
1575576310446,3841408.0
1575576310489,3865390.0
1575576310539,3791317.0
1575576310586,3686454.0
1575576310638,3651856.0
1575576310686,3652725.0
1575576310733,3667777.0
1575576310784,3599502.0
1575576310835,3626325.0
1575576310885,3620715.0
1575576310928,3551461.0
1575576310983,3501372.0
1575576311030,3462467.0
1575576311076,3443325.0
1575576311128,3429109.0
1575576311176,3429760.0
1575576311226,3443049.0
1575576311275,3466800.0
1575576311318,3451682.0
1575576311365,3429672.0
1575576311415,3380425.0
1575576311468,3335556.0
1575576311517,3324277.0
1575576311567,3359429.0
1575576311610,3428321.0
1575576311664,3477922.0
1575576311712,3433157.0
1575576311755,3409682.0
1575576311808,3424290.0
1575576311860,3394295.0
1575576311906,3336007.0
1575576311955,3330423.0
1575576312005,3345897.0
1575576312052,3388367.0
1575576312098,3386563.0
1575576312150,3385695.0
1575576312200,3400590.0
1575576312247,3427358.0
1575576312295,3406606.0
1575576312345,3411486.0
1575576312393,3430306.0
1575576312439,3482120.0
1575576312491,3430792.0
1575576312538,3428736.0
1575576312588,3434311.0
1575576312636,3441141.0
1575576312687,3450615.0
1575576312733,3410159.0
1575576312784,3400285.0
1575576312831,3356300.0
1575576312880,3347301.0
1575576312925,3355052.0
1575576312976,3376550.0
1575576313027,3399419.0
1575576313075,3425909.0
1575576313124,3451804.0
1575576313171,3481693.0
1575576313219,3426941.0
1575576313269,3412327.0
1575576313318,3431588.0
1575576313367,3439294.0
1575576313414,3453312.0
1575576313465,3515875.0
1575576313512,3519126.0
1575576313562,3531097.0
1575576313605,3503825.0
1575576313659,3467018.0
1575576313708,3445528.0
1575576313755,3460733.0
1575576313806,3478972.0
1575576313848,3514410.0
1575576313898,3518433.0
1575576313951,3485543.0
1575576313999,3455809.0
1575576314045,3427740.0
1575576314092,3396827.0
1575576314145,3382229.0
1575576314194,3405730.0
1575576314237,3429916.0
1575576314291,3464244.0
1575576314340,3474212.0
1575576314389,3472765.0
1575576314438,3471457.0
1575576314486,3447574.0
1575576314535,3452281.0
1575576314578,3489080.0
1575576314626,3502880.0
1575576314681,3502057.0
1575576314729,3468570.0
1575576314778,3467243.0
1575576314827,3484225.0
1575576314875,3487685.0
1575576314918,3472150.0
1575576314972,3477489.0
1575576315020,3477959.0
1575576315070,3525888.0
1575576315115,3540329.0
1575576315168,3537781.0
1575576315211,3567254.0
1575576315266,3603604.0
1575576315312,3570385.0
1575576315361,3540703.0
1575576315408,3552276.0
1575576315459,3607712.0
1575576315509,3621625.0
1575576315557,3618635.0
1575576315603,3624417.0
1575576315647,3632487.0
1575576315700,3638365.0
1575576315748,3626185.0
1575576315793,3578142.0
1575576315844,3613104.0
1575576315893,3624850.0
1575576315944,3632965.0
1575576315995,3656015.0
1575576316041,3667917.0
1575576316093,3690370.0
1575576316141,3716801.0
1575576316190,3701690.0
1575576316238,3750235.0
1575576316285,3780437.0
1575576316331,3773781.0
1575576316384,3760412.0
1575576316429,3760152.0
1575576316478,3757726.0
1575576316527,3784964.0
1575576316575,3761141.0
1575576316624,3784834.0
1575576316673,3790449.0
1575576316725,3780246.0
1575576316770,3775869.0
1575576316820,3788135.0
1575576316868,3809009.0
1575576316917,3824318.0
1575576316966,3845211.0
1575576317014,3862532.0
1575576317065,3845298.0
1575576317111,3809859.0
1575576317166,3808983.0
1575576317209,3814133.0
1575576317262,3817341.0
1575576317310,3878828.0
1575576317358,3862054.0
1575576317403,3886275.0
1575576317456,3872318.0
1575576317504,3871668.0
1575576317554,3869214.0
1575576317600,3877130.0
1575576317652,3888684.0
1575576317700,3891720.0
1575576317748,3897571.0
1575576317798,3939606.0
1575576317843,3903993.0
1575576317894,3870464.0
1575576317944,3855656.0
1575576317992,3853889.0
1575576318041,3851694.0
1575576318086,3848106.0
1575576318134,3848600.0
1575576318190,3850412.0
1575576318236,3842037.0
1575576318289,3817610.0
1575576318333,3801478.0
1575576318382,3807483.0
1575576318427,3826399.0
1575576318479,3830907.0
1575576318525,3868235.0
1575576318576,3878316.0
1575576318628,3883138.0
1575576318673,3866467.0
1575576318723,3841137.0
1575576318770,3840052.0
1575576318820,3880866.0
1575576318867,3901358.0
1575576318917,3906793.0
1575576318970,3913356.0
1575576319014,3901557.0
1575576319063,3894952.0
1575576319108,3874702.0
1575576319161,3858432.0
1575576319205,3852474.0
1575576319259,3862166.0
1575576319311,3914101.0
1575576319355,3905408.0
1575576319406,3902096.0
1575576319451,3886482.0
1575576319503,3866093.0
1575576319547,3841960.0
1575576319595,3833742.0
1575576319649,3812305.0
1575576319697,3831202.0
1575576319746,3830483.0
1575576319795,3817496.0
1575576319843,3827787.0
1575576319889,3822082.0
1575576319936,3818294.0
1575576319985,3844882.0
1575576320032,3845904.0
1575576320088,3845298.0
1575576320130,3810450.0
1575576320185,3804381.0
1575576320228,3812199.0
1575576320282,3798859.0
1575576320325,3790900.0
1575576320378,3758732.0
1575576320427,3771778.0
1575576320475,3777785.0
1575576320526,3773824.0
1575576320574,3776172.0
1575576320619,3790866.0
1575576320667,3801459.0
1575576320716,3805222.0
1575576320766,3811342.0
1575576320811,3820887.0
1575576320862,3842297.0
1575576320910,3815633.0
1575576320963,3827354.0
1575576321008,3833144.0
1575576321059,3848704.0
1575576321106,3899339.0
1575576321156,3930260.0
1575576321206,3928535.0
1575576321255,3921609.0
1575576321306,3893599.0
1575576321352,3876817.0
1575576321400,3887853.0
1575576321450,3898636.0
1575576321498,3904609.0
1575576321548,3880866.0
1575576321592,3844603.0
1575576321639,3907902.0
1575576321688,3931266.0
1575576321742,3911068.0
1575576321788,3889361.0
1575576321838,3890271.0
1575576321888,3897293.0
1575576321930,3901263.0
1575576321985,3911891.0
1575576322027,3901435.0
1575576322081,3929732.0
1575576322128,3928041.0
1575576322179,3923541.0
1575576322229,3934014.0
1575576322276,3947658.0
1575576322326,3950476.0
1575576322373,3926003.0
1575576322422,3923334.0
1575576322472,4000381.0
1575576322520,4029708.0
1575576322569,3998943.0
1575576322612,3979741.0
1575576322665,3965716.0
1575576322711,3993463.0
1575576322764,4021760.0
1575576322809,4031685.0
1575576322859,4025894.0
1575576322909,4079433.0
1575576322957,4084756.0
1575576323006,4074136.0
1575576323052,4062303.0
1575576323100,4050306.0
1575576323150,4041394.0
1575576323201,4001119.0
1575576323250,4017312.0
1575576323296,4114273.0
1575576323348,4139446.0
1575576323394,4115382.0
1575576323444,4098399.0
1575576323489,4075983.0
1575576323541,4112538.0
1575576323589,4146545.0
1575576323634,4112357.0
1575576323687,4123790.0
1575576323734,4180112.0
1575576323785,4169866.0
1575576323829,4154782.0
1575576323881,4152657.0
1575576323930,4149398.0
1575576323979,4126252.0
1575576324024,4106418.0
1575576324074,4130145.0
1575576324122,4154686.0
1575576324171,4136464.0
1575576324222,4117280.0
1575576324271,4106496.0
1575576324319,4108196.0
1575576324369,4140166.0
1575576324416,4156698.0
1575576324467,4121189.0
1575576324511,4160798.0
1575576324563,4162669.0
1575576324607,4132668.0
1575576324660,4133881.0
1575576324709,4134505.0
1575576324757,4136734.0
1575576324806,4073988.0
1575576324850,4060873.0
1575576324905,4167074.0
1575576324953,4192526.0
1575576325002,4156844.0
1575576325050,4138008.0
1575576325094,4115252.0
1575576325148,4158622.0
1575576325190,4202244.0
1575576325245,4154644.0
1575576325294,4187420.0
1575576325343,4221167.0
1575576325390,4220865.0
1575576325439,4196106.0
1575576325487,4195195.0
1575576325534,4202148.0
1575576325587,4149883.0
1575576325632,4105465.0
1575576325682,4193322.0
1575576325731,4230928.0
1575576325779,4212108.0
1575576325829,4190583.0
1575576325875,4167740.0
1575576325927,4181542.0
1575576325975,4234205.0
1575576326022,4222709.0
1575576326071,4234526.0
1575576326115,4237421.0
1575576326170,4207713.0
1575576326216,4186266.0
1575576326268,4188182.0
1575576326313,4186388.0
1575576326365,4149737.0
1575576326412,4209915.0
1575576326461,4211078.0
1575576326510,4156948.0
1575576326558,4100766.0
1575576326603,4085770.0
1575576326651,4070582.0
1575576326703,4069378.0
1575576326749,4098582.0
1575576326798,4095729.0
1575576326847,4104701.0
1575576326899,4079892.0
1575576326945,4035378.0
1575576326994,4011304.0
1575576327048,4010749.0
1575576327092,4013429.0
1575576327142,4000260.0
1575576327191,3982065.0
1575576327238,4039990.0
1575576327289,3988740.0
1575576327333,3940091.0
1575576327386,3929896.0
1575576327433,3918167.0
1575576327484,3930477.0
1575576327531,3993187.0
1575576327580,3993914.0
1575576327629,4023493.0
1575576327672,3998805.0
1575576327728,3958225.0
1575576327776,3951144.0
1575576327823,3948663.0
1575576327873,3962404.0
1575576327922,3948968.0
1575576327971,3937993.0
1575576328016,3972026.0
1575576328067,3934612.0
1575576328113,3875076.0
1575576328167,3859228.0
1575576328214,3849484.0
1575576328263,3854730.0
1575576328312,3901480.0
1575576328361,3873574.0
1575576328409,3890868.0
1575576328453,3825332.0
1575576328507,3777846.0
1575576328554,3770390.0
1575576328600,3789939.0
1575576328648,3784919.0
1575576328702,3790640.0
1575576328750,3822845.0
1575576328793,3816179.0
1575576328843,3760568.0
1575576328895,3725364.0
1575576328942,3720250.0
1575576328993,3711920.0
1575576329043,3713221.0
1575576329090,3706658.0
1575576329134,3722798.0
1575576329188,3720728.0
1575576329235,3675432.0
1575576329286,3643548.0
1575576329334,3647337.0
1575576329382,3654141.0
1575576329431,3689025.0
1575576329475,3714234.0
1575576329531,3728434.0
1575576329580,3758506.0
1575576329626,3733782.0
1575576329674,3734475.0
1575576329724,3731043.0
1575576329772,3746708.0
1575576329818,3819162.0
1575576329869,3857416.0
1575576329916,3897717.0
1575576329968,3934256.0
1575576330013,3931621.0
1575576330065,3908510.0
1575576330108,3915810.0
1575576330157,3928068.0
1575576330212,3925682.0
1575576330259,3845973.0
1575576330309,3874320.0
1575576330355,3996265.0
1575576330405,4016983.0
1575576330452,3991826.0
1575576330500,3980539.0
1575576330551,3985298.0
1575576330595,4009406.0
1575576330648,4030705.0
1575576330696,4011304.0
1575576330746,4037329.0
1575576330793,4031953.0
1575576330839,3953708.0
1575576330892,3952721.0
1575576330937,3950988.0
1575576330989,3962959.0
1575576331037,3907929.0
1575576331086,3912515.0
1575576331134,4009398.0
1575576331182,4000140.0
1575576331233,3966730.0
1575576331279,3925154.0
1575576331330,3910678.0
1575576331378,3935800.0
1575576331427,3975675.0
1575576331475,3939657.0
1575576331526,3964206.0
1575576331572,3948915.0
1575576331618,3914804.0
1575576331671,3893774.0
1575576331714,3901401.0
1575576331762,3906334.0
1575576331812,3892030.0
1575576331863,3909351.0
1575576331910,4001570.0
1575576331958,3985741.0
1575576332012,3958121.0
1575576332059,3922927.0
1575576332106,3886084.0
1575576332157,3905042.0
1575576332207,3900249.0
1575576332255,3945317.0
1575576332302,3958095.0
1575576332352,3925881.0
1575576332399,3892768.0
1575576332450,3874519.0
1575576332499,3866823.0
1575576332548,3881281.0
1575576332592,3871225.0
1575576332647,3875206.0
1575576332693,3872794.0
1575576332740,3853334.0
1575576332791,3838277.0
1575576332839,3796457.0
1575576332888,3778921.0
1575576332936,3794854.0
1575576332987,3801181.0
1575576333034,3840824.0
1575576333081,3829355.0
1575576333131,3813024.0
1575576333180,3791550.0
1575576333228,3767096.0
1575576333277,3754613.0
1575576333325,3759026.0
1575576333375,3753703.0
1575576333418,3779709.0
1575576333472,3783220.0
1575576333521,3774681.0
1575576333569,3774336.0
1575576333613,3755576.0
1575576333667,3770538.0
1575576333716,3821389.0
1575576333759,3841196.0
1575576333813,3851763.0
1575576333862,3849285.0
1575576333911,3841483.0
1575576333955,3824292.0
1575576334009,3801268.0
1575576334056,3794690.0
1575576334104,3799257.0
1575576334153,3788448.0
1575576334203,3828853.0
1575576334252,3808247.0
1575576334303,3803757.0
1575576334350,3810129.0
1575576334398,3776806.0
1575576334443,3785327.0
1575576334495,3798373.0
1575576334542,3818788.0
1575576334592,3821076.0
1575576334643,3820176.0
1575576334691,3818130.0
1575576334739,3815988.0
1575576334788,3800220.0
1575576334837,3795330.0
1575576334882,3790744.0
1575576334934,3799007.0
1575576334977,3787087.0
1575576335032,3760499.0
1575576335075,3765719.0
1575576335125,3772080.0
1575576335171,3802170.0
1575576335224,3810970.0
1575576335270,3820800.0
1575576335319,3808768.0
1575576335365,3806409.0
1575576335419,3800401.0
1575576335468,3806140.0
1575576335518,3818563.0
1575576335564,3792574.0
1575576335611,3769333.0
1575576335660,3779362.0
1575576335713,3765804.0
1575576335762,3739261.0
1575576335804,3752177.0
1575576335858,3796874.0
1575576335903,3844725.0
1575576335950,3862617.0
1575576336003,3855250.0
1575576336053,3831539.0
1575576336097,3830170.0
1575576336149,3842236.0
1575576336198,3874399.0
1575576336250,3881888.0
1575576336295,3863840.0
1575576336349,3833352.0
1575576336393,3826980.0
1575576336442,3788552.0
1575576336490,3774004.0
1575576336539,3785022.0
1575576336584,3802890.0
1575576336637,3850038.0
1575576336690,3875665.0
1575576336733,3876209.0
1575576336783,3841830.0
1575576336832,3814566.0
1575576336880,3813327.0
1575576336927,3832078.0
1575576336978,3850924.0
1575576337030,3856566.0
1575576337074,3850871.0
1575576337124,3835822.0
1575576337171,3782804.0
1575576337218,3787363.0
1575576337266,3767824.0
1575576337315,3780211.0
1575576337365,3830058.0
1575576337412,3848878.0
1575576337462,3879271.0
1575576337509,3842167.0
1575576337560,3804641.0
1575576337607,3791264.0
1575576337656,3812642.0
1575576337704,3831661.0
1575576337754,3849112.0
1575576337806,3858119.0
1575576337849,3839004.0
1575576337900,3783793.0
1575576337948,3748475.0
1575576337998,3727869.0
1575576338047,3750920.0
1575576338095,3804692.0
1575576338145,3833004.0
1575576338192,3859411.0
1575576338246,3847793.0
1575576338294,3810320.0
1575576338344,3782146.0
1575576338391,3800506.0
1575576338440,3808160.0
1575576338486,3829408.0
1575576338537,3842740.0
1575576338588,3829955.0
1575576338633,3807788.0
1575576338683,3746933.0
1575576338730,3742000.0
1575576338780,3736425.0
1575576338828,3768787.0
1575576338877,3781747.0
1575576338927,3812045.0
1575576338974,3809513.0
1575576339024,3783767.0
1575576339070,3762285.0
1575576339118,3790017.0
1575576339167,3785335.0
1575576339218,3791030.0
1575576339268,3787546.0
1575576339316,3806183.0
1575576339366,3784529.0
1575576339413,3767486.0
1575576339462,3752923.0
1575576339507,3729395.0
1575576339559,3749229.0
1575576339605,3753703.0
1575576339656,3781894.0
1575576339706,3804094.0
1575576339754,3786368.0
1575576339804,3764289.0
1575576339846,3759242.0
1575576339900,3779614.0
1575576339948,3778555.0
1575576339998,3774455.0
1575576340047,3832571.0
1575576340090,3824926.0
1575576340145,3807778.0
1575576340193,3800411.0
1575576340241,3828618.0
1575576340288,3877215.0
1575576340339,3907141.0
1575576340388,3875638.0
1575576340436,3897423.0
1575576340487,3892733.0
1575576340533,3909473.0
1575576340584,3906637.0
1575576340626,3910582.0
1575576340680,3887705.0
1575576340731,3882183.0
1575576340778,3960133.0
1575576340827,3939466.0
1575576340875,3925457.0
1575576340924,3916416.0
1575576340973,3933675.0
1575576341021,3992320.0
1575576341071,4019618.0
1575576341114,3993967.0
1575576341168,3984077.0
1575576341215,3968213.0
1575576341267,3991202.0
1575576341308,4001005.0
1575576341356,4007387.0
1575576341407,3974123.0
1575576341455,3956675.0
1575576341504,4008764.0
1575576341553,3982142.0
1575576341601,3957983.0
1575576341652,3948907.0
1575576341704,3955937.0
1575576341750,3992813.0
1575576341800,4028529.0
1575576341850,4012604.0
1575576341897,4037623.0
1575576341945,4015274.0
1575576341990,4015544.0
1575576342043,4020154.0
1575576342088,4037910.0
1575576342140,4020406.0
1575576342190,3993654.0
1575576342238,4083602.0
1575576342288,4088708.0
1575576342332,4082631.0
1575576342387,4059416.0
1575576342433,4043284.0
1575576342481,4085441.0
1575576342530,4115539.0
1575576342579,4082466.0
1575576342629,4104303.0
1575576342671,4128359.0
1575576342725,4115988.0
1575576342771,4121728.0
1575576342821,4129434.0
1575576342871,4134028.0
1575576342919,4118954.0
1575576342963,4134497.0
1575576343017,4250363.0
1575576343067,4292581.0
1575576343111,4250961.0
1575576343164,4201835.0
1575576343211,4172535.0
1575576343261,4234057.0
1575576343311,4237214.0
1575576343358,4256509.0
1575576343408,4286218.0
1575576343449,4277081.0
1575576343505,4226196.0
1575576343552,4198958.0
1575576343597,4199054.0
1575576343651,4212872.0
1575576343698,4193367.0
1575576343748,4180207.0
1575576343791,4245579.0
1575576343845,4339122.0
1575576343892,4316680.0
1575576343942,4275581.0
1575576343991,4222329.0
1575576344039,4247017.0
1575576344088,4295580.0
1575576344136,4292234.0
1575576344186,4262570.0
1575576344235,4308445.0
1575576344283,4289832.0
1575576344331,4287691.0
1575576344380,4283643.0
1575576344430,4285775.0
1575576344476,4260142.0
1575576344521,4212047.0
1575576344572,4245839.0
1575576344618,4354771.0
1575576344665,4323468.0
1575576344715,4298953.0
1575576344764,4257680.0
1575576344813,4280080.0
1575576344864,4336081.0
1575576344911,4345780.0
1575576344962,4318543.0
1575576345009,4367392.0
1575576345062,4345841.0
1575576345107,4344177.0
1575576345160,4332344.0
1575576345208,4333870.0
1575576345251,4303164.0
1575576345306,4298648.0
1575576345353,4341499.0
1575576345403,4311062.0
1575576345452,4314833.0
1575576345501,4279249.0
1575576345550,4249132.0
1575576345595,4220777.0
1575576345649,4200397.0
1575576345692,4190453.0
1575576345747,4197345.0
1575576345793,4153967.0
1575576345838,4132207.0
1575576345891,4120480.0
1575576345940,4084817.0
1575576345989,4082813.0
1575576346034,4065312.0
1575576346087,4035344.0
1575576346133,4092436.0
1575576346183,4133802.0
1575576346231,4100975.0
1575576346281,4071631.0
1575576346329,4067088.0
1575576346374,4078010.0
1575576346420,4074916.0
1575576346471,4107302.0
1575576346521,4129070.0
1575576346568,4144855.0
1575576346617,4129322.0
1575576346669,4115693.0
1575576346713,4091404.0
1575576346769,4086672.0
1575576346815,4051632.0
1575576346865,4081495.0
1575576346912,4103913.0
1575576346957,4132329.0
1575576347010,4111437.0
1575576347054,4080619.0
1575576347105,4076442.0
1575576347155,4112633.0
1575576347205,4132528.0
1575576347253,4164482.0
1575576347303,4192422.0
1575576347351,4189352.0
1575576347398,4168842.0
1575576347449,4142854.0
1575576347495,4121415.0
1575576347546,4124952.0
1575576347591,4066403.0
1575576347643,4093362.0
1575576347689,4176532.0
1575576347736,4196254.0
1575576347789,4163598.0
1575576347841,4184941.0
1575576347885,4197995.0
1575576347934,4202225.0
1575576347983,4224930.0
1575576348031,4238374.0
1575576348081,4274757.0
1575576348130,4261936.0
1575576348179,4236044.0
1575576348227,4204757.0
1575576348276,4174303.0
1575576348326,4184456.0
1575576348374,4163234.0
1575576348423,4166909.0
1575576348471,4294781.0
1575576348517,4307474.0
1575576348569,4283079.0
1575576348613,4242874.0
1575576348666,4228969.0
1575576348714,4280817.0
1575576348763,4314877.0
1575576348812,4293369.0
1575576348857,4320546.0
1575576348910,4313723.0
1575576348958,4292685.0
1575576349006,4282343.0
1575576349054,4280133.0
1575576349101,4261130.0
1575576349153,4291496.0
1575576349196,4272676.0
1575576349249,4332726.0
1575576349298,4303270.0
1575576349348,4273284.0
1575576349395,4232722.0
1575576349446,4216131.0
1575576349493,4221029.0
1575576349537,4265344.0
1575576349592,4293266.0
1575576349640,4301179.0
1575576349682,4265845.0
1575576349732,4238401.0
1575576349786,4236893.0
1575576349833,4236450.0
1575576349883,4241349.0
1575576349932,4223845.0
1575576349981,4237949.0
1575576350025,4207288.0
1575576350079,4163781.0
1575576350122,4149286.0
1575576350176,4136915.0
1575576350222,4131228.0
1575576350268,4137313.0
1575576350319,4138493.0
1575576350367,4166909.0
1575576350415,4154747.0
1575576350465,4135277.0
1575576350513,4106357.0
1575576350566,4107146.0
1575576350610,4134141.0
1575576350658,4134696.0
1575576350711,4126557.0
1575576350762,4140054.0
1575576350808,4216096.0
1575576350857,4241686.0
1575576350907,4204149.0
1575576350955,4185833.0
1575576351002,4198420.0
1575576351053,4256623.0
1575576351099,4276447.0
1575576351151,4264797.0
1575576351198,4297167.0
1575576351248,4287197.0
1575576351295,4287189.0
1575576351346,4285273.0
1575576351392,4296299.0
1575576351442,4263688.0
1575576351490,4226586.0
1575576351533,4279456.0
1575576351588,4335829.0
1575576351636,4314477.0
1575576351682,4298788.0
1575576351734,4277046.0
1575576351780,4323346.0
1575576351831,4336487.0
1575576351880,4341629.0
1575576351929,4370192.0
1575576351973,4370799.0
1575576352025,4348025.0
1575576352074,4335481.0
1575576352122,4333939.0
1575576352172,4350644.0
1575576352221,4326440.0
1575576352271,4310672.0
1575576352319,4373867.0
1575576352363,4371301.0
1575576352414,4344169.0
1575576352462,4302012.0
1575576352512,4280687.0
1575576352562,4270311.0
1575576352605,4232021.0
1575576352658,4167464.0
1575576352708,4154973.0
1575576352756,4134168.0
1575576352802,4119820.0
1575576352848,4116354.0
1575576352901,4108066.0
1575576352951,4125031.0
1575576352999,4093033.0
1575576353049,4056192.0
1575576353093,4133908.0
1575576353144,4160814.0
1575576353193,4141049.0
1575576353244,4097966.0
1575576353292,4084807.0
1575576353341,4121380.0
1575576353390,4144136.0
1575576353437,4121346.0
1575576353482,4182200.0
1575576353534,4187489.0
1575576353582,4182062.0
1575576353632,4192101.0
1575576353682,4176020.0
1575576353731,4168141.0
1575576353779,4156204.0
1575576353823,4139194.0
1575576353875,4215637.0
1575576353923,4160780.0
1575576353968,4159532.0
1575576354016,4130838.0
1575576354071,4090034.0
1575576354116,4096008.0
1575576354165,4055239.0
1575576354215,4040076.0
1575576354269,4030472.0
1575576354313,4005782.0
1575576354364,3995475.0
1575576354411,3999437.0
1575576354459,3982065.0
1575576354504,3981580.0
1575576354557,3970734.0
1575576354605,3973648.0
1575576354654,3963999.0
1575576354697,3927139.0
1575576354751,3931249.0
1575576354800,3893410.0
1575576354846,3867767.0
1575576354898,3862842.0
1575576354950,3873332.0
1575576354994,3909447.0
1575576355045,3900196.0
1575576355092,3892508.0
1575576355141,3882227.0
1575576355185,3836247.0
1575576355238,3819292.0
1575576355289,3839455.0
1575576355336,3848669.0
1575576355379,3867003.0
1575576355427,3866518.0
1575576355478,3820982.0
1575576355527,3823772.0
1575576355575,3790770.0
1575576355624,3806738.0
1575576355676,3858196.0
1575576355726,3898930.0
1575576355774,3926836.0
1575576355823,3935652.0
1575576355870,3904765.0
1575576355919,3869188.0
1575576355964,3853169.0
1575576356018,3871425.0
1575576356070,3869058.0
1575576356110,3868728.0
1575576356164,3929272.0
1575576356212,3958269.0
1575576356260,3949253.0
1575576356304,3928578.0
1575576356358,3900761.0
1575576356407,3943377.0
1575576356454,3971610.0
1575576356505,4010975.0
1575576356553,3986755.0
1575576356598,4034269.0
1575576356644,3998699.0
1575576356694,3975450.0
1575576356750,3972053.0
1575576356795,3995379.0
1575576356846,3978693.0
1575576356893,3976039.0
1575576356942,4063741.0
1575576356986,4043040.0
1575576357039,4018344.0
1575576357086,3977098.0
1575576357136,3956205.0
1575576357185,4012084.0
1575576357234,4049664.0
1575576357283,4077899.0
1575576357326,4098608.0
1575576357382,4056669.0
1575576357428,4024429.0
1575576357479,4021239.0
1575576357527,4028330.0
1575576357576,4043950.0
1575576357626,4020199.0
1575576357673,4051848.0
1575576357722,4128593.0
1575576357767,4100100.0
1575576357819,4070036.0
1575576357869,4050306.0
1575576357916,4059034.0
1575576357966,4105760.0
1575576358013,4150897.0
1575576358062,4171243.0
1575576358108,4174000.0
1575576358155,4135503.0
1575576358206,4105396.0
1575576358253,4101981.0
1575576358303,4109799.0
1575576358350,4089896.0
1575576358400,4086611.0
1575576358448,4116404.0
1575576358496,4040882.0
1575576358547,4003460.0
1575576358593,3980739.0
1575576358644,3969989.0
1575576358690,3996932.0
1575576358741,3999142.0
1575576358789,4038855.0
1575576358837,4049178.0
1575576358886,4007671.0
1575576358935,3984449.0
1575576358983,3982785.0
1575576359031,3999203.0
1575576359082,4026571.0
1575576359133,4027757.0
1575576359182,4029267.0
1575576359228,4029718.0
1575576359278,3960340.0
1575576359328,3943592.0
1575576359377,3937889.0
1575576359426,3957757.0
1575576359469,3982801.0
1575576359523,4034078.0
1575576359569,4069627.0
1575576359616,4076399.0
1575576359669,4045269.0
1575576359716,4046413.0
1575576359765,4050653.0
1575576359812,4062650.0
1575576359862,4053668.0
1575576359909,4054259.0
1575576359961,4114247.0
1575576360008,4105534.0
1575576360053,4068215.0
1575576360103,4041575.0
1575576360153,4016774.0
1575576360203,4035161.0
1575576360250,4024108.0
1575576360301,4036349.0
1575576360349,4041880.0
1575576360398,4007541.0
1575576360448,3991938.0
1575576360494,3986797.0
1575576360545,3997945.0
1575576360589,3995597.0
1575576360641,3982222.0
1575576360690,3954403.0
1575576360739,3994947.0
1575576360789,3931083.0
1575576360837,3923766.0
1575576360887,3897484.0
1575576360928,3908683.0
1575576360978,3970933.0
1575576361031,3991184.0
1575576361080,4029007.0
1575576361128,4036575.0
1575576361178,4017129.0
1575576361227,3989443.0
1575576361268,3995485.0
1575576361325,4022956.0
1575576361371,4021898.0
1575576361420,3988384.0
1575576361469,4014114.0
1575576361518,4126130.0
1575576361566,4101703.0
1575576361611,4075306.0
1575576361663,4074197.0
1575576361710,4097263.0
1575576361760,4156186.0
1575576361810,4187282.0
1575576361858,4221531.0
1575576361908,4223386.0
1575576361952,4162818.0
1575576362005,4161188.0
1575576362054,4157884.0
1575576362098,4164431.0
1575576362150,4114316.0
1575576362199,4087736.0
1575576362248,4191979.0
1575576362295,4226533.0
1575576362346,4199495.0
1575576362391,4163746.0
1575576362442,4142082.0
1575576362490,4180754.0
1575576362539,4194667.0
1575576362589,4219702.0
1575576362635,4236694.0
1575576362687,4225458.0
1575576362732,4176991.0
1575576362784,4134903.0
1575576362831,4140418.0
1575576362881,4134229.0
1575576362929,4093633.0
1575576362973,4115972.0
1575576363027,4156021.0
1575576363073,4156064.0
1575576363124,4127605.0
1575576363172,4127951.0
1575576363221,4193306.0
1575576363270,4215358.0
1575576363318,4258269.0
1575576363369,4281675.0
1575576363412,4262379.0
1575576363464,4243976.0
1575576363513,4209820.0
1575576363562,4197302.0
1575576363606,4209706.0
1575576363658,4181733.0
1575576363707,4169457.0
1575576363753,4223880.0
1575576363805,4209152.0
1575576363849,4182280.0
1575576363902,4158848.0
1575576363951,4145775.0
1575576363999,4180414.0
1575576364049,4209403.0
1575576364093,4244746.0
1575576364146,4277723.0
1575576364194,4262960.0
1575576364243,4222935.0
1575576364291,4221653.0
1575576364342,4219745.0
1575576364390,4237681.0
1575576364432,4223932.0
1575576364486,4215629.0
1575576364534,4309416.0
1575576364585,4275980.0
1575576364632,4247476.0
1575576364681,4228431.0
1575576364729,4240603.0
1575576364773,4271559.0
1575576364828,4293162.0
1575576364874,4330376.0
1575576364927,4315276.0
1575576364973,4274905.0
1575576365015,4261719.0
1575576365064,4256735.0
1575576365116,4263974.0
1575576365168,4250754.0
1575576365214,4241184.0
1575576365265,4313004.0
1575576365313,4291116.0
1575576365363,4258513.0
1575576365411,4231986.0
1575576365457,4230660.0
1575576365508,4286069.0
1575576365557,4281319.0
1575576365602,4324845.0
1575576365653,4343405.0
1575576365703,4302073.0
1575576365751,4272668.0
1575576365798,4268905.0
1575576365845,4277097.0
1575576365895,4251733.0
1575576365947,4229497.0
1575576365990,4315666.0
1575576366043,4317173.0
1575576366093,4295094.0
1575576366141,4272806.0
1575576366190,4270874.0
1575576366236,4317062.0
1575576366288,4340831.0
1575576366337,4361411.0
1575576366385,4366837.0
1575576366432,4319914.0
1575576366480,4299507.0
1575576366530,4300296.0
1575576366576,4307750.0
1575576366628,4295424.0
1575576366675,4265914.0
1575576366724,4289997.0
1575576366773,4330394.0
1575576366822,4298987.0
1575576366872,4275157.0
1575576366917,4252999.0
1575576366969,4281545.0
1575576367018,4331538.0
1575576367066,4357597.0
1575576367110,4391968.0
1575576367164,4378227.0
1575576367211,4345581.0
1575576367257,4321387.0
1575576367309,4316993.0
1575576367359,4311808.0
1575576367408,4270683.0
1575576367455,4247885.0
1575576367506,4321621.0
1575576367553,4327740.0
1575576367597,4311245.0
1575576367650,4290872.0
1575576367698,4256979.0
1575576367748,4300972.0
1575576367797,4332214.0
1575576367842,4342209.0
1575576367894,4357762.0
1575576367942,4345589.0
1575576367986,4310152.0
1575576368039,4299056.0
1575576368089,4297955.0
1575576368136,4286756.0
1575576368186,4248750.0
1575576368233,4270006.0
1575576368284,4375237.0
1575576368332,4384800.0
1575576368379,4335733.0
1575576368430,4282993.0
1575576368478,4285819.0
1575576368526,4323598.0
1575576368574,4355697.0
1575576368625,4371163.0
1575576368672,4378662.0
1575576368719,4336123.0
1575576368770,4329866.0
1575576368818,4309138.0
1575576368867,4312285.0
1575576368915,4307951.0
1575576368966,4292608.0
1575576369013,4354346.0
1575576369060,4309485.0
1575576369106,4298796.0
1575576369158,4265734.0
1575576369208,4208302.0
1575576369257,4234768.0
1575576369306,4230867.0
1575576369354,4262534.0
1575576369398,4259959.0
1575576369451,4225198.0
1575576369500,4196148.0
1575576369549,4169224.0
1575576369593,4175110.0
1575576369647,4180605.0
1575576369696,4146511.0
1575576369743,4177718.0
1575576369792,4113692.0
1575576369839,4085319.0
1575576369890,4081200.0
1575576369938,4035628.0
1575576369983,4063561.0
1575576370035,4111412.0
1575576370085,4148246.0
1575576370132,4164673.0
1575576370180,4141909.0
1575576370230,4091985.0
1575576370279,4063465.0
1575576370329,4040007.0
1575576370377,4061775.0
1575576370423,4043587.0
1575576370473,4045009.0
1575576370520,4107164.0
1575576370571,4070036.0
1575576370616,4012233.0
1575576370669,3970180.0
1575576370718,3992009.0
1575576370767,4051242.0
1575576370815,4058705.0
1575576370862,4086454.0
1575576370912,4099657.0
1575576370960,4056903.0
1575576371009,4016999.0
1575576371058,4017190.0
1575576371104,4028720.0
1575576371155,4009658.0
1575576371201,4011018.0
1575576371252,4051120.0
1575576371303,3957662.0
1575576371351,3915463.0
1575576371394,3889379.0
1575576371443,3890314.0
1575576371496,3935869.0
1575576371542,3949687.0
1575576371592,3981466.0
1575576371643,3995225.0
1575576371692,3951144.0
1575576371741,3927261.0
1575576371790,3926662.0
1575576371838,3939848.0
1575576371883,3940004.0
1575576371934,3946498.0
1575576371982,3982923.0
1575576372032,3962534.0
1575576372083,3885832.0
1575576372130,3870713.0
1575576372179,3850932.0
1575576372227,3875145.0
1575576372277,3901982.0
1575576372322,3952018.0
1575576372374,3988368.0
1575576372424,3960809.0
1575576372472,3925762.0
1575576372521,3931491.0
1575576372564,3943446.0
1575576372614,3938444.0
1575576372669,3919398.0
1575576372715,3945776.0
1575576372764,4028781.0
1575576372811,4011713.0
1575576372861,3980566.0
1575576372904,3953753.0
1575576372959,3941495.0
1575576373007,3968863.0
1575576373055,3971177.0
1575576373105,4016505.0
1575576373153,4007716.0
1575576373203,3984361.0
1575576373250,3988108.0
1575576373301,4007586.0
1575576373345,4018405.0
1575576373397,3992458.0
1575576373450,3986173.0
1575576373494,3990985.0
1575576373543,3925804.0
1575576373591,3921011.0
1575576373641,3911657.0
1575576373684,3860780.0
1575576373733,3850749.0
1575576373789,3851721.0
1575576373835,3836350.0
1575576373885,3845973.0
1575576373934,3845983.0
1575576373983,3839410.0
1575576374028,3858413.0
1575576374079,3891242.0
1575576374126,3902191.0
1575576374177,3902425.0
1575576374227,3939856.0
1575576374274,3870862.0
1575576374323,3864827.0
1575576374372,3852076.0
1575576374421,3864827.0
1575576374466,3933129.0
1575576374518,3933980.0
1575576374569,3974964.0
1575576374611,3970830.0
1575576374664,3936674.0
1575576374712,3938478.0
1575576374763,3952479.0
1575576374809,3965793.0
1575576374853,3924408.0
1575576374906,3900856.0
1575576374953,3963601.0
1575576375003,4015553.0
1575576375050,3998691.0
1575576375099,3965403.0
1575576375151,3966409.0
1575576375201,4018344.0
1575576375246,4067393.0
1575576375298,4054180.0
1575576375347,4115521.0
1575576375396,4130328.0
1575576375444,4107796.0
1575576375492,4111177.0
1575576375541,4097863.0
1575576375587,4089801.0
1575576375638,4080898.0
1575576375688,4126191.0
1575576375731,4240993.0
1575576375785,4289269.0
1575576375834,4226281.0
1575576375883,4179132.0
1575576375929,4174807.0
1575576375979,4215393.0
1575576376026,4271932.0
1575576376077,4233398.0
1575576376125,4259474.0
1575576376174,4284734.0
1575576376224,4246176.0
1575576376269,4225458.0
1575576376320,4210722.0
1575576376371,4203942.0
1575576376418,4188338.0
1575576376467,4199468.0
1575576376514,4310863.0
1575576376566,4303034.0
1575576376608,4293388.0
1575576376662,4261225.0
1575576376707,4268005.0
1575576376758,4301909.0
1575576376808,4333141.0
1575576376856,4329675.0
1575576376906,4373737.0
1575576376954,4374440.0
1575576376998,4340762.0
1575576377046,4314843.0
1575576377096,4284631.0
1575576377150,4280809.0
1575576377197,4256467.0
1575576377247,4260628.0
1575576377295,4345417.0
1575576377346,4309459.0
1575576377388,4306893.0
1575576377440,4256562.0
1575576377488,4252747.0
1575576377538,4318354.0
1575576377587,4351754.0
1575576377635,4306001.0
1575576377684,4352282.0
1575576377729,4348511.0
1575576377783,4317062.0
1575576377828,4314634.0
1575576377879,4308965.0
1575576377928,4309883.0
1575576377977,4233027.0
1575576378019,4214926.0
1575576378073,4378522.0
1575576378119,4416692.0
1575576378172,4348078.0
1575576378220,4330012.0
1575576378269,4327775.0
1575576378317,4385397.0
1575576378368,4371076.0
1575576378415,4337989.0
1575576378465,4387409.0
1575576378509,4376720.0
1575576378561,4352672.0
1575576378606,4352006.0
1575576378659,4346465.0
1575576378707,4321647.0
1575576378756,4258287.0
1575576378806,4292433.0
1575576378849,4405345.0
1575576378903,4418364.0
1575576378949,4380283.0
1575576378994,4332544.0
1575576379049,4328608.0
1575576379093,4396936.0
1575576379147,4420652.0
1575576379191,4330099.0
1575576379243,4396373.0
1575576379290,4378601.0
1575576379341,4358359.0
1575576379391,4353635.0
1575576379438,4346977.0
1575576379487,4318882.0
1575576379534,4270266.0
1575576379587,4287041.0
1575576379630,4373676.0
1575576379682,4332562.0
1575576379731,4310316.0
1575576379778,4269401.0
1575576379829,4291427.0
1575576379877,4340953.0
1575576379925,4320572.0
1575576379971,4367357.0
1575576380022,4345660.0
1575576380071,4321249.0
1575576380116,4305635.0
1575576380169,4298042.0
1575576380217,4273015.0
1575576380266,4205919.0
1575576380310,4222208.0
1575576380360,4329656.0
1575576380410,4300036.0
1575576380458,4268186.0
1575576380503,4239475.0
1575576380555,4225562.0
1575576380603,4201992.0
1575576380656,4228059.0
1575576380706,4255148.0
1575576380751,4259683.0
1575576380802,4225891.0
1575576380849,4200336.0
1575576380900,4175473.0
1575576380949,4134712.0
1575576380993,4124233.0
1575576381047,4079605.0
1575576381090,4126868.0
1575576381144,4207609.0
1575576381191,4184870.0
1575576381241,4146781.0
1575576381290,4088240.0
1575576381338,4112824.0
1575576381388,4170168.0
1575576381433,4160477.0
1575576381486,4172145.0
1575576381532,4200474.0
1575576381581,4174329.0
1575576381630,4146911.0
1575576381679,4135901.0
1575576381728,4150916.0
1575576381774,4105776.0
1575576381824,4128757.0
1575576381874,4266739.0
1575576381924,4240335.0
1575576381971,4216131.0
1575576382020,4179045.0
1575576382069,4215507.0
1575576382114,4278737.0
1575576382167,4264051.0
1575576382212,4315830.0
1575576382265,4318882.0
1575576382312,4259015.0
1575576382362,4225891.0
1575576382410,4221722.0
1575576382459,4224410.0
1575576382508,4171158.0
1575576382553,4194198.0
1575576382601,4297167.0
1575576382653,4261390.0
1575576382703,4217916.0
1575576382746,4176627.0
1575576382800,4175422.0
1575576382844,4255262.0
1575576382894,4242856.0
1575576382946,4271073.0
1575576382994,4294357.0
1575576383044,4258157.0
1575576383093,4242683.0
1575576383141,4235203.0
1575576383190,4199338.0
1575576383234,4163900.0
1575576383288,4208000.0
1575576383336,4295155.0
1575576383385,4244945.0
1575576383434,4189344.0
1575576383483,4123253.0
1575576383531,4141917.0
1575576383580,4207687.0
1575576383629,4202790.0
1575576383677,4223898.0
1575576383726,4182694.0
1575576383773,4123956.0
1575576383824,4095514.0
1575576383871,4101755.0
1575576383920,4124155.0
1575576383969,4093094.0
1575576384013,4094933.0
1575576384068,4213453.0
1575576384112,4216823.0
1575576384160,4187731.0
1575576384207,4152120.0
1575576384256,4178647.0
1575576384307,4237551.0
1575576384357,4255488.0
1575576384404,4203223.0
1575576384457,4274316.0
1575576384506,4256735.0
1575576384553,4224158.0
1575576384598,4217335.0
1575576384645,4210582.0
1575576384695,4193133.0
1575576384746,4163104.0
1575576384794,4202894.0
1575576384843,4279509.0
1575576384891,4218158.0
1575576384945,4193097.0
1575576384992,4164187.0
1575576385042,4184254.0
1575576385092,4268048.0
1575576385137,4274048.0
1575576385184,4275762.0
1575576385231,4275685.0
1575576385280,4259734.0
1575576385329,4234603.0
1575576385378,4240038.0
1575576385427,4238626.0
1575576385477,4208528.0
1575576385523,4188312.0
1575576385576,4243976.0
1575576385623,4175839.0
1575576385670,4161751.0
1575576385718,4132130.0
1575576385766,4127857.0
1575576385819,4198672.0
1575576385867,4219753.0
1575576385916,4233260.0
1575576385964,4230469.0
1575576386012,4200779.0
1575576386061,4182253.0
1575576386109,4188155.0
1575576386159,4197900.0
1575576386207,4150525.0
1575576386258,4154774.0
1575576386305,4204619.0
1575576386353,4243220.0
1575576386403,4186873.0
1575576386450,4176203.0
1575576386501,4141320.0
1575576386548,4138034.0
1575576386595,4185825.0
1575576386646,4201593.0
1575576386694,4211311.0
1575576386743,4183901.0
1575576386791,4160841.0
1575576386841,4164638.0
1575576386889,4152752.0
1575576386938,4137244.0
1575576386986,4152641.0
1575576387037,4155207.0
1575576387085,4179114.0
1575576387133,4136551.0
1575576387182,4118190.0
1575576387230,4088752.0
1575576387279,4080109.0
1575576387327,4103401.0
1575576387379,4124657.0
1575576387425,4154660.0
1575576387473,4133274.0
1575576387522,4107841.0
1575576387570,4081070.0
1575576387622,4067634.0
1575576387668,4095028.0
1575576387718,4092478.0
1575576387763,4089721.0
1575576387818,4180892.0
1575576387868,4134367.0
1575576387916,4131896.0
1575576387966,4087911.0
1575576388009,4080205.0
1575576388058,4145765.0
1575576388107,4168427.0
1575576388159,4194667.0
1575576388209,4201254.0
1575576388257,4171140.0
1575576388305,4148610.0
1575576388355,4144770.0
1575576388400,4158821.0
1575576388452,4132693.0
1575576388502,4105205.0
1575576388549,4196798.0
1575576388594,4262995.0
1575576388647,4213504.0
1575576388695,4182590.0
1575576388742,4167881.0
1575576388792,4232437.0
1575576388841,4286218.0
1575576388891,4307535.0
1575576388938,4327308.0
1575576388984,4298146.0
1575576389037,4265335.0
1575576389082,4252332.0
1575576389133,4248760.0
1575576389184,4222728.0
1575576389232,4194381.0
1575576389281,4242519.0
1575576389330,4306529.0
1575576389379,4263940.0
1575576389427,4241513.0
1575576389476,4217431.0
1575576389522,4244175.0
1575576389572,4250302.0
1575576389622,4305080.0
1575576389671,4327663.0
1575576389720,4289538.0
1575576389769,4235566.0
1575576389817,4227088.0
1575576389862,4235713.0
1575576389914,4234032.0
1575576389961,4213607.0
1575576390007,4227390.0
1575576390061,4230790.0
1575576390106,4210990.0
1575576390158,4162679.0
1575576390203,4141960.0
1575576390256,4189925.0
1575576390302,4213642.0
1575576390353,4259153.0
1575576390403,4265569.0
1575576390450,4226212.0
1575576390494,4196538.0
1575576390544,4198863.0
1575576390590,4208440.0
1575576390646,4213573.0
1575576390689,4236147.0
1575576390740,4230686.0
1575576390786,4128887.0
1575576390840,4063420.0
1575576390889,4023224.0
1575576390938,4010142.0
1575576390983,4009059.0
1575576391035,4024636.0
1575576391082,4022105.0
1575576391132,3975389.0
1575576391181,3947676.0
1575576391225,3907218.0
1575576391278,3900631.0
1575576391323,3940922.0
1575576391377,3935904.0
1575576391427,3920327.0
1575576391473,3958790.0
1575576391524,4047315.0
1575576391570,4050712.0
1575576391616,4030315.0
1575576391664,4006095.0
1575576391718,4009484.0
1575576391769,4081036.0
1575576391815,4090156.0
1575576391866,4086810.0
1575576391913,4126955.0
1575576391961,4090199.0
1575576392004,4061358.0
1575576392058,4057770.0
1575576392104,4053644.0
1575576392157,4036408.0
1575576392209,4026666.0
1575576392254,4055732.0
1575576392303,4036695.0
1575576392350,4011694.0
1575576392400,3998545.0
1575576392443,3977825.0
1575576392493,3985428.0
1575576392548,4015284.0
1575576392592,4003269.0
1575576392645,3974462.0
1575576392693,4015309.0
1575576392742,3992693.0
1575576392784,3990430.0
1575576392839,4004309.0
1575576392889,4003632.0
1575576392936,4003884.0
1575576392985,3941859.0
1575576393033,3875907.0
1575576393083,3836940.0
1575576393131,3835960.0
1575576393180,3821519.0
1575576393223,3812061.0
1575576393281,3785014.0
1575576393327,3766229.0
1575576393376,3808134.0
1575576393425,3827076.0
1575576393473,3815702.0
1575576393522,3820877.0
1575576393571,3843191.0
1575576393616,3852007.0
1575576393666,3846209.0
1575576393717,3893132.0
1575576393766,3939518.0
1575576393814,3920117.0
1575576393864,3868338.0
1575576393912,3846633.0
1575576393961,3887912.0
1575576394005,3960289.0
1575576394058,3995448.0
1575576394105,3981121.0
1575576394155,4010248.0
1575576394205,3966088.0
1575576394253,3977384.0
1575576394302,3961555.0
1575576394349,3941556.0
1575576394399,3949045.0
1575576394447,3973343.0
1575576394496,4077368.0
1575576394545,4021282.0
1575576394590,4010298.0
1575576394644,3983947.0
1575576394690,4009077.0
1575576394741,4098080.0
1575576394790,4119968.0
1575576394837,4151627.0
1575576394887,4141423.0
1575576394935,4106116.0
1575576394986,4070521.0
1575576395032,4055125.0
1575576395081,4042122.0
1575576395129,4006363.0
1575576395179,4009406.0
1575576395229,4115547.0
1575576395276,4091613.0
1575576395326,4065068.0
1575576395367,4041870.0
1575576395424,4018230.0
1575576395467,4066612.0
1575576395521,4085380.0
1575576395567,4119031.0
1575576395613,4124771.0
1575576395663,4084026.0
1575576395708,4053400.0
1575576395759,4065779.0
1575576395809,4064885.0
1575576395856,4070442.0
1575576395906,4057640.0
1575576395955,4097489.0
1575576396009,4022227.0
1575576396056,3995095.0
1575576396101,3951550.0
1575576396152,3913754.0
1575576396203,3931014.0
1575576396247,3999758.0
1575576396301,4069827.0
1575576396342,4075099.0
1575576396394,4037918.0
1575576396443,4007846.0
1575576396490,4018915.0
1575576396541,4025262.0
1575576396590,3989546.0
1575576396641,4000235.0
1575576396690,4056200.0
1575576396738,3988939.0
1575576396788,3963834.0
1575576396836,3920006.0
1575576396885,3886665.0
1575576396929,3948655.0
1575576396983,3948300.0
1575576397031,3976708.0
1575576397079,3954828.0
1575576397127,3922415.0
1575576397177,3907618.0
1575576397226,3892073.0
1575576397273,3913929.0
1575576397324,3879470.0
1575576397372,3878560.0
1575576397421,4039895.0
1575576397469,4074863.0
1575576397518,4054588.0
1575576397568,4004872.0
1575576397612,4015916.0
1575576397664,4084209.0
1575576397709,4140105.0
1575576397763,4157903.0
1575576397811,4153784.0
1575576397860,4109791.0
1575576397908,4056443.0
1575576397958,4032743.0
1575576398007,4038274.0
1575576398050,4000304.0
1575576398102,3987734.0
1575576398150,4067791.0
1575576398201,4146850.0
1575576398249,4109141.0
1575576398297,4073451.0
1575576398348,4025738.0
1575576398395,4042382.0
1575576398444,4082033.0
1575576398492,4104502.0
1575576398542,4113995.0
1575576398590,4097889.0
1575576398639,4014910.0
1575576398688,3981527.0
1575576398737,3962882.0
1575576398786,3992545.0
1575576398829,3957965.0
1575576398884,3983010.0
1575576398931,4092712.0
1575576398977,4070062.0
1575576399025,4033948.0
1575576399078,3989034.0
1575576399128,3968688.0
1575576399170,4021993.0
1575576399224,4045988.0
1575576399271,4047376.0
1575576399322,4074179.0
1575576399372,3994938.0
1575576399420,3961510.0
1575576399467,3956579.0
1575576399515,3965968.0
1575576399566,3943714.0
1575576399610,3961555.0
1575576399663,4020624.0
1575576399712,3963288.0
1575576399760,3885200.0
1575576399810,3836247.0
1575576399858,3818424.0
1575576399908,3885659.0
1575576399953,3909134.0
1575576400005,3944269.0
1575576400053,3889820.0
1575576400098,3802040.0
1575576400150,3756546.0
1575576400199,3781625.0
1575576400247,3801181.0
1575576400291,3810413.0
1575576400346,3839360.0
1575576400395,3869423.0
1575576400443,3742252.0
1575576400492,3681241.0
1575576400540,3664674.0
1575576400589,3669885.0
1575576400636,3699679.0
1575576400687,3753945.0
1575576400732,3754951.0
1575576400785,3685115.0
1575576400832,3615774.0
1575576400882,3616666.0
1575576400930,3631760.0
1575576400979,3665021.0
1575576401023,3694191.0
1575576401071,3694409.0
1575576401125,3680097.0
1575576401173,3578871.0
1575576401223,3556687.0
1575576401271,3547595.0
1575576401316,3582374.0
1575576401368,3658711.0
1575576401412,3711244.0
1575576401463,3745832.0
1575576401513,3732880.0
1575576401561,3696577.0
1575576401608,3691452.0
1575576401656,3708625.0
1575576401710,3746828.0
1575576401758,3741106.0
1575576401808,3738099.0
1575576401854,3818650.0
1575576401906,3916745.0
1575576401952,3884741.0
1575576402003,3848297.0
1575576402050,3840564.0
1575576402096,3901202.0
1575576402149,3969832.0
1575576402197,3962075.0
1575576402247,4004274.0
1575576402294,3986816.0
1575576402345,3946296.0
1575576402392,3933200.0
1575576402442,3939840.0
1575576402490,3962500.0
1575576402533,3950407.0
1575576402586,3937040.0
1575576402636,4010577.0
1575576402685,4005081.0
1575576402729,3976230.0
1575576402783,3961606.0
1575576402832,3932749.0
1575576402878,3997754.0
1575576402929,4046604.0
1575576402975,4048485.0
1575576403022,4067756.0
1575576403074,4044948.0
1575576403125,3989416.0
1575576403172,3997773.0
1575576403221,4010049.0
1575576403270,4013047.0
1575576403319,3967632.0
1575576403368,3940965.0
1575576403416,4080438.0
1575576403465,4102223.0
1575576403513,4056443.0
1575576403563,4009847.0
1575576403607,4016948.0
1575576403657,4082121.0
1575576403709,4114939.0
1575576403757,4127804.0
1575576403807,4149302.0
1575576403849,4119517.0
1575576403904,4104884.0
1575576403951,4058749.0
1575576404000,4043077.0
1575576404050,4042790.0
1575576404096,4049152.0
1575576404145,4032534.0
1575576404196,4068441.0
1575576404245,4017729.0
1575576404293,3991964.0
1575576404341,3935357.0
1575576404392,3930573.0
1575576404437,3970198.0
1575576404488,3940463.0
1575576404532,3962404.0
1575576404586,3958339.0
1575576404633,3939476.0
1575576404683,3920481.0
1575576404732,3902181.0
1575576404778,3914300.0
1575576404829,3935530.0
1575576404879,3947788.0
1575576404928,3964944.0
1575576404971,3922917.0
1575576405021,3888684.0
1575576405072,3854600.0
1575576405123,3824172.0
1575576405170,3867879.0
1575576405218,3877918.0
1575576405268,3910174.0
1575576405317,3934535.0
1575576405366,3894899.0
1575576405413,3870888.0
1575576405465,3853116.0
1575576405511,3862054.0
1575576405558,3882105.0
1575576405605,3903847.0
1575576405658,3908433.0
1575576405707,3852960.0
1575576405755,3792851.0
1575576405806,3768803.0
1575576405848,3754109.0
1575576405900,3807518.0
1575576405950,3836672.0
1575576406000,3860849.0
1575576406048,3836846.0
1575576406093,3781469.0
1575576406143,3744705.0
1575576406195,3749611.0
1575576406244,3766966.0
1575576406292,3794897.0
1575576406339,3816317.0
1575576406391,3813093.0
1575576406440,3713550.0
1575576406488,3668158.0
1575576406537,3635130.0
1575576406587,3628621.0
1575576406634,3686026.0
1575576406680,3686920.0
1575576406733,3727453.0
1575576406779,3689051.0
1575576406830,3646453.0
1575576406878,3642412.0
1575576406928,3656137.0
1575576406976,3681743.0
1575576407022,3700337.0
1575576407074,3720137.0
1575576407127,3736860.0
1575576407172,3669191.0
1575576407222,3656222.0
1575576407269,3672529.0
1575576407318,3741037.0
1575576407368,3783783.0
1575576407416,3820001.0
1575576407461,3821606.0
1575576407513,3775713.0
1575576407560,3745198.0
1575576407606,3761383.0
1575576407661,3786957.0
1575576407710,3782414.0
1575576407757,3752689.0
1575576407806,3803739.0
1575576407848,3917318.0
1575576407903,3887922.0
1575576407951,3840798.0
1575576408001,3818355.0
1575576408049,3856566.0
1575576408094,3915229.0
1575576408143,3925327.0
1575576408196,3951049.0
1575576408242,3932505.0
1575576408292,3879964.0
1575576408342,3859090.0
1575576408389,3867515.0
1575576408440,3896313.0
1575576408488,3848903.0
1575576408537,3841292.0
1575576408582,3940723.0
1575576408634,4001761.0
1575576408681,3923984.0
1575576408732,3906334.0
1575576408780,3885972.0
1575576408830,3869561.0
1575576408877,3939691.0
1575576408922,3930780.0
1575576408975,3891069.0
1575576409022,3858700.0
1575576409073,3836810.0
1575576409118,3826643.0
1575576409171,3842480.0
1575576409218,3837685.0
1575576409263,3816880.0
1575576409317,3789913.0
1575576409368,3846944.0
1575576409413,3864464.0
1575576409464,3856471.0
1575576409509,3832303.0
1575576409560,3815521.0
1575576409605,3860563.0
1575576409658,3922241.0
1575576409708,3891744.0
1575576409755,3944582.0
1575576409805,3979889.0
1575576409848,3966019.0
1575576409901,3967796.0
1575576409946,3955218.0
1575576409998,3948793.0
1575576410045,3931178.0
1575576410093,3922986.0
1575576410148,3985377.0
1575576410193,3926263.0
1575576410244,3917517.0
1575576410290,3876636.0
1575576410340,3879176.0
1575576410384,3911318.0
1575576410437,3951750.0
1575576410487,3961640.0
1575576410534,3966722.0
1575576410585,3949348.0
1575576410632,3951863.0
1575576410681,3935695.0
1575576410726,3916269.0
1575576410779,3884887.0
1575576410825,3886752.0
1575576410876,3939025.0
1575576410928,3881880.0
1575576410973,3847533.0
1575576411024,3810856.0
1575576411070,3768752.0
1575576411116,3803452.0
1575576411164,3818122.0
1575576411217,3854730.0
1575576411265,3855475.0
1575576411316,3828445.0
1575576411364,3806782.0
1575576411413,3814011.0
1575576411462,3840392.0
1575576411506,3822742.0
1575576411560,3855093.0
1575576411604,3945197.0
1575576411656,3921712.0
1575576411706,3894605.0
1575576411754,3863172.0
1575576411803,3867497.0
1575576411847,3934760.0
1575576411900,3971506.0
1575576411944,3974375.0
1575576411998,3990083.0
1575576412048,3958129.0
1575576412090,3917716.0
1575576412145,3913884.0
1575576412193,3930018.0
1575576412242,3905017.0
1575576412289,3915853.0
1575576412339,3944078.0
1575576412387,3906039.0
1575576412437,3892004.0
1575576412487,3861136.0
1575576412534,3894554.0
1575576412584,3934004.0
1575576412631,3964267.0
1575576412682,3981718.0
1575576412727,3940559.0
1575576412778,3895889.0
1575576412827,3879391.0
1575576412875,3880328.0
1575576412924,3859835.0
1575576412969,3867688.0
1575576413022,3966470.0
1575576413069,3933919.0
1575576413116,3927808.0
1575576413169,3877926.0
1575576413217,3864265.0
1575576413265,3916468.0
1575576413314,3894190.0
1575576413365,3948708.0
1575576413411,3960151.0
1575576413462,3923516.0
1575576413507,3882132.0
1575576413558,3865157.0
1575576413604,3874494.0
1575576413656,3877676.0
1575576413704,3882443.0
1575576413752,3962855.0
1575576413802,3981500.0
1575576413848,3940567.0
1575576413899,3883788.0
1575576413947,3835796.0
1575576413997,3864352.0
1575576414045,3879799.0
1575576414092,3911172.0
1575576414146,3936891.0
1575576414190,3882365.0
1575576414242,3830257.0
1575576414286,3816291.0
1575576414338,3828333.0
1575576414389,3852225.0
1575576414436,3843218.0
1575576414486,3890696.0
1575576414532,3980288.0
1575576414582,3908093.0
1575576414628,3894597.0
1575576414679,3881177.0
1575576414729,3909845.0
1575576414777,3921531.0
1575576414827,3977565.0
1575576414874,4005827.0
1575576414925,3959881.0
1575576414966,3909619.0
1575576415021,3888910.0
1575576415068,3880840.0
1575576415114,3896183.0
1575576415162,3907358.0
1575576415216,3908398.0
1575576415265,3909627.0
1575576415310,3816031.0
1575576415363,3806470.0
1575576415409,3779667.0
1575576415461,3823122.0
1575576415509,3897908.0
1575576415558,3923429.0
1575576415602,3921999.0
1575576415654,3842446.0
1575576415706,3801667.0
1575576415750,3813969.0
1575576415797,3837677.0
1575576415844,3838606.0
1575576415893,3830154.0
1575576415944,3886803.0
1575576415993,3896842.0
1575576416040,3888503.0
1575576416088,3855640.0
1575576416142,3846702.0
1575576416190,3920144.0
1575576416240,3969824.0
1575576416289,3987344.0
1575576416337,4015804.0
1575576416389,3989953.0
1575576416436,3948326.0
1575576416485,3964407.0
1575576416530,3972008.0
1575576416583,3955799.0
1575576416630,3932168.0
1575576416679,3946522.0
1575576416729,4017676.0
1575576416777,3986442.0
1575576416826,3959352.0
1575576416869,3920160.0
1575576416927,3967701.0
1575576416970,4019305.0
1575576417021,4009744.0
1575576417070,4020451.0
1575576417114,3978849.0
1575576417162,3940585.0
1575576417215,3926263.0
1575576417266,3922432.0
1575576417310,3929766.0
1575576417363,3901557.0
1575576417411,3867073.0
1575576417460,3839611.0
1575576417509,3786246.0
1575576417557,3781296.0
1575576417603,3776432.0
1575576417650,3802335.0
1575576417704,3848114.0
1575576417752,3774880.0
1575576417801,3781382.0
1575576417850,3768596.0
1575576417899,3780707.0
1575576417947,3794480.0
1575576417992,3808463.0
1575576418041,3821163.0
1575576418092,3828004.0
1575576418143,3818424.0
1575576418190,3831791.0
1575576418239,3766629.0
1575576418288,3766489.0
1575576418335,3748685.0
1575576418387,3748788.0
1575576418435,3798278.0
1575576418484,3772210.0
1575576418531,3800531.0
1575576418580,3783732.0
1575576418629,3764366.0
1575576418678,3780861.0
1575576418727,3765613.0
1575576418773,3759563.0
1575576418824,3760170.0
1575576418872,3733140.0
1575576418922,3738091.0
1575576418971,3699185.0
1575576419019,3707048.0
1575576419069,3695786.0
1575576419113,3721620.0
1575576419163,3776260.0
1575576419212,3796500.0
1575576419260,3814635.0
1575576419307,3780091.0
1575576419357,3777560.0
1575576419405,3795600.0
1575576419454,3781522.0
1575576419503,3757118.0
1575576419552,3760552.0
1575576419601,3786654.0
1575576419648,3763482.0
1575576419699,3739261.0
1575576419746,3739973.0
1575576419795,3728572.0
1575576419845,3774405.0
1575576419893,3792044.0
1575576419942,3834626.0
1575576419989,3822827.0
1575576420037,3791898.0
1575576420085,3789114.0
1575576420136,3808030.0
1575576420190,3819316.0
1575576420233,3812703.0
1575576420287,3797566.0
1575576420336,3889934.0
1575576420383,3860406.0
1575576420433,3840936.0
1575576420483,3825013.0
1575576420531,3849849.0
1575576420576,3859332.0
1575576420629,3878343.0
1575576420674,3891553.0
1575576420727,3860035.0
1575576420774,3835875.0
1575576420825,3863442.0
1575576420871,3864273.0
1575576420922,3840373.0
1575576420970,3834686.0
1575576421013,3881150.0
1575576421067,3839299.0
1575576421112,3841891.0
1575576421165,3810232.0
1575576421213,3821848.0
1575576421263,3873202.0
1575576421305,3897908.0
1575576421360,3924695.0
1575576421403,3888233.0
1575576421455,3867168.0
1575576421502,3889682.0
1575576421551,3893782.0
1575576421599,3870238.0
1575576421652,3826200.0
1575576421701,3821346.0
1575576421750,3776692.0
1575576421793,3756806.0
1575576421843,3749829.0
1575576421896,3741878.0
1575576421945,3773771.0
1575576421993,3783021.0
1575576422039,3791837.0
1575576422088,3761332.0
1575576422135,3736834.0
1575576422188,3756086.0
1575576422238,3760178.0
1575576422287,3757976.0
1575576422335,3731874.0
1575576422384,3710159.0
1575576422432,3759372.0
1575576422482,3721697.0
1575576422530,3721482.0
1575576422576,3702357.0
1575576422627,3730757.0
1575576422677,3761470.0
1575576422726,3786004.0
1575576422774,3811315.0
1575576422824,3782883.0
1575576422871,3781867.0
1575576422917,3788109.0
1575576422969,3791309.0
1575576423017,3760847.0
1575576423066,3783194.0
1575576423111,3790667.0
1575576423165,3786168.0
1575576423208,3768267.0
1575576423261,3753589.0
1575576423310,3738601.0
1575576423357,3778072.0
1575576423408,3759597.0
1575576423457,3809009.0
1575576423506,3808351.0
1575576423554,3792235.0
1575576423602,3824345.0
1575576423651,3845723.0
1575576423697,3837730.0
1575576423749,3834636.0
1575576423797,3848756.0
1575576423843,3878144.0
1575576423895,3829268.0
1575576423945,3823886.0
1575576423992,3808879.0
1575576424038,3821553.0
1575576424091,3859740.0
1575576424139,3897786.0
1575576424188,3907297.0
1575576424237,3871122.0
1575576424287,3859193.0
1575576424333,3891683.0
1575576424384,3911119.0
1575576424431,3877995.0
1575576424479,3881402.0
1575576424529,3989607.0
1575576424578,4001084.0
1575576424627,3973770.0
1575576424676,3928917.0
1575576424726,3942952.0
1575576424773,4000347.0
1575576424819,4036262.0
1575576424871,4069784.0
1575576424920,4050990.0
1575576424964,4031727.0
1575576425011,4040829.0
1575576425061,4039669.0
1575576425111,4042841.0
1575576425161,4021335.0
1575576425212,4060101.0
1575576425259,4150186.0
1575576425310,4118607.0
1575576425358,4075662.0
1575576425407,4043154.0
1575576425455,4105413.0
1575576425502,4141561.0
1575576425553,4165176.0
1575576425598,4177718.0
1575576425651,4135182.0
1575576425699,4093033.0
1575576425749,4073624.0
1575576425797,4080377.0
1575576425842,4063603.0
1575576425895,4030082.0
1575576425942,4102276.0
1575576425992,4168947.0
1575576426041,4098574.0
1575576426092,4084201.0
1575576426140,4059400.0
1575576426189,4084981.0
1575576426237,4106158.0
1575576426285,4117237.0
1575576426335,4108074.0
1575576426381,4082606.0
1575576426426,4045763.0
1575576426480,4038282.0
1575576426526,4033592.0
1575576426574,4007793.0
1575576426624,4052723.0
1575576426672,4163900.0
1575576426721,4148445.0
1575576426773,4224705.0
1575576426822,4244711.0
1575576426872,4213434.0
1575576426920,4192213.0
1575576426969,4226958.0
1575576427017,4243464.0
1575576427063,4245162.0
1575576427110,4255400.0
1575576427162,4214432.0
1575576427211,4214857.0
1575576427262,4205746.0
1575576427310,4213713.0
1575576427358,4302124.0
1575576427405,4278806.0
1575576427455,4268767.0
1575576427507,4259248.0
1575576427552,4257403.0
1575576427598,4296551.0
1575576427650,4299481.0
1575576427700,4336635.0
1575576427743,4328019.0
1575576427797,4285307.0
1575576427848,4233425.0
1575576427894,4214647.0
1575576427948,4205051.0
1575576427991,4187662.0
1575576428042,4246375.0
1575576428086,4327690.0
1575576428134,4304414.0
1575576428183,4250684.0
1575576428236,4211078.0
1575576428286,4268292.0
1575576428333,4261910.0
1575576428384,4310170.0
1575576428430,4336627.0
1575576428475,4291193.0
1575576428525,4251526.0
1575576428572,4239207.0
1575576428625,4240117.0
1575576428671,4208570.0
1575576428718,4222390.0
1575576428766,4325609.0
1575576428816,4303520.0
1575576428863,4288264.0
1575576428912,4232254.0
1575576428962,4242509.0
1575576429010,4278389.0
1575576429063,4296949.0
1575576429107,4327464.0
1575576429156,4299239.0
1575576429204,4253832.0
1575576429255,4218089.0
1575576429303,4201784.0
1575576429352,4194588.0
1575576429402,4200769.0
1575576429448,4192369.0
1575576429501,4241269.0
1575576429548,4190142.0
1575576429598,4169128.0
1575576429650,4115988.0
1575576429699,4143616.0
1575576429745,4152407.0
1575576429796,4180874.0
1575576429845,4185148.0
1575576429893,4127311.0
1575576429942,4099545.0
1575576429990,4098669.0
1575576430041,4118503.0
1575576430085,4083429.0
1575576430137,4050271.0
1575576430188,4120990.0
1575576430235,4106540.0
1575576430284,4051848.0
1575576430332,3956969.0
1575576430382,3929090.0
1575576430429,3979715.0
1575576430480,3983790.0
1575576430525,4043648.0
1575576430578,4034304.0
1575576430627,3975460.0
1575576430675,3974133.0
1575576430725,3978796.0
1575576430772,3999333.0
1575576430821,3941461.0
1575576430864,3928553.0
1575576430917,4020242.0
1575576430968,4023641.0
1575576431015,3987344.0
1575576431064,3913990.0
1575576431108,3882286.0
1575576431162,3934455.0
1575576431209,3966417.0
1575576431258,3988618.0
1575576431306,3964822.0
1575576431356,3874425.0
1575576431407,3843260.0
1575576431449,3857607.0
1575576431498,3868556.0
1575576431550,3821301.0
1575576431597,3843659.0
1575576431648,3916771.0
1575576431698,3851070.0
1575576431747,3796311.0
1575576431794,3731120.0
1575576431845,3741706.0
1575576431892,3791022.0
1575576431942,3843746.0
1575576431986,3846832.0
1575576432038,3784277.0
1575576432087,3715317.0
1575576432136,3736462.0
1575576432187,3738731.0
1575576432234,3740127.0
1575576432283,3719738.0
1575576432330,3711867.0
1575576432381,3630494.0
1575576432428,3591692.0
1575576432478,3583969.0
1575576432527,3579660.0
1575576432576,3625595.0
1575576432625,3675493.0
1575576432672,3712040.0
1575576432722,3701890.0
1575576432769,3625545.0
1575576432819,3606603.0
1575576432868,3634204.0
1575576432916,3644155.0
1575576432966,3662084.0
1575576433013,3659022.0
1575576433058,3658313.0
1575576433108,3621347.0
1575576433160,3564759.0
1575576433210,3568304.0
1575576433257,3556662.0
1575576433307,3596678.0
1575576433356,3657427.0
1575576433407,3700130.0
1575576433449,3698777.0
1575576433497,3642274.0
1575576433549,3618876.0
1575576433596,3643861.0
1575576433649,3670448.0
1575576433694,3687864.0
1575576433742,3669928.0
1575576433791,3686790.0
1575576433841,3737388.0
1575576433888,3679169.0
1575576433938,3657323.0
1575576433987,3645143.0
1575576434038,3669209.0
1575576434087,3733514.0
1575576434136,3739877.0
1575576434186,3755446.0
1575576434232,3719072.0
1575576434283,3698673.0
1575576434329,3713351.0
1575576434375,3705939.0
1575576434423,3723708.0
1575576434471,3675347.0
1575576434528,3623428.0
1575576434573,3607574.0
1575576434624,3591476.0
1575576434670,3593817.0
1575576434721,3593608.0
1575576434769,3654922.0
1575576434818,3716896.0
1575576434867,3754961.0
1575576434916,3777966.0
1575576434965,3784017.0
1575576435007,3765666.0
1575576435059,3793596.0
1575576435109,3812494.0
1575576435159,3776060.0
1575576435209,3763325.0
1575576435257,3821588.0
1575576435307,3888278.0
1575576435349,3869405.0
1575576435398,3842106.0
1575576435450,3829546.0
1575576435498,3886352.0
1575576435547,3891468.0
1575576435593,3943956.0
1575576435647,3971411.0
1575576435696,3934569.0
1575576435746,3891720.0
1575576435789,3917456.0
1575576435843,3937897.0
1575576435891,3922944.0
1575576435939,3908977.0
1575576435988,3992441.0
1575576436037,3969357.0
1575576436087,3945474.0
1575576436129,3920916.0
1575576436183,3905389.0
1575576436230,3935756.0
1575576436282,3930079.0
1575576436331,3956215.0
1575576436380,3944502.0
1575576436428,3918549.0
1575576436473,3920457.0
1575576436527,3907080.0
1575576436570,3891659.0
1575576436624,3865738.0
1575576436672,3876480.0
1575576436721,3893989.0
1575576436769,3872239.0
1575576436818,3858196.0
1575576436868,3851617.0
1575576436911,3890236.0
1575576436966,3877016.0
1575576437012,3927572.0
1575576437058,3929705.0
1575576437107,3887819.0
1575576437160,3908457.0
1575576437204,3913833.0
1575576437255,3926733.0
1575576437306,3908077.0
1575576437354,3910877.0
1575576437404,4005402.0
1575576437452,3978329.0
1575576437501,3968221.0
1575576437550,3941451.0
1575576437595,3974089.0
1575576437648,4036522.0
1575576437693,4053071.0
1575576437745,4085621.0
1575576437792,4053453.0
1575576437843,4029952.0
1575576437890,4036973.0
1575576437939,4052309.0
1575576437988,4038022.0
1575576438031,4046856.0
1575576438087,4135320.0
1575576438133,4147015.0
1575576438184,4111317.0
1575576438232,4068197.0
1575576438282,4094439.0
1575576438329,4140235.0
1575576438378,4143981.0
1575576438428,4149642.0
1575576438473,4146996.0
1575576438524,4121390.0
1575576438573,4106705.0
1575576438622,4093155.0
1575576438671,4084807.0
1575576438720,4050903.0
1575576438768,4055560.0
1575576438812,4157685.0
1575576438868,4124875.0
1575576438914,4100540.0
1575576438964,4061765.0
1575576439012,4103316.0
1575576439057,4128091.0
1575576439106,4102127.0
1575576439155,4120149.0
1575576439203,4128768.0
1575576439256,4088378.0
1575576439305,4078175.0
1575576439353,4050098.0
1575576439405,4028399.0
1575576439451,3991608.0
1575576439499,4017485.0
1575576439548,4055653.0
1575576439593,4030419.0
1575576439647,3983416.0
1575576439694,3933901.0
1575576439745,3974861.0
1575576439793,4010213.0
1575576439837,4043544.0
1575576439890,4043509.0
1575576439933,3996109.0
1575576439988,3979064.0
1575576440035,3987328.0
1575576440087,4003659.0
1575576440133,3951256.0
1575576440184,3965238.0
1575576440231,4087547.0
1575576440281,4114194.0
1575576440323,4084305.0
1575576440376,4020441.0
1575576440421,4044117.0
1575576440473,4070981.0
1575576440521,4065987.0
1575576440569,4043682.0
1575576440618,4064556.0
1575576440667,4018005.0
1575576440715,3962309.0
1575576440768,3933094.0
1575576440816,3931639.0
1575576440865,3899511.0
1575576440914,3921521.0
1575576440965,3973136.0
1575576441012,3917639.0
1575576441058,3844959.0
1575576441106,3784693.0
1575576441159,3841578.0
1575576441203,3880492.0
1575576441257,3891675.0
1575576441307,3914231.0
1575576441354,3865990.0
1575576441403,3784842.0
1575576441452,3782050.0
1575576441502,3805066.0
1575576441550,3770512.0
1575576441595,3793692.0
1575576441647,3896330.0
1575576441698,3866457.0
1575576441746,3834721.0
1575576441794,3813579.0
1575576441840,3866942.0
1575576441892,3915930.0
1575576441938,3948594.0
1575576441990,3962802.0
1575576442037,3922251.0
1575576442087,3883501.0
1575576442137,3894458.0
1575576442187,3900310.0
1575576442234,3854183.0
1575576442285,3854364.0
1575576442331,3952954.0
1575576442376,3913398.0
1575576442429,3889265.0
1575576442479,3828843.0
1575576442527,3849242.0
1575576442576,3892161.0
1575576442623,3923716.0
1575576442672,3937342.0
1575576442718,3901592.0
1575576442770,3815155.0
1575576442817,3791134.0
1575576442868,3785378.0
1575576442916,3768171.0
1575576442966,3793562.0
1575576443014,3870254.0
1575576443061,3808168.0
1575576443108,3801667.0
1575576443161,3772661.0
1575576443205,3790008.0
1575576443258,3858881.0
1575576443307,3858214.0
1575576443356,3872178.0
1575576443405,3829971.0
1575576443453,3784738.0
1575576443501,3778340.0
1575576443551,3795486.0
1575576443596,3811299.0
1575576443649,3826391.0
1575576443693,3921747.0
1575576443746,3882026.0
1575576443790,3866422.0
1575576443841,3780577.0
1575576443892,3762978.0
1575576443939,3852883.0
1575576443984,3879478.0
1575576444032,3903630.0
1575576444088,3911050.0
1575576444137,3859254.0
1575576444185,3807849.0
1575576444233,3846328.0
1575576444280,3843624.0
1575576444331,3817090.0
1575576444375,3909367.0
1575576444429,3978138.0
1575576444474,3948430.0
1575576444528,3909888.0
1575576444575,3881307.0
1575576444626,3943228.0
1575576444672,3961520.0
1575576444720,3917214.0
1575576444770,3958806.0
1575576444819,3954950.0
1575576444868,3941079.0
1575576444917,3955815.0
1575576444963,3970440.0
1575576445008,3925180.0
1575576445062,3923187.0
1575576445107,4023094.0
1575576445156,3974298.0
1575576445206,3953804.0
1575576445255,3896027.0
1575576445306,3917344.0
1575576445356,3966037.0
1575576445402,3979083.0
1575576445453,3982100.0
1575576445501,3958763.0
1575576445551,3893575.0
1575576445595,3902096.0
1575576445649,3917206.0
1575576445697,3890773.0
1575576445742,3902096.0
1575576445794,3902589.0
1575576445844,3864897.0
1575576445892,3839930.0
1575576445942,3792713.0
1575576445991,3799137.0
1575576446039,3834071.0
1575576446088,3843659.0
1575576446136,3889204.0
1575576446188,3868288.0
1575576446232,3849242.0
1575576446283,3833205.0
1575576446330,3853974.0
1575576446379,3854356.0
1575576446424,3829825.0
1575576446477,3853029.0
1575576446526,3870333.0
1575576446575,3819950.0
1575576446627,3785083.0
1575576446672,3743362.0
1575576446722,3774134.0
1575576446770,3819162.0
1575576446819,3851184.0
1575576446863,3874364.0
1575576446917,3843529.0
1575576446968,3813544.0
1575576447014,3819369.0
1575576447064,3837513.0
1575576447108,3803402.0
1575576447161,3811445.0
1575576447204,3851513.0
1575576447258,3803038.0
1575576447303,3775341.0
1575576447356,3735281.0
1575576447406,3753600.0
1575576447452,3807008.0
1575576447503,3849415.0
1575576447549,3873393.0
1575576447596,3848263.0
1575576447644,3794966.0
1575576447698,3811809.0
1575576447746,3841042.0
1575576447795,3810007.0
1575576447843,3807215.0
1575576447893,3891303.0
1575576447941,3862946.0
1575576447987,3828219.0
1575576448039,3757880.0
1575576448083,3774309.0
1575576448136,3834609.0
1575576448183,3855534.0
1575576448234,3875976.0
1575576448284,3854642.0
1575576448330,3807059.0
1575576448380,3789348.0
1575576448423,3799917.0
1575576448477,3799119.0
1575576448524,3786107.0
1575576448575,3810371.0
1575576448625,3821702.0
1575576448672,3798381.0
1575576448722,3771544.0
1575576448771,3758957.0
1575576448816,3810405.0
1575576448865,3791819.0
1575576448917,3831348.0
1575576448967,3807813.0
1575576449015,3743837.0
1575576449064,3749038.0
1575576449107,3779277.0
1575576449161,3771942.0
1575576449210,3760032.0
1575576449258,3811541.0
1575576449306,3779120.0
1575576449355,3726709.0
1575576449405,3656829.0
1575576449453,3642231.0
1575576449503,3651724.0
1575576449551,3666529.0
1575576449596,3725980.0
1575576449644,3745607.0
1575576449697,3715907.0
1575576449747,3698084.0
1575576449795,3700754.0
1575576449845,3710281.0
1575576449895,3680071.0
1575576449942,3711772.0
1575576449985,3725200.0
1575576450038,3675207.0
1575576450086,3621182.0
1575576450130,3583274.0
1575576450180,3599382.0
1575576450230,3627859.0
1575576450281,3658042.0
1575576450328,3652642.0
1575576450377,3604920.0
1575576450429,3565903.0
1575576450477,3569655.0
1575576450527,3595749.0
1575576450575,3610668.0
1575576450625,3617507.0
1575576450673,3664353.0
1575576450723,3616952.0
1575576450766,3631890.0
1575576450820,3581186.0
1575576450867,3573471.0
1575576450917,3661198.0
1575576450966,3661667.0
1575576451014,3719972.0
1575576451064,3698647.0
1575576451108,3688029.0
1575576451161,3717711.0
1575576451207,3760162.0
1575576451258,3757230.0
1575576451307,3706831.0
1575576451356,3728416.0
1575576451405,3868919.0
1575576451451,3869137.0
1575576451504,3856741.0
1575576451547,3857911.0
1575576451595,3948092.0
1575576451648,3947798.0
1575576451697,3953796.0
1575576451746,3994764.0
1575576451794,4001517.0
1575576451843,3995467.0
1575576451886,4012814.0
1575576451942,3992744.0
1575576451990,3954048.0
1575576452037,3979221.0
1575576452086,4108127.0
1575576452136,4065641.0
1575576452185,4036193.0
1575576452229,4007430.0
1575576452283,4077716.0
1575576452328,4116484.0
1575576452379,4172328.0
1575576452431,4210314.0
1575576452477,4148349.0
1575576452527,4093511.0
1575576452573,4100065.0
1575576452624,4116102.0
1575576452669,4086107.0
1575576452721,4114568.0
1575576452769,4241200.0
1575576452818,4228242.0
1575576452867,4173090.0
1575576452916,4116985.0
1575576452965,4142715.0
1575576453007,4205131.0
1575576453063,4216452.0
1575576453109,4238029.0
1575576453159,4193704.0
1575576453209,4123314.0
1575576453257,4068656.0
1575576453307,4071328.0
1575576453354,4068866.0
1575576453404,4059920.0
1575576453448,4132053.0
1575576453502,4166337.0
1575576453549,4126088.0
1575576453594,4155294.0
1575576453647,4126122.0
1575576453696,4132138.0
1575576453746,4126600.0
1575576453790,4181144.0
1575576453844,4191451.0
1575576453893,4149321.0
1575576453933,4105699.0
1575576453989,4084148.0
1575576454032,4094768.0
1575576454082,4078610.0
1575576454130,4124336.0
1575576454185,4199070.0
1575576454230,4143555.0
1575576454282,4081062.0
1575576454330,4031329.0
1575576454379,4055671.0
1575576454429,4081105.0
1575576454475,4117445.0
1575576454526,4138979.0
1575576454570,4072334.0
1575576454625,4011920.0
1575576454670,4027394.0
1575576454720,4059806.0
1575576454769,4035594.0
1575576454817,4065857.0
1575576454866,4195811.0
1575576454912,4215549.0
1575576454962,4185157.0
1575576455011,4088769.0
1575576455061,4102180.0
1575576455106,4169892.0
1575576455159,4206421.0
1575576455207,4227531.0
1575576455255,4213556.0
1575576455306,4137713.0
1575576455351,4072289.0
1575576455405,4081080.0
1575576455452,4115728.0
1575576455500,4100055.0
1575576455549,4109643.0
1575576455594,4209481.0
1575576455647,4175898.0
1575576455693,4134653.0
1575576455743,4098001.0
1575576455791,4148583.0
1575576455842,4192881.0
1575576455890,4195378.0
1575576455939,4171625.0
1575576455987,4148167.0
1575576456033,4100551.0
1575576456082,4078870.0
1575576456132,4072003.0
1575576456184,4082996.0
1575576456227,4062598.0
1575576456280,4104988.0
1575576456330,4208841.0
1575576456379,4168114.0
1575576456429,4126807.0
1575576456471,4092990.0
1575576456525,4114324.0
1575576456573,4164699.0
1575576456620,4216364.0
1575576456671,4204019.0
1575576456720,4250138.0
1575576456768,4196236.0
1575576456811,4158319.0
1575576456867,4143546.0
1575576456913,4147283.0
1575576456964,4132597.0
1575576457012,4111863.0
1575576457062,4190029.0
1575576457106,4307118.0
1575576457159,4295208.0
1575576457208,4219971.0
1575576457252,4196687.0
1575576457305,4271057.0
1575576457353,4322210.0
1575576457403,4205234.0
1575576457452,4249437.0
1575576457502,4256093.0
1575576457550,4232385.0
1575576457593,4228855.0
1575576457648,4248527.0
1575576457696,4221480.0
1575576457746,4225562.0
1575576457793,4312580.0
1575576457837,4340518.0
1575576457891,4332050.0
1575576457940,4425699.0
1575576457989,4383386.0
1575576458034,4349135.0
1575576458081,4304292.0
1575576458134,4333037.0
1575576458185,4329770.0
1575576458232,4320148.0
1575576458282,4291141.0
1575576458330,4290527.0
1575576458375,4193470.0
1575576458428,4202174.0
1575576458475,4220310.0
1575576458526,4254785.0
1575576458574,4345425.0
1575576458624,4386464.0
1575576458671,4428533.0
1575576458717,4340770.0
1575576458769,4264580.0
1575576458816,4246160.0
1575576458867,4246245.0
1575576458916,4261546.0
1575576458966,4295519.0
1575576459014,4195334.0
1575576459065,4189691.0
1575576459107,4194572.0
1575576459158,4266392.0
1575576459209,4345390.0
1575576459258,4341516.0
1575576459307,4329770.0
1575576459355,4239536.0
1575576459400,4239953.0
1575576459448,4260445.0
1575576459503,4250512.0
1575576459550,4220621.0
1575576459595,4125307.0
1575576459648,4061340.0
1575576459696,4048130.0
1575576459746,4055602.0
1575576459794,4097489.0
1575576459840,4082476.0
1575576459892,4075853.0
1575576459934,4129702.0
1575576459989,4085735.0
1575576460036,4062380.0
1575576460083,4056504.0
1575576460135,4072411.0
1575576460185,4083525.0
1575576460232,4034529.0
1575576460286,3943836.0
1575576460331,3887878.0
1575576460376,3838197.0
1575576460428,3828819.0
1575576460478,3828748.0
1575576460528,3849728.0
1575576460575,3842419.0
1575576460624,3874954.0
1575576460673,3908762.0
1575576460718,3879070.0
1575576460770,3913589.0
1575576460817,3950606.0
1575576460868,3881957.0
1575576460917,3859159.0
1575576460966,3899989.0
1575576461014,3876315.0
1575576461065,3834209.0
1575576461108,3803012.0
1575576461158,3796855.0
1575576461209,3826547.0
1575576461258,3805777.0
1575576461308,3833447.0
1575576461358,3916208.0
1575576461406,3853307.0
1575576461454,3844439.0
1575576461501,3861950.0
1575576461550,3857911.0
1575576461598,3830698.0
1575576461648,3823955.0
1575576461697,3882936.0
1575576461746,3869033.0
1575576461796,3819534.0
1575576461840,3804129.0
1575576461892,3804598.0
1575576461939,3814436.0
1575576461990,3798572.0
1575576462039,3786575.0
1575576462084,3787615.0
1575576462137,3702956.0
1575576462186,3669867.0
1575576462234,3643713.0
1575576462284,3596044.0
1575576462332,3590261.0
1575576462379,3630866.0
1575576462429,3670934.0
1575576462478,3627806.0
1575576462528,3595731.0
1575576462575,3600595.0
1575576462626,3605796.0
1575576462672,3637195.0
1575576462720,3663418.0
1575576462770,3717979.0
1575576462819,3675623.0
1575576462868,3649089.0
1575576462917,3619900.0
1575576462967,3583622.0
1575576463014,3599026.0
1575576463060,3634100.0
1575576463107,3692883.0
1575576463161,3707595.0
1575576463209,3667328.0
1575576463258,3632591.0
1575576463308,3619537.0
1575576463355,3599018.0
1575576463401,3620221.0
1575576463454,3614630.0
1575576463503,3648386.0
1575576463551,3692960.0
1575576463595,3660617.0
1575576463649,3624104.0
1575576463696,3519949.0
1575576463741,3539132.0
1575576463793,3596227.0
1575576463841,3638521.0
1575576463892,3643879.0
1575576463942,3596771.0
1575576463989,3556662.0
1575576464039,3547672.0
1575576464083,3555622.0
1575576464136,3582980.0
1575576464181,3584168.0
1575576464228,3671852.0
1575576464277,3675329.0
1575576464327,3648680.0
1575576464376,3599294.0
1575576464425,3548659.0
1575576464473,3586846.0
1575576464527,3614768.0
1575576464575,3654091.0
1575576464628,3652685.0
1575576464672,3605910.0
1575576464722,3570948.0
1575576464769,3566752.0
1575576464819,3584991.0
1575576464863,3575552.0
1575576464916,3589378.0
1575576464968,3621323.0
1575576465013,3579357.0
1575576465064,3545565.0
1575576465106,3472306.0
1575576465160,3456233.0
1575576465203,3532285.0
1575576465252,3555673.0
1575576465303,3588069.0
1575576465355,3569464.0
1575576465407,3538007.0
1575576465451,3538413.0
1575576465504,3538753.0
1575576465549,3579070.0
1575576465595,3567540.0
1575576465643,3580995.0
1575576465697,3651681.0
1575576465748,3617247.0
1575576465794,3579973.0
1575576465844,3545278.0
1575576465892,3576486.0
1575576465940,3604573.0
1575576465983,3644978.0
1575576466038,3665759.0
1575576466082,3615116.0
1575576466136,3556471.0
1575576466187,3564741.0
1575576466234,3589481.0
1575576466283,3567914.0
1575576466331,3588693.0
1575576466380,3612810.0
1575576466428,3570860.0
1575576466478,3530491.0
1575576466525,3456312.0
1575576466575,3442797.0
1575576466624,3490986.0
1575576466672,3532145.0
1575576466722,3564993.0
1575576466770,3538596.0
1575576466819,3484164.0
1575576466862,3460654.0
1575576466917,3480618.0
1575576466965,3512919.0
1575576467013,3532737.0
1575576467063,3560710.0
1575576467107,3555482.0
1575576467161,3516456.0
1575576467210,3478599.0
1575576467254,3458297.0
1575576467308,3515572.0
1575576467356,3571468.0
1575576467405,3591875.0
1575576467454,3558542.0
1575576467504,3496848.0
1575576467551,3459805.0
1575576467596,3473381.0
1575576467643,3509512.0
1575576467697,3509556.0
1575576467747,3521544.0
1575576467795,3578603.0
1575576467845,3514583.0
1575576467892,3481469.0
1575576467943,3437543.0
1575576467991,3482231.0
1575576468033,3560988.0
1575576468087,3605390.0
1575576468136,3637611.0
1575576468186,3596564.0
1575576468234,3519272.0
1575576468284,3531816.0
1575576468332,3552969.0
1575576468382,3563910.0
1575576468428,3557286.0
1575576468479,3605831.0
1575576468526,3669745.0
1575576468577,3622883.0
1575576468626,3620282.0
1575576468673,3656665.0
1575576468723,3731285.0
1575576468771,3772810.0
1575576468821,3805769.0
1575576468866,3775618.0
1575576468918,3693265.0
1575576468966,3662047.0
1575576469015,3668740.0
1575576469065,3697824.0
1575576469109,3675026.0
1575576469163,3675901.0
1575576469205,3795035.0
1575576469255,3740456.0
1575576469308,3701613.0
1575576469357,3643383.0
1575576469403,3694201.0
1575576469452,3739235.0
1575576469501,3776432.0
1575576469548,3792904.0
1575576469597,3733365.0
1575576469646,3666988.0
1575576469699,3689736.0
1575576469748,3716886.0
1575576469797,3684197.0
1575576469846,3682393.0
1575576469894,3772887.0
1575576469943,3731744.0
1575576469988,3706719.0
1575576470042,3674999.0
1575576470088,3684699.0
1575576470139,3701672.0
1575576470188,3679463.0
1575576470236,3726041.0
1575576470285,3716480.0
1575576470332,3654272.0
1575576470383,3649330.0
1575576470428,3645949.0
1575576470480,3643582.0
1575576470528,3645049.0
1575576470576,3716028.0
1575576470626,3682151.0
1575576470674,3651350.0
1575576470723,3601800.0
1575576470768,3589786.0
1575576470822,3648239.0
1575576470868,3670430.0
1575576470918,3717762.0
1575576470967,3709570.0
1575576471016,3646392.0
1575576471066,3628231.0
1575576471111,3630900.0
1575576471166,3659292.0
1575576471207,3660054.0
1575576471258,3658910.0
1575576471307,3664692.0
1575576471360,3602155.0
1575576471409,3550281.0
1575576471453,3510206.0
1575576471502,3540512.0
1575576471555,3562374.0
1575576471600,3603334.0
1575576471650,3591787.0
1575576471701,3539246.0
1575576471750,3513906.0
1575576471798,3525601.0
1575576471848,3549700.0
1575576471896,3528480.0
1575576471945,3568209.0
1575576471987,3579243.0
1575576472044,3535258.0
1575576472087,3501624.0
1575576472140,3478357.0
1575576472188,3514869.0
1575576472237,3564334.0
1575576472287,3600377.0
1575576472335,3628440.0
1575576472385,3584115.0
1575576472430,3524699.0
1575576472482,3520713.0
1575576472530,3547335.0
1575576472580,3524423.0
1575576472628,3545358.0
1575576472677,3596452.0
1575576472725,3556445.0
1575576472768,3533507.0
1575576472825,3478981.0
1575576472870,3473997.0
1575576472921,3508766.0
1575576472969,3543208.0
1575576473018,3589837.0
1575576473067,3574546.0
1575576473112,3516117.0
1575576473165,3513431.0
1575576473212,3530932.0
1575576473259,3553351.0
1575576473311,3536056.0
1575576473361,3557485.0
1575576473409,3590816.0
1575576473455,3567185.0
1575576473507,3565911.0
1575576473552,3570427.0
1575576473601,3641669.0
1575576473650,3638660.0
1575576473704,3673526.0
1575576473751,3686121.0
1575576473799,3657575.0
1575576473849,3665889.0
1575576473897,3665117.0
1575576473947,3679187.0
1575576473991,3633848.0
1575576474044,3638721.0
1575576474090,3665645.0
1575576474142,3594162.0
1575576474189,3564411.0
1575576474239,3527222.0
1575576474287,3530187.0
1575576474332,3568251.0
1575576474386,3600507.0
1575576474432,3620402.0
1575576474484,3567479.0
1575576474532,3527050.0
1575576474580,3575100.0
1575576474630,3601332.0
1575576474679,3573341.0
1575576474727,3586119.0
1575576474770,3677478.0
1575576474825,3683833.0
1575576474872,3650822.0
1575576474922,3642327.0
1575576474971,3707897.0
1575576475019,3787225.0
1575576475068,3795321.0
1575576475113,3802890.0
1575576475166,3777751.0
1575576475215,3729586.0
1575576475260,3722686.0
1575576475312,3754942.0
1575576475361,3762901.0
1575576475409,3737996.0
1575576475453,3792644.0
1575576475508,3857495.0
1575576475552,3787259.0
1575576475601,3748961.0
1575576475653,3737561.0
1575576475704,3807528.0
1575576475751,3859124.0
1575576475801,3897709.0
1575576475844,3854470.0
1575576475896,3779970.0
1575576475947,3791898.0
1575576475996,3836751.0
1575576476044,3816951.0
1575576476088,3788854.0
1575576476142,3850760.0
1575576476191,3875543.0
1575576476241,3858360.0
1575576476288,3813310.0
1575576476333,3815521.0
1575576476386,3883337.0
1575576476434,3914345.0
1575576476483,3930764.0
1575576476531,3886102.0
1575576476581,3811766.0
1575576476629,3789340.0
1575576476677,3802439.0
1575576476728,3790338.0
1575576476774,3775947.0
1575576476825,3764122.0
1575576476873,3904713.0
1575576476925,3906602.0
1575576476967,3876583.0
1575576477021,3856256.0
1575576477069,3882122.0
1575576477116,3937897.0
1575576477167,3975572.0
1575576477219,3974739.0
1575576477262,3928986.0
1575576477314,3890088.0
1575576477364,3889889.0
1575576477411,3909412.0
1575576477454,3860207.0
1575576477509,3867975.0
1575576477555,4006944.0
1575576477603,3962542.0
1575576477655,3933234.0
1575576477704,3898550.0
1575576477753,3930772.0
1575576477803,3963306.0
1575576477845,3999219.0
1575576477893,4015492.0
1575576477947,3949574.0
1575576477997,3916105.0
1575576478047,3934551.0
1575576478092,3955321.0
1575576478144,3905684.0
1575576478191,3908138.0
1575576478237,3997876.0
1575576478290,4016479.0
1575576478339,3977055.0
1575576478388,3941512.0
1575576478436,3984371.0
1575576478485,4047132.0
1575576478533,4069394.0
1575576478584,4099951.0
1575576478631,4018899.0
1575576478675,3944226.0
1575576478728,3909810.0
1575576478777,3890419.0
1575576478827,3919130.0
1575576478875,3908813.0
1575576478924,3929853.0
1575576478972,4022391.0
1575576479020,3964962.0
1575576479071,3931934.0
1575576479118,3910227.0
1575576479168,3968152.0
1575576479218,4003330.0
1575576479266,4001891.0
1575576479316,3999906.0
1575576479365,3909083.0
1575576479413,3850558.0
1575576479458,3862617.0
1575576479510,3896754.0
1575576479557,3847058.0
1575576479604,3855924.0
1575576479658,3974688.0
1575576479707,3943852.0
1575576479755,3904731.0
1575576479804,3855319.0
1575576479847,3898949.0
1575576479898,3966071.0
1575576479949,3963617.0
1575576479998,3998197.0
1575576480050,3959326.0
1575576480090,3893400.0
1575576480139,3895220.0
1575576480189,3911102.0
1575576480240,3882036.0
1575576480287,3838205.0
1575576480338,3903611.0
1575576480384,3998449.0
1575576480434,3956484.0
1575576480483,3914995.0
1575576480532,3941971.0
1575576480581,4017416.0
1575576480628,4043987.0
1575576480678,4040535.0
1575576480726,4068266.0
1575576480776,4019072.0
1575576480822,4020788.0
1575576480873,4036504.0
1575576480922,4001223.0
1575576480971,3974410.0
1575576481021,4023511.0
1575576481068,4132242.0
1575576481120,4083628.0
1575576481170,4033479.0
1575576481220,4035915.0
1575576481268,4096761.0
1575576481316,4127077.0
1575576481362,4142480.0
1575576481414,4113570.0
1575576481462,4029994.0
1575576481506,3990257.0
1575576481562,4010638.0
1575576481605,3987872.0
1575576481658,3982403.0
1575576481708,3967563.0
1575576481756,4090138.0
1575576481800,4051996.0
1575576481848,4009977.0
1575576481900,4048241.0
1575576481950,4065405.0
1575576482000,4004447.0
1575576482049,3994349.0
1575576482092,4011694.0
1575576482145,3937334.0
1575576482194,3934230.0
1575576482240,3944937.0
1575576482291,3920205.0
1575576482342,3915012.0
1575576482390,3952018.0
1575576482437,3996706.0
1575576482487,3966807.0
1575576482536,3950155.0
1575576482581,3993195.0
1575576482633,4057986.0
1575576482681,4058307.0
1575576482731,4046776.0
1575576482780,4051718.0
1575576482829,3985757.0
1575576482877,3983451.0
1575576482925,3988254.0
1575576482976,4002393.0
1575576483023,3961157.0
1575576483073,3945041.0
1575576483121,4062850.0
1575576483171,3998622.0
1575576483220,3951845.0
1575576483263,3889958.0
1575576483317,3890661.0
1575576483362,3973743.0
1575576483414,3963288.0
1575576483467,3957107.0
1575576483512,3868903.0
1575576483562,3793007.0
1575576483605,3769029.0
1575576483659,3767338.0
1575576483703,3781599.0
1575576483757,3757899.0
1575576483807,3730592.0
1575576483848,3725234.0
1575576483904,3631768.0
1575576483952,3620325.0
1575576484000,3605934.0
1575576484043,3620402.0
1575576484093,3693212.0
1575576484141,3687594.0
1575576484195,3654757.0
1575576484244,3573678.0
1575576484293,3549440.0
1575576484343,3587462.0
1575576484389,3585009.0
1575576484439,3592957.0
1575576484483,3553879.0
1575576484537,3528411.0
1575576484586,3585416.0
1575576484634,3537468.0
1575576484684,3514089.0
1575576484732,3498313.0
1575576484781,3523581.0
1575576484826,3616241.0
1575576484878,3610400.0
1575576484923,3573591.0
1575576484975,3541353.0
1575576485023,3495235.0
1575576485068,3538084.0
1575576485124,3588805.0
1575576485170,3614630.0
1575576485221,3599884.0
1575576485267,3601168.0
1575576485318,3702999.0
1575576485364,3675814.0
1575576485415,3658138.0
1575576485466,3615930.0
1575576485512,3641372.0
1575576485562,3729674.0
1575576485606,3721118.0
1575576485661,3711867.0
1575576485704,3676316.0
1575576485757,3635470.0
1575576485807,3643383.0
1575576485849,3633111.0
1575576485905,3618990.0
1575576485947,3598419.0
1575576485998,3602182.0
1575576486046,3659587.0
1575576486094,3675068.0
1575576486143,3648784.0
1575576486193,3624598.0
1575576486246,3598671.0
1575576486294,3661354.0
1575576486344,3725027.0
1575576486392,3715041.0
1575576486442,3699626.0
1575576486489,3659152.0
1575576486540,3615827.0
1575576486587,3570706.0
1575576486636,3531574.0
1575576486687,3570809.0
1575576486734,3584800.0
1575576486784,3603888.0
1575576486832,3662854.0
1575576486881,3612611.0
1575576486924,3583362.0
1575576486978,3558093.0
1575576487028,3599798.0
1575576487076,3674938.0
1575576487125,3706674.0
1575576487173,3654038.0
1575576487224,3609100.0
1575576487270,3548269.0
1575576487321,3508055.0
1575576487367,3538960.0
1575576487418,3573697.0
1575576487468,3602458.0
1575576487516,3601141.0
1575576487566,3543259.0
1575576487608,3484259.0
1575576487664,3443864.0
1575576487709,3424038.0
1575576487761,3442553.0
1575576487807,3506001.0
1575576487857,3560372.0
1575576487907,3542184.0
1575576487954,3488680.0
1575576488003,3436288.0
1575576488051,3443829.0
1575576488098,3461885.0
1575576488147,3497732.0
1575576488199,3515910.0
1575576488247,3491307.0
1575576488296,3500478.0
1575576488347,3427289.0
1575576488395,3392310.0
1575576488444,3393958.0
1575576488491,3406622.0
1575576488543,3483367.0
1575576488586,3530136.0
1575576488639,3510127.0
1575576488687,3422374.0
1575576488736,3357184.0
1575576488787,3369555.0
1575576488834,3414408.0
1575576488884,3465614.0
1575576488930,3474161.0
1575576488980,3443145.0
1575576489027,3394182.0
1575576489080,3328457.0
1575576489123,3312800.0
1575576489177,3310191.0
1575576489226,3332156.0
1575576489275,3393038.0
1575576489325,3429187.0
1575576489371,3443309.0
1575576489423,3422340.0
1575576489469,3407325.0
1575576489520,3440725.0
1575576489568,3469324.0
1575576489613,3481953.0
1575576489667,3494072.0
1575576489715,3456121.0
1575576489765,3428502.0
1575576489809,3341216.0
1575576489864,3341259.0
1575576489907,3344172.0
1575576489960,3368931.0
1575576490009,3450668.0
1575576490058,3473442.0
1575576490103,3434510.0
1575576490156,3359932.0
1575576490206,3337254.0
1575576490251,3379965.0
1575576490303,3407646.0
1575576490348,3451353.0
1575576490400,3454283.0
1575576490449,3473891.0
1575576490498,3505594.0
1575576490546,3588494.0
1575576490593,3546363.0
1575576490646,3538084.0
1575576490692,3515806.0
1575576490743,3539748.0
1575576490789,3595282.0
1575576490840,3569241.0
1575576490889,3539888.0
1575576490938,3491811.0
1575576490987,3467607.0
1575576491036,3499300.0
1575576491085,3488361.0
1575576491128,3497063.0
1575576491185,3492156.0
1575576491233,3512962.0
1575576491281,3597127.0
1575576491329,3553091.0
1575576491377,3526814.0
1575576491427,3499377.0
1575576491470,3476163.0
1575576491521,3515841.0
1575576491569,3541733.0
1575576491618,3588390.0
1575576491670,3571130.0
1575576491719,3536532.0
1575576491767,3501771.0
1575576491817,3483609.0
1575576491866,3473840.0
1575576491913,3539464.0
