time,value,value2,value3
1578392073188,5795126.0,7102375.0,0.0
1578392073232,5810098.0,7124047.0,0.0
1578392073282,5815264.0,7169240.0,0.0
1578392073332,5823824.0,7176348.0,0.0
1578392073380,5818964.0,7140920.0,0.0
1578392073428,5797328.0,7077919.0,0.0
1578392073478,5770882.0,7046764.0,0.0
1578392073527,5759611.0,7037172.0,0.0
1578392073590,5729158.0,6976844.0,0.0
1578392073630,5709339.0,6934957.0,0.0
1578392073718,5688758.0,6903756.0,0.0
1578392073735,5656930.0,6832901.0,0.0
1578392073827,5618388.0,6752392.0,0.0
1578392073828,5569426.0,6625735.0,0.0
1578392073870,5547293.0,6574540.0,0.0
1578392073916,5495266.0,6523980.0,0.0
1578392073964,5474518.0,6535822.0,0.0
1578392074013,5481261.0,6580795.0,0.0
1578392074065,5495305.0,6724642.0,0.0
1578392074110,5491334.0,6879061.0,0.0
1578392074160,5479924.0,6931649.0,0.0
1578392074208,5471682.0,6926361.0,0.0
1578392074265,5459469.0,6792806.0,0.0
1578392074309,5453211.0,6829767.0,0.0
1578392074359,5457053.0,6960190.0,0.0
1578392074405,5479977.0,7071539.0,0.0
1578392074456,5500240.0,7129873.0,0.0
1578392074506,5512196.0,7144103.0,0.0
1578392074553,5528276.0,7154187.0,0.0
1578392074602,5538681.0,7155834.0,0.0
1578392074651,5543094.0,7145179.0,0.0
1578392074701,5547776.0,7144974.0,0.0
1578392074750,5541072.0,7114976.0,0.0
1578392074800,5536761.0,7096928.0,0.0
1578392074850,5527702.0,7060727.0,0.0
1578392074900,5516496.0,7010594.0,0.0
1578392074953,5505328.0,6925317.0,0.0
1578392074998,5485026.0,6870277.0,0.0
1578392075046,5462130.0,6814808.0,0.0
1578392075095,5437184.0,6772827.0,0.0
1578392075144,5415369.0,6739219.0,0.0
1578392075192,5392752.0,6701624.0,0.0
1578392075242,5371787.0,6657618.0,0.0
1578392075292,5344006.0,6615921.0,0.0
1578392075347,5324187.0,6582710.0,0.0
1578392075393,5310960.0,6565740.0,0.0
1578392075438,5296774.0,6544338.0,0.0
1578392075487,5290644.0,6528159.0,0.0
1578392075536,5280736.0,6519785.0,0.0
1578392075586,5256566.0,6466281.0,0.0
1578392075628,5209106.0,6377665.0,0.0
1578392075682,5167051.0,6309057.0,0.0
1578392075729,5144434.0,6286213.0,0.0
1578392075784,5129220.0,6281625.0,0.0
1578392075827,5117099.0,6262946.0,0.0
1578392075875,5094722.0,6230081.0,0.0
1578392075923,5076139.0,6202569.0,0.0
1578392075972,5061051.0,6175530.0,0.0
1578392076022,5052224.0,6162614.0,0.0
1578392076072,5042761.0,6154666.0,0.0
1578392076124,5034834.0,6142651.0,0.0
1578392076172,5033449.0,6137270.0,0.0
1578392076220,5018934.0,6097459.0,0.0
1578392076270,4971028.0,6015729.0,0.0
1578392076314,4924523.0,5945443.0,0.0
1578392076367,4903929.0,5909953.0,0.0
1578392076415,4893078.0,5898333.0,0.0
1578392076465,4878729.0,5879480.0,0.0
1578392076511,4862713.0,5838148.0,0.0
1578392076563,4844041.0,5815526.0,0.0
1578392076612,4827286.0,5785799.0,0.0
1578392076661,4823586.0,5773624.0,0.0
1578392076713,4818420.0,5767466.0,0.0
1578392076761,4814020.0,5763922.0,0.0
1578392076811,4812214.0,5750465.0,0.0
1578392076852,4799302.0,5720388.0,0.0
1578392076905,4754514.0,5632199.0,0.0
1578392076951,4707714.0,5558146.0,0.0
1578392077002,4681942.0,5524525.0,0.0
1578392077053,4672873.0,5503755.0,0.0
1578392077101,4659554.0,5486643.0,0.0
1578392077149,4644786.0,5451960.0,0.0
1578392077198,4627830.0,5418527.0,0.0
1578392077247,4612909.0,5391459.0,0.0
1578392077295,4605264.0,5374205.0,0.0
1578392077346,4595595.0,5356996.0,0.0
1578392077389,4593293.0,5343320.0,0.0
1578392077444,4588370.0,5332491.0,0.0
1578392077496,4582749.0,5317407.0,0.0
1578392077541,4552372.0,5248529.0,0.0
1578392077590,4502089.0,5167069.0,0.0
1578392077640,4470667.0,5122602.0,0.0
1578392077688,4457412.0,5092511.0,0.0
1578392077735,4448992.0,5075208.0,0.0
1578392077787,4438205.0,5046365.0,0.0
1578392077833,4418121.0,5017776.0,0.0
1578392077885,4410272.0,4995615.0,0.0
1578392077933,4403325.0,4703565.0,0.0
1578392077982,4398708.0,4618244.0,0.0
1578392078031,4401355.0,4613924.0,0.0
1578392078080,4397766.0,4613875.0,0.0
1578392078128,4405170.0,4611310.0,0.0
1578392078178,4401837.0,4601041.0,0.0
1578392078227,4363878.0,4538604.0,0.0
1578392078273,4327181.0,4492170.0,0.0
1578392078326,4310873.0,4472403.0,0.0
1578392078374,4303280.0,4460388.0,0.0
1578392078424,4304386.0,4449928.0,0.0
1578392078471,4294210.0,4434993.0,0.0
1578392078521,4289376.0,4416603.0,0.0
1578392078569,4283142.0,4410216.0,0.0
1578392078617,4284555.0,4409550.0,0.0
1578392078667,4288955.0,4409134.0,0.0
1578392078713,4294096.0,4406178.0,0.0
1578392078763,4294731.0,4406666.0,0.0
1578392078811,4306420.0,4408209.0,0.0
1578392078856,4309053.0,4407995.0,0.0
1578392078911,4280141.0,4364232.0,0.0
1578392078956,4253899.0,4331477.0,0.0
1578392079009,4243888.0,4314773.0,0.0
1578392079055,4239970.0,4308266.0,0.0
1578392079106,4243531.0,4304693.0,0.0
1578392079150,4243696.0,4299968.0,0.0
1578392079205,4238493.0,4289152.0,0.0
1578392079258,4239664.0,4284878.0,0.0
1578392079307,4249280.0,4288569.0,0.0
1578392079353,4254331.0,4292226.0,0.0
1578392079401,4268960.0,4304396.0,0.0
1578392079449,4275282.0,4310178.0,0.0
1578392079499,4286374.0,4314534.0,0.0
1578392079548,4300939.0,4324211.0,0.0
1578392079593,4297453.0,4317977.0,0.0
1578392079645,4276349.0,4286754.0,0.0
1578392079698,4260347.0,4271699.0,0.0
1578392079744,4259113.0,4268672.0,0.0
1578392079795,4261620.0,4269337.0,0.0
1578392079843,4265067.0,4275534.0,0.0
1578392079889,4260678.0,4269111.0,0.0
1578392079937,4259280.0,4269977.0,0.0
1578392079987,4267204.0,4276590.0,0.0
1578392080036,4276656.0,4284962.0,0.0
1578392080085,4280649.0,4291669.0,0.0
1578392080138,4291577.0,4303065.0,0.0
1578392080182,4301664.0,4312422.0,0.0
1578392080231,4311293.0,4319189.0,0.0
1578392080274,4318201.0,4329708.0,0.0
1578392080336,4297504.0,4301760.0,0.0
1578392080372,4278347.0,4284426.0,0.0
1578392080422,4269977.0,4282528.0,0.0
1578392080472,4272610.0,4289365.0,0.0
1578392080522,4276299.0,4297154.0,0.0
1578392080570,4272674.0,4291846.0,0.0
1578392080620,4271186.0,4288403.0,0.0
1578392080667,4274390.0,4296774.0,0.0
1578392080723,4279632.0,4301143.0,0.0
1578392080773,4286144.0,4310118.0,0.0
1578392080813,4294171.0,4317218.0,0.0
1578392080861,4302720.0,4331797.0,0.0
1578392080913,4313227.0,4340964.0,0.0
1578392080960,4320934.0,4356017.0,0.0
1578392081011,4317552.0,4349346.0,0.0
1578392081059,4293840.0,4326229.0,0.0
1578392081112,4273156.0,4312505.0,0.0
1578392081157,4258756.0,4312315.0,0.0
1578392081209,4252550.0,4316637.0,0.0
1578392081259,4254966.0,4324187.0,0.0
1578392081310,4251620.0,4327368.0,0.0
1578392081359,4257764.0,4339182.0,0.0
1578392081406,4259597.0,4350971.0,0.0
1578392081453,4262445.0,4358380.0,0.0
1578392081503,4271275.0,4366702.0,0.0
1578392081551,4269252.0,4377672.0,0.0
1578392081602,4268553.0,4377721.0,0.0
1578392081649,4265805.0,4382161.0,0.0
1578392081693,4271604.0,4395172.0,0.0
1578392081747,4264672.0,4393593.0,0.0
1578392081803,4246596.0,4391825.0,0.0
1578392081850,4234016.0,4404006.0,0.0
1578392081893,4226537.0,4405015.0,0.0
1578392081943,4213878.0,4406167.0,0.0
1578392081990,4197241.0,4396800.0,0.0
1578392082037,4175426.0,4373079.0,0.0
1578392082089,4162310.0,4380249.0,0.0
1578392082139,4150861.0,4380569.0,0.0
1578392082187,4142912.0,4382280.0,0.0
1578392082241,4151842.0,4401275.0,0.0
1578392082286,4152185.0,4413896.0,0.0
1578392082336,4218916.0,4516046.0,0.0
1578392082383,4310377.0,4632599.0,0.0
1578392082431,4310173.0,4630342.0,0.0
1578392082480,4272420.0,4582152.0,0.0
1578392082531,4229652.0,4515904.0,0.0
1578392082578,4210649.0,4484631.0,0.0
1578392082627,4204480.0,4473032.0,0.0
1578392082676,4203435.0,4466835.0,0.0
1578392082727,4198868.0,4454677.0,0.0
1578392082777,4197725.0,4445988.0,0.0
1578392082825,4193513.0,4439635.0,0.0
1578392082870,4191796.0,4430707.0,0.0
1578392082922,4194340.0,4427360.0,0.0
1578392082970,4198539.0,4438626.0,0.0
1578392083019,4200434.0,4470670.0,0.0
1578392083067,4206374.0,4476868.0,0.0
1578392083116,4210688.0,4489832.0,0.0
1578392083161,4193248.0,4462905.0,0.0
1578392083214,4187510.0,4447566.0,0.0
1578392083267,4200624.0,4442129.0,0.0
1578392083313,4219298.0,4451080.0,0.0
1578392083362,4239474.0,4460947.0,0.0
1578392083410,4259405.0,4465233.0,0.0
1578392083459,4263501.0,4464900.0,0.0
1578392083508,4273755.0,4456185.0,0.0
1578392083557,4264635.0,4429448.0,0.0
1578392083607,4251149.0,4398152.0,0.0
1578392083654,4245172.0,4390862.0,0.0
1578392083703,4253286.0,4400932.0,0.0
1578392083753,4274937.0,4413800.0,0.0
1578392083800,4276630.0,4405454.0,0.0
1578392083852,4271236.0,4398058.0,0.0
1578392083896,4268742.0,4393749.0,0.0
1578392083948,4285229.0,4396727.0,0.0
1578392083997,4309728.0,4438043.0,0.0
1578392084047,4334685.0,4459997.0,0.0
1578392084095,4376409.0,4517745.0,0.0
1578392084145,4421097.0,4585655.0,0.0
1578392084187,4448560.0,4588230.0,0.0
1578392084238,4495753.0,4636053.0,0.0
1578392084293,4526918.0,4667562.0,0.0
1578392084342,4521092.0,4641444.0,0.0
1578392084388,4541712.0,4630378.0,0.0
1578392084437,4565881.0,4677275.0,0.0
1578392084486,4595126.0,4753495.0,0.0
1578392084535,4617259.0,4766971.0,0.0
1578392084579,4610059.0,4716844.0,0.0
1578392084627,4602592.0,4688078.0,0.0
1578392084679,4606509.0,4682997.0,0.0
1578392084724,4617538.0,4688898.0,0.0
1578392084777,4637040.0,4734404.0,0.0
1578392084828,4656324.0,4791677.0,0.0
1578392084874,4708173.0,4881147.0,0.0
1578392084920,4756484.0,5002734.0,0.0
1578392084975,4762096.0,5002865.0,0.0
1578392085026,4781723.0,4985792.0,0.0
1578392085073,4780157.0,4965454.0,0.0
1578392085119,4811044.0,4963532.0,0.0
1578392085170,4832146.0,5011709.0,0.0
1578392085220,4851202.0,5057228.0,0.0
1578392085270,4877113.0,5092704.0,0.0
1578392085320,4874797.0,5059379.0,0.0
1578392085367,4880676.0,5061051.0,0.0
1578392085415,4893344.0,5057111.0,0.0
1578392085463,4908928.0,5064221.0,0.0
1578392085513,4921369.0,5059639.0,0.0
1578392085562,4925120.0,5082327.0,0.0
1578392085611,4934406.0,5122158.0,0.0
1578392085662,5000438.0,5256793.0,0.0
1578392085708,4994562.0,5203129.0,0.0
1578392085761,5011110.0,5267586.0,0.0
1578392085811,4980646.0,5210668.0,0.0
1578392085855,4994982.0,5218944.0,0.0
1578392085901,5014214.0,5280064.0,0.0
1578392085953,5060722.0,5369380.0,0.0
1578392086001,5052656.0,5335067.0,0.0
1578392086051,5039376.0,5278875.0,0.0
1578392086100,5048941.0,5277013.0,0.0
1578392086148,5060466.0,5281655.0,0.0
1578392086197,5062171.0,5267336.0,0.0
1578392086245,5080425.0,5253256.0,0.0
1578392086294,5070084.0,5280503.0,0.0
1578392086344,5125734.0,5382404.0,0.0
1578392086392,5178182.0,5467850.0,0.0
1578392086444,5156621.0,5443345.0,0.0
1578392086490,5132834.0,5407786.0,0.0
1578392086540,5137158.0,5401732.0,0.0
1578392086589,5170269.0,5469962.0,0.0
1578392086637,5199451.0,5525668.0,0.0
1578392086684,5210352.0,5524019.0,0.0
1578392086736,5186667.0,5466329.0,0.0
1578392086783,5179657.0,5441316.0,0.0
1578392086838,5185433.0,5445245.0,0.0
1578392086886,5184758.0,5424326.0,0.0
1578392086930,5211510.0,5489209.0,0.0
1578392086980,5255485.0,5567840.0,0.0
1578392087029,5276105.0,5608846.0,0.0
1578392087077,5293901.0,5637401.0,0.0
1578392087125,5306226.0,5661787.0,0.0
1578392087174,5293913.0,5635357.0,0.0
1578392087221,5266196.0,5582109.0,0.0
1578392087273,5258244.0,5544665.0,0.0
1578392087323,5251897.0,5499882.0,0.0
1578392087369,5300770.0,5594660.0,0.0
1578392087420,5314800.0,5628804.0,0.0
1578392087467,5274121.0,5543453.0,0.0
1578392087517,5258144.0,5497068.0,0.0
1578392087563,5262061.0,5501960.0,0.0
1578392087615,5258130.0,5506542.0,0.0
1578392087664,5242841.0,5486679.0,0.0
1578392087711,5220923.0,5472076.0,0.0
1578392087764,5199565.0,5449531.0,0.0
1578392087806,5223060.0,5487511.0,0.0
1578392087859,5211522.0,5472076.0,0.0
1578392087902,5191156.0,5416038.0,0.0
1578392087957,5174582.0,5393742.0,0.0
1578392088004,5161314.0,5366043.0,0.0
1578392088052,5140045.0,5306777.0,0.0
1578392088106,5108969.0,5223266.0,0.0
1578392088152,5069817.0,5139991.0,0.0
1578392088204,5038180.0,5078528.0,0.0
1578392088248,5015410.0,5023001.0,0.0
1578392088300,5005844.0,5000597.0,0.0
1578392088343,4994219.0,4973220.0,0.0
1578392088396,4983915.0,4972068.0,0.0
1578392088448,4968827.0,4973610.0,0.0
1578392088495,4956489.0,4959577.0,0.0
1578392088547,4944786.0,4934395.0,0.0
1578392088592,4923124.0,4898220.0,0.0
1578392088641,4873094.0,4821265.0,0.0
1578392088687,4814502.0,4731899.0,0.0
1578392088740,4769728.0,4658350.0,0.0
1578392088785,4724301.0,4605553.0,0.0
1578392088838,4702155.0,4582722.0,0.0
1578392088889,4683851.0,4565649.0,0.0
1578392088931,4661069.0,4540646.0,0.0
1578392088988,4635474.0,4511368.0,0.0
1578392089032,4614384.0,4486532.0,0.0
1578392089082,4587302.0,4457134.0,0.0
1578392089129,4565245.0,4424795.0,0.0
1578392089178,4514032.0,4353975.0,0.0
1578392089222,4452438.0,4294553.0,0.0
1578392089272,4423170.0,4264992.0,0.0
1578392089322,4401049.0,4243372.0,0.0
1578392089374,4377312.0,4231285.0,0.0
1578392089422,4373152.0,4245068.0,0.0
1578392089471,4371613.0,4265371.0,0.0
1578392089522,4377949.0,4276710.0,0.0
1578392089566,4381611.0,4290944.0,0.0
1578392089619,4378966.0,4301452.0,0.0
1578392089663,4374500.0,4297557.0,0.0
1578392089711,4371017.0,4285435.0,0.0
1578392089766,4348576.0,4253344.0,0.0
1578392089810,4295227.0,4174570.0,0.0
1578392089861,4265385.0,4163148.0,0.0
1578392089908,4257117.0,4189256.0,0.0
1578392089963,4289197.0,4286218.0,0.0
1578392090003,4322982.0,4359746.0,0.0
1578392090056,4366308.0,4451899.0,0.0
1578392090103,4428793.0,4574779.0,0.0
1578392090153,4454118.0,4617294.0,0.0
1578392090205,4486912.0,4684505.0,0.0
1578392090257,4487193.0,4689100.0,0.0
1578392090305,4506539.0,4717986.0,0.0
1578392090355,4537883.0,4797578.0,0.0
1578392090402,4579606.0,4903172.0,0.0
1578392090450,4582571.0,4930692.0,0.0
1578392090499,4608532.0,4993081.0,0.0
1578392090542,4633033.0,5043185.0,0.0
1578392090596,4644864.0,5028497.0,0.0
1578392090648,4646822.0,5012708.0,0.0
1578392090694,4647408.0,5000537.0,0.0
1578392090743,4646566.0,4986837.0,0.0
1578392090785,4664580.0,5013800.0,0.0
1578392090845,4688660.0,5042269.0,0.0
1578392090886,4700528.0,5051281.0,0.0
1578392090940,4714240.0,5073649.0,0.0
1578392090986,4702665.0,5057241.0,0.0
1578392091037,4677046.0,5027750.0,0.0
1578392091090,4662875.0,5018809.0,0.0
1578392091135,4663906.0,5025339.0,0.0
1578392091184,4677186.0,5052279.0,0.0
1578392091232,4687718.0,5067795.0,0.0
1578392091278,4697092.0,5097905.0,0.0
1578392091326,4708502.0,5126907.0,0.0
1578392091380,4712916.0,5139517.0,0.0
1578392091424,4711339.0,5135552.0,0.0
1578392091476,4740902.0,5321723.0,0.0
1578392091528,4770731.0,5547942.0,0.0
1578392091575,4798093.0,5655590.0,0.0
1578392091625,4797165.0,5625540.0,0.0
1578392091672,4801058.0,5610212.0,0.0
1578392091725,4821869.0,5726265.0,0.0
1578392091774,4854688.0,5897740.0,0.0
1578392091821,4857563.0,5898453.0,0.0
1578392091866,4860297.0,5821258.0,0.0
1578392091917,4850845.0,5738353.0,0.0
1578392091970,4865945.0,5737640.0,0.0
1578392092015,4874137.0,5732462.0,0.0
1578392092064,4885229.0,5738660.0,0.0
1578392092112,4891209.0,5722301.0,0.0
1578392092159,4883257.0,5699944.0,0.0
1578392092209,4881476.0,5705834.0,0.0
1578392092261,4884427.0,5714986.0,0.0
1578392092309,4881858.0,5708375.0,0.0
1578392092358,4873234.0,5680390.0,0.0
1578392092408,4852258.0,5644096.0,0.0
1578392092455,4850717.0,5630088.0,0.0
1578392092505,4850249.0,5642304.0,0.0
1578392092553,4862180.0,5650318.0,0.0
1578392092602,4863872.0,5659306.0,0.0
1578392092648,4872534.0,5679477.0,0.0
1578392092701,4874989.0,5667865.0,0.0
1578392092749,4857766.0,5637947.0,0.0
1578392092801,4847691.0,5619901.0,0.0
1578392092845,4844662.0,5606342.0,0.0
1578392092895,4844841.0,5596192.0,0.0
1578392092945,4849026.0,5590054.0,0.0
1578392092993,4852384.0,5583310.0,0.0
1578392093042,4842361.0,5564326.0,0.0
1578392093087,4842400.0,5541198.0,0.0
1578392093141,4844790.0,5540546.0,0.0
1578392093189,4854242.0,5550743.0,0.0
1578392093237,4841483.0,5526536.0,0.0
1578392093286,4787789.0,5411526.0,0.0
1578392093337,4821321.0,5512716.0,0.0
1578392093385,4874708.0,5712078.0,0.0
1578392093435,4941300.0,5849301.0,0.0
1578392093484,4953933.0,5912260.0,0.0
1578392093530,4974246.0,5987543.0,0.0
1578392093582,5005133.0,6088115.0,0.0
1578392093628,5065083.0,6172456.0,0.0
1578392093679,5109554.0,6267044.0,0.0
1578392093736,5143289.0,6239347.0,0.0
1578392093786,5157396.0,6219852.0,0.0
1578392093831,5174112.0,6208501.0,0.0
1578392093899,5171974.0,6129088.0,0.0
1578392093919,5169824.0,6076539.0,0.0
1578392093967,5165245.0,6041088.0,0.0
1578392094019,5147259.0,5992149.0,0.0
1578392094066,5118128.0,5932396.0,0.0
1578392094123,5103259.0,5925047.0,0.0
1578392094167,5103945.0,5954572.0,0.0
1578392094212,5107595.0,5969105.0,0.0
1578392094260,5101885.0,5957838.0,0.0
1578392094312,5092077.0,5941561.0,0.0
1578392094362,5078658.0,5905826.0,0.0
1578392094410,5052427.0,5850986.0,0.0
1578392094459,5021682.0,5800302.0,0.0
1578392094506,4996482.0,5784452.0,0.0
1578392094557,5012688.0,5787481.0,0.0
1578392094606,5030612.0,5813742.0,0.0
1578392094651,5064818.0,5854393.0,0.0
1578392094707,5101732.0,5895210.0,0.0
1578392094748,5143659.0,5961602.0,0.0
1578392094801,5189426.0,6037288.0,0.0
1578392094847,5230820.0,6084435.0,0.0
1578392094900,5260827.0,6118828.0,0.0
1578392094946,5285035.0,6119850.0,0.0
1578392094995,5297794.0,6108488.0,0.0
1578392095044,5302804.0,6091285.0,0.0
1578392095093,5288964.0,6046811.0,0.0
1578392095143,5272848.0,6020381.0,0.0
1578392095190,5269325.0,5992292.0,0.0
1578392095240,5265140.0,5957969.0,0.0
1578392095288,5258651.0,5951688.0,0.0
1578392095340,5262950.0,5949088.0,0.0
1578392095389,5258016.0,5935933.0,0.0
1578392095436,5254251.0,5925570.0,0.0
1578392095485,5236912.0,5879801.0,0.0
1578392095533,5193814.0,5807605.0,0.0
1578392095583,5162880.0,5758760.0,0.0
1578392095632,5145465.0,5740870.0,0.0
1578392095681,5130964.0,5727274.0,0.0
1578392095732,5108882.0,5699374.0,0.0
1578392095784,5081837.0,5651933.0,0.0
1578392095833,5049808.0,5621147.0,0.0
1578392095880,5035675.0,5605702.0,0.0
1578392095932,5018489.0,5580567.0,0.0
1578392095976,5000185.0,5556311.0,0.0
1578392096029,4953588.0,5466521.0,0.0
1578392096070,4873730.0,5353056.0,0.0
1578392096127,4814909.0,5281156.0,0.0
1578392096171,4783440.0,5241228.0,0.0
1578392096226,4769179.0,5215820.0,0.0
1578392096273,4747899.0,5188704.0,0.0
1578392096319,4715003.0,5125318.0,0.0
1578392096362,4667238.0,5045476.0,0.0
1578392096411,4627702.0,4999054.0,0.0
1578392096461,4615072.0,4982028.0,0.0
1578392096509,4611382.0,4963982.0,0.0
1578392096565,4580230.0,4918310.0,0.0
1578392096610,4511947.0,4801139.0,0.0
1578392096665,4435915.0,4698692.0,0.0
1578392096713,4396189.0,4644258.0,0.0
1578392096756,4376740.0,4616108.0,0.0
1578392096811,4363828.0,4587637.0,0.0
1578392096853,4334470.0,4556757.0,0.0
1578392096910,4309334.0,4523443.0,0.0
1578392096950,4287938.0,4493335.0,0.0
1578392097007,4270537.0,4478600.0,0.0
1578392097052,4259469.0,4455236.0,0.0
1578392097103,4249026.0,4447364.0,0.0
1578392097152,4235428.0,4423630.0,0.0
1578392097202,4172347.0,4338493.0,0.0
1578392097252,4113819.0,4271308.0,0.0
1578392097293,4087616.0,4244689.0,0.0
1578392097349,4080836.0,4229077.0,0.0
1578392097395,4060624.0,4196285.0,0.0
1578392097448,4019675.0,4136341.0,0.0
1578392097492,3977202.0,4074890.0,0.0
1578392097546,3248384.0,4024716.0,0.0
1578392097589,3758571.0,4022758.0,0.0
1578392097641,3766788.0,4051869.0,0.0
1578392097692,3783296.0,4072134.0,0.0
1578392097733,3776351.0,4055383.0,0.0
1578392097789,3710959.0,3972465.0,0.0
1578392097832,3665093.0,3921794.0,0.0
1578392097887,3647138.0,3910551.0,0.0
1578392097933,3645472.0,3914741.0,0.0
1578392097984,3645338.0,3914491.0,0.0
1578392098025,3642235.0,3916595.0,0.0
1578392098082,3635281.0,3907737.0,0.0
1578392098124,3617076.0,3883897.0,0.0
1578392098181,3598421.0,3857943.0,0.0
1578392098230,3593902.0,3856507.0,0.0
1578392098271,3601127.0,3869294.0,0.0
1578392098328,3602956.0,3882675.0,0.0
1578392098374,3571846.0,3858656.0,0.0
1578392098423,3555202.0,3850429.0,0.0
1578392098474,3552967.0,3854988.0,0.0
1578392098522,3563465.0,3868772.0,0.0
1578392098571,3568406.0,3872605.0,0.0
1578392098615,3567569.0,3857113.0,0.0
1578392098670,3549576.0,3840360.0,0.0
1578392098712,3544817.0,3835291.0,0.0
1578392098769,3547371.0,3834069.0,0.0
1578392098813,3562684.0,3856721.0,0.0
1578392098865,3591938.0,3896089.0,0.0
1578392098914,3611028.0,3930901.0,0.0
1578392098961,3584455.0,3895982.0,0.0
1578392099012,3552707.0,3864320.0,0.0
1578392099058,3548739.0,3873781.0,0.0
1578392099110,3568166.0,3901527.0,0.0
1578392099152,3598421.0,3936942.0,0.0
1578392099209,3619254.0,3959820.0,0.0
1578392099255,3626016.0,3967396.0,0.0
1578392099306,3623887.0,3963502.0,0.0
1578392099355,3628269.0,3974722.0,0.0
1578392099398,3637873.0,3987865.0,0.0
1578392099452,3639596.0,3990702.0,0.0
1578392099494,3649267.0,3999784.0,0.0
1578392099550,3652975.0,4000533.0,0.0
1578392099592,3625524.0,3970412.0,0.0
1578392099649,3608177.0,3957719.0,0.0
1578392099696,3614275.0,3967159.0,0.0
1578392099737,3622548.0,3977736.0,0.0
1578392099785,3626873.0,3980480.0,0.0
1578392099837,3619370.0,3970969.0,0.0
1578392099893,3620236.0,3980053.0,0.0
1578392099934,3627875.0,3995712.0,0.0
1578392099991,3649412.0,4019778.0,0.0
1578392100041,3667000.0,4042976.0,0.0
1578392100080,3695723.0,4076362.0,0.0
1578392100133,3705075.0,4086656.0,0.0
1578392100186,3677884.0,4052366.0,0.0
1578392100227,3657435.0,4040614.0,0.0
1578392100275,3658609.0,4047001.0,0.0
1578392100324,3667876.0,4057638.0,0.0
1578392100373,3673868.0,4068121.0,0.0
1578392100426,3677027.0,4066579.0,0.0
1578392100473,3672279.0,4062850.0,0.0
1578392100523,3675784.0,4057934.0,0.0
1578392100573,3679522.0,4052593.0,0.0
1578392100625,3688228.0,4062602.0,0.0
1578392100674,3700258.0,4085041.0,0.0
1578392100721,3719291.0,4103799.0,0.0
1578392100773,3680012.0,4062577.0,0.0
1578392100813,3646464.0,4029098.0,0.0
1578392100871,3638278.0,4020384.0,0.0
1578392100916,3637063.0,4025049.0,0.0
1578392100969,3643729.0,4031010.0,0.0
1578392101018,3648979.0,4046585.0,0.0
1578392101065,3674099.0,4078581.0,0.0
1578392101115,3693651.0,4099168.0,0.0
1578392101159,3696946.0,4107206.0,0.0
1578392101212,3712260.0,4124422.0,0.0
1578392101254,3732199.0,4152025.0,0.0
1578392101311,3753051.0,4180957.0,0.0
1578392101357,3760083.0,4182395.0,0.0
1578392101409,3734962.0,4150600.0,0.0
1578392101457,3721545.0,4138632.0,0.0
1578392101506,3719984.0,4137386.0,0.0
1578392101555,3722250.0,4144652.0,0.0
1578392101598,3732122.0,4151786.0,0.0
1578392101653,3739038.0,4149115.0,0.0
1578392101694,3732632.0,4137719.0,0.0
1578392101750,3738075.0,4144200.0,0.0
1578392101798,3752204.0,4161036.0,0.0
1578392101848,3764563.0,4176305.0,0.0
1578392101898,3774675.0,4187618.0,0.0
1578392101945,3782698.0,4197198.0,0.0
1578392101995,3749940.0,4155718.0,0.0
1578392102043,3719119.0,4122058.0,0.0
1578392102089,3695463.0,4100996.0,0.0
1578392102135,3684232.0,4096533.0,0.0
1578392102191,3702485.0,4129004.0,0.0
1578392102238,3715777.0,4136934.0,0.0
1578392102283,3712694.0,4128588.0,0.0
1578392102338,3714899.0,4137979.0,0.0
1578392102387,3722152.0,4151942.0,0.0
1578392102436,3738392.0,4170284.0,0.0
1578392102483,3757068.0,4195370.0,0.0
1578392102533,3781071.0,4222487.0,0.0
1578392102576,3793796.0,4237316.0,0.0
1578392102632,3773289.0,4201700.0,0.0
1578392102679,3735848.0,4153484.0,0.0
1578392102729,3708667.0,4139131.0,0.0
1578392102779,3719850.0,4150030.0,0.0
1578392102827,3738266.0,4172029.0,0.0
1578392102875,3751810.0,4183771.0,0.0
1578392102917,3749006.0,4177134.0,0.0
1578392102973,3745462.0,4164704.0,0.0
1578392103016,3740810.0,4158103.0,0.0
1578392103071,3714129.0,4100972.0,0.0
1578392103118,3736023.0,4100177.0,0.0
1578392103163,3764427.0,4117333.0,0.0
1578392103219,3780648.0,4116514.0,0.0
1578392103267,3796453.0,4140390.0,0.0
1578392103317,3832342.0,4185256.0,0.0
1578392103358,3935144.0,4321290.0,0.0
1578392103414,4047280.0,4469019.0,0.0
1578392103457,4150920.0,4595176.0,0.0
1578392103512,4241643.0,4721036.0,0.0
1578392103585,4327320.0,4843893.0,0.0
1578392103630,4397488.0,4948631.0,0.0
1578392103654,4463642.0,5052409.0,0.0
1578392103709,4510232.0,5141796.0,0.0
1578392103760,4559412.0,5233642.0,0.0
1578392103798,4595023.0,5309162.0,0.0
1578392103845,4625314.0,5381275.0,0.0
1578392103896,4647594.0,5425429.0,0.0
1578392103943,4666664.0,5472076.0,0.0
1578392103999,4676286.0,5492723.0,0.0
1578392104048,4676047.0,5480744.0,0.0
1578392104092,4666857.0,5444876.0,0.0
1578392104140,4657783.0,5420064.0,0.0
1578392104197,4648094.0,5409248.0,0.0
1578392104239,4635418.0,5393303.0,0.0
1578392104287,4628494.0,5375697.0,0.0
1578392104339,4620883.0,5348377.0,0.0
1578392104392,4610058.0,5315253.0,0.0
1578392104441,4597083.0,5271229.0,0.0
1578392104491,4557188.0,5185024.0,0.0
1578392104537,4512967.0,5115831.0,0.0
1578392104582,4481105.0,5073469.0,0.0
1578392104646,4449251.0,5036987.0,0.0
1578392104679,4429458.0,4994662.0,0.0
1578392104739,4417292.0,4966760.0,0.0
1578392104779,4394812.0,4941365.0,0.0
1578392104833,4373938.0,4907398.0,0.0
1578392104881,4352247.0,4875795.0,0.0
1578392104929,4331048.0,4837160.0,0.0
1578392104980,4312159.0,4808537.0,0.0
1578392105020,4295535.0,4773678.0,0.0
1578392105071,4238996.0,4688778.0,0.0
1578392105120,4186502.0,4625819.0,0.0
1578392105175,4162777.0,4596185.0,0.0
1578392105219,4152317.0,4590867.0,0.0
1578392105273,4152567.0,4586973.0,0.0
1578392105321,4134999.0,4552625.0,0.0
1578392105366,4114117.0,4519799.0,0.0
1578392105415,4109224.0,4538176.0,0.0
1578392105464,4113048.0,4548445.0,0.0
1578392105513,4106103.0,4531575.0,0.0
1578392105566,4096798.0,4513732.0,0.0
1578392105623,4089478.0,4511061.0,0.0
1578392105661,4075184.0,4486888.0,0.0
1578392105713,4039458.0,4429768.0,0.0
1578392105762,4005361.0,4385318.0,0.0
1578392105810,3995142.0,4373043.0,0.0
1578392105860,3991155.0,4365480.0,0.0
1578392105909,3973538.0,4329280.0,0.0
1578392105958,3939151.0,4273527.0,0.0
1578392105999,3906470.0,4221621.0,0.0
1578392106064,3877536.0,4179272.0,0.0
1578392106101,3866256.0,4168586.0,0.0
1578392106152,3865669.0,4172706.0,0.0
1578392106204,3877546.0,4187558.0,0.0
1578392106250,3869224.0,4164480.0,0.0
1578392106294,3820466.0,4073702.0,0.0
1578392106344,3787708.0,3997742.0,0.0
1578392106399,3813463.0,3997813.0,0.0
1578392106445,3857578.0,4030094.0,0.0
1578392106497,3914995.0,4091891.0,0.0
1578392106546,3965263.0,4163754.0,0.0
1578392106595,4014821.0,4245804.0,0.0
1578392106645,4052423.0,4305582.0,0.0
1578392106690,4087080.0,4357299.0,0.0
1578392106744,4095585.0,4350651.0,0.0
1578392106782,4087706.0,4338683.0,0.0
1578392106838,4067344.0,4306771.0,0.0
1578392106882,4017787.0,4234634.0,0.0
1578392106938,3984422.0,4198316.0,0.0
1578392106983,3968211.0,4174880.0,0.0
1578392107032,3943948.0,4149318.0,0.0
1578392107082,3931310.0,4141506.0,0.0
1578392107134,3928084.0,4147204.0,0.0
1578392107182,3907346.0,4144070.0,0.0
1578392107222,3884625.0,4129977.0,0.0
1578392107279,3877583.0,4132317.0,0.0
1578392107320,3878229.0,4142824.0,0.0
1578392107377,3880088.0,4148046.0,0.0
1578392107422,3863838.0,4129028.0,0.0
1578392107473,3828171.0,4089896.0,0.0
1578392107525,3808802.0,4079863.0,0.0
1578392107565,3799700.0,4084957.0,0.0
1578392107618,3799777.0,4085373.0,0.0
1578392107667,3800220.0,4084115.0,0.0
1578392107720,3797514.0,4074700.0,0.0
1578392107767,3790829.0,4076919.0,0.0
1578392107815,3793054.0,4088744.0,0.0
1578392107867,3798670.0,4107052.0,0.0
1578392107913,3807242.0,4120930.0,0.0
1578392107964,3824617.0,4144117.0,0.0
1578392108005,3828026.0,4148296.0,0.0
1578392108061,3806884.0,4119624.0,0.0
1578392108101,3784037.0,4101092.0,0.0
1578392108153,3779212.0,4096140.0,0.0
1578392108201,3779693.0,4102717.0,0.0
1578392108248,3782660.0,4111968.0,0.0
1578392108305,3779386.0,4111718.0,0.0
1578392108347,3777064.0,4114436.0,0.0
1578392108399,3777093.0,4121335.0,0.0
1578392108448,3780282.0,4131153.0,0.0
1578392108497,3792745.0,4154566.0,0.0
1578392108552,3806616.0,4170557.0,0.0
1578392108604,3793149.0,4148046.0,0.0
1578392108643,3764900.0,4117856.0,0.0
1578392108699,3752917.0,4107822.0,0.0
1578392108749,3755865.0,4120883.0,0.0
1578392108789,3768521.0,4141719.0,0.0
1578392108846,3781071.0,4162758.0,0.0
1578392108888,3791406.0,4174297.0,0.0
1578392108945,3800344.0,4186715.0,0.0
1578392108992,3810641.0,4202316.0,0.0
1578392109039,3823047.0,4220196.0,0.0
1578392109085,3833354.0,4238231.0,0.0
1578392109140,3848659.0,4255351.0,0.0
1578392109185,3836407.0,4235797.0,0.0
1578392109235,3819022.0,4215660.0,0.0
1578392109286,3814503.0,4219330.0,0.0
1578392109328,3821159.0,4231142.0,0.0
1578392109383,3835010.0,4252467.0,0.0
1578392109425,3844305.0,4267223.0,0.0
1578392109483,3844864.0,4265704.0,0.0
1578392109524,3849083.0,4267485.0,0.0
1578392109577,3851654.0,4279488.0,0.0
1578392109628,3862759.0,4294054.0,0.0
1578392109675,3873259.0,4305655.0,0.0
1578392109722,3877382.0,4306771.0,0.0
1578392109772,3853397.0,4274476.0,0.0
1578392109823,3834981.0,4250875.0,0.0
1578392109865,3831428.0,4246803.0,0.0
1578392109923,3844768.0,4262734.0,0.0
1578392109963,3853253.0,4273041.0,0.0
1578392110020,3855719.0,4266417.0,0.0
1578392110064,3852647.0,4265418.0,0.0
1578392110114,3861026.0,4270952.0,0.0
1578392110162,3867046.0,4280366.0,0.0
1578392110214,3881311.0,4291776.0,0.0
1578392110262,3896356.0,4307054.0,0.0
1578392110313,3893794.0,4300098.0,0.0
1578392110361,3876486.0,4285222.0,0.0
1578392110406,3884576.0,4310557.0,0.0
1578392110455,3909109.0,4359556.0,0.0
1578392110505,3929528.0,4384665.0,0.0
1578392110556,3940770.0,4409207.0,0.0
1578392110604,3950959.0,4425412.0,0.0
1578392110651,3964936.0,4454453.0,0.0
1578392110706,3985280.0,4484061.0,0.0
1578392110750,4016274.0,4534235.0,0.0
1578392110802,4045720.0,4577177.0,0.0
1578392110843,4065418.0,4605779.0,0.0
1578392110900,4054639.0,4580371.0,0.0
1578392110946,4038938.0,4559511.0,0.0
1578392110997,4049332.0,4559357.0,0.0
1578392111046,4071293.0,4573141.0,0.0
1578392111096,4093368.0,4593514.0,0.0
1578392111143,4111959.0,4623242.0,0.0
1578392111191,4138109.0,4716810.0,0.0
1578392111243,4175597.0,4855505.0,0.0
1578392111286,4237935.0,5005832.0,0.0
1578392111341,4309569.0,5160198.0,0.0
1578392111390,4361937.0,5283281.0,0.0
1578392111437,4397238.0,5314470.0,0.0
1578392111482,4404193.0,5309316.0,0.0
1578392111530,4413295.0,5309305.0,0.0
1578392111583,4429381.0,5328337.0,0.0
1578392111630,4452508.0,5359596.0,0.0
1578392111683,4475247.0,5391118.0,0.0
1578392111726,4487740.0,5405162.0,0.0
1578392111777,4478533.0,5385561.0,0.0
1578392111827,4457632.0,5354052.0,0.0
1578392111876,4449212.0,5314423.0,0.0
1578392111928,4437443.0,5276275.0,0.0
1578392111972,4440669.0,5253030.0,0.0
1578392112021,4428899.0,5218254.0,0.0
1578392112064,4413517.0,5192206.0,0.0
1578392112123,4405772.0,5183648.0,0.0
1578392112167,4408017.0,5182732.0,0.0
1578392112219,4404857.0,5177105.0,0.0
1578392112266,4403451.0,5163854.0,0.0
1578392112318,4395505.0,5144693.0,0.0
1578392112364,4388386.0,5125542.0,0.0
1578392112412,4377079.0,5107176.0,0.0
1578392112464,4360108.0,5075667.0,0.0
1578392112506,4348164.0,5045523.0,0.0
1578392112561,4343503.0,5039502.0,0.0
1578392112610,4323506.0,5017254.0,0.0
1578392112660,4307959.0,4982811.0,0.0
1578392112706,4279854.0,4950745.0,0.0
1578392112756,4263442.0,4925457.0,0.0
1578392112801,4249849.0,4901190.0,0.0
1578392112852,4229768.0,4878583.0,0.0
1578392112904,4213018.0,4859921.0,0.0
1578392112945,4199474.0,4839940.0,0.0
1578392113002,4197317.0,4827129.0,0.0
1578392113049,4195612.0,4831189.0,0.0
1578392113098,4212045.0,4854056.0,0.0
1578392113149,4193397.0,4822653.0,0.0
1578392113197,4164868.0,4786370.0,0.0
1578392113243,4145757.0,4761081.0,0.0
1578392113287,4132542.0,4748130.0,0.0
1578392113345,4125598.0,4735082.0,0.0
1578392113390,4117642.0,4722116.0,0.0
1578392113442,4096260.0,4691046.0,0.0
1578392113493,4074355.0,4656000.0,0.0
1578392113536,4055641.0,4632599.0,0.0
1578392113588,4050679.0,4630425.0,0.0
1578392113634,4053877.0,4635970.0,0.0
1578392113680,4021583.0,4587127.0,0.0
1578392113727,3976957.0,4522220.0,0.0
1578392113785,3940028.0,4475300.0,0.0
1578392113825,3916015.0,4439315.0,0.0
1578392113882,3895200.0,4420627.0,0.0
1578392113931,3875523.0,4404029.0,0.0
1578392113980,3871073.0,4403210.0,0.0
1578392114021,3866593.0,4393819.0,0.0
1578392114069,3869088.0,4399613.0,0.0
1578392114122,3885974.0,4431978.0,0.0
1578392114170,3912578.0,4463594.0,0.0
1578392114221,3897898.0,4426777.0,0.0
1578392114267,3853379.0,4360612.0,0.0
1578392114313,3821314.0,4324721.0,0.0
1578392114371,3805324.0,4310711.0,0.0
1578392114420,3803639.0,4310877.0,0.0
1578392114467,3804283.0,4320424.0,0.0
1578392114517,3799921.0,4302472.0,0.0
1578392114565,3771824.0,4257346.0,0.0
1578392114606,3759179.0,4233243.0,0.0
1578392114666,3756058.0,4244036.0,0.0
1578392114709,3764158.0,4257226.0,0.0
1578392114763,3741744.0,4227345.0,0.0
1578392114811,3697917.0,4157521.0,0.0
1578392114858,3652224.0,4107598.0,0.0
1578392114910,3636380.0,4094289.0,0.0
1578392114955,3634241.0,4101188.0,0.0
1578392115008,3639241.0,4117179.0,0.0
1578392115049,3638471.0,4112465.0,0.0
1578392115104,3639702.0,4110673.0,0.0
1578392115150,3649777.0,4129634.0,0.0
1578392115202,3673396.0,4168029.0,0.0
1578392115251,3689163.0,4197614.0,0.0
1578392115294,3702706.0,4204501.0,0.0
1578392115348,3670940.0,4167637.0,0.0
1578392115391,3642910.0,4137256.0,0.0
1578392115448,3630226.0,4131805.0,0.0
1578392115488,3634598.0,4147347.0,0.0
1578392115545,3642920.0,4161949.0,0.0
1578392115596,3646234.0,4151479.0,0.0
1578392115644,3632566.0,4130156.0,0.0
1578392115692,3626487.0,4128055.0,0.0
1578392115734,3632788.0,4153045.0,0.0
1578392115783,3645531.0,4178536.0,0.0
1578392115831,3662579.0,4202150.0,0.0
1578392115881,3637881.0,4162948.0,0.0
1578392115931,3593411.0,4108904.0,0.0
1578392115979,3580582.0,4102956.0,0.0
1578392116029,3584416.0,4120337.0,0.0
1578392116080,3591793.0,4130084.0,0.0
1578392116125,3604632.0,4139475.0,0.0
1578392116174,3617280.0,4159148.0,0.0
1578392116224,3633731.0,4182609.0,0.0
1578392116272,3660334.0,4216183.0,0.0
1578392116322,3687960.0,4255255.0,0.0
1578392116372,3710439.0,4280413.0,0.0
1578392116420,3726449.0,4286790.0,0.0
1578392116470,3713483.0,4262105.0,0.0
1578392116518,3707589.0,4254485.0,0.0
1578392116566,3709535.0,4260955.0,0.0
1578392116616,3734530.0,4285828.0,0.0
1578392116664,3759014.0,4310711.0,0.0
1578392116712,3799468.0,4362749.0,0.0
1578392116761,3850124.0,4404872.0,0.0
1578392116812,3893938.0,4444017.0,0.0
1578392116862,3940693.0,4485973.0,0.0
1578392116911,3989595.0,4530530.0,0.0
1578392116959,4043688.0,4600377.0,0.0
1578392117007,4073786.0,4649290.0,0.0
1578392117056,4132339.0,4748546.0,0.0
1578392117105,4219404.0,4902589.0,0.0
1578392117153,4315715.0,5084202.0,0.0
1578392117200,4403047.0,5223562.0,0.0
1578392117249,4484831.0,5318850.0,0.0
1578392117299,4542547.0,5397885.0,0.0
1578392117349,4570760.0,5481277.0,0.0
1578392117397,4594511.0,5567603.0,0.0
1578392117445,4620970.0,5636842.0,0.0
1578392117495,4650975.0,5701322.0,0.0
1578392117554,4663621.0,5759189.0,0.0
1578392117591,4675584.0,5806357.0,0.0
1578392117650,4687479.0,5790579.0,0.0
1578392117694,4706176.0,5803556.0,0.0
1578392117746,4728742.0,5849691.0,0.0
1578392117794,4751368.0,5889179.0,0.0
1578392117841,4774735.0,5925700.0,0.0
1578392117893,4797756.0,5964379.0,0.0
1578392117943,4822144.0,6009661.0,0.0
1578392117991,4852715.0,6054101.0,0.0
1578392118038,4875042.0,6074794.0,0.0
1578392118082,4879646.0,6058291.0,0.0
1578392118130,4879136.0,6036006.0,0.0
1578392118187,4874658.0,6018969.0,0.0
1578392118234,4879483.0,6023861.0,0.0
1578392118278,4896772.0,6031317.0,0.0
1578392118325,4908139.0,6043784.0,0.0
1578392118374,4908590.0,6050764.0,0.0
1578392118425,4889567.0,6053422.0,0.0
1578392118475,4882700.0,6043748.0,0.0
1578392118524,4881371.0,6025868.0,0.0
1578392118575,4880436.0,6021273.0,0.0
1578392118620,4880629.0,6010291.0,0.0
1578392118670,4876092.0,5967953.0,0.0
1578392118718,4859621.0,5932693.0,0.0
1578392118767,4859546.0,5919645.0,0.0
1578392118816,4862242.0,5922922.0,0.0
1578392118871,4877635.0,5938141.0,0.0
1578392118913,4896887.0,5976264.0,0.0
1578392118970,4926864.0,6027078.0,0.0
1578392119013,4968194.0,6062980.0,0.0
1578392119069,5015419.0,6098562.0,0.0
1578392119116,5074338.0,6191430.0,0.0
1578392119159,5143342.0,6232057.0,0.0
1578392119214,5167662.0,6216849.0,0.0
1578392119262,5201336.0,6220362.0,0.0
1578392119305,5193274.0,6222203.0,0.0
1578392119353,5181031.0,6248998.0,0.0
1578392119410,5166275.0,6250103.0,0.0
1578392119453,5160699.0,6243916.0,0.0
1578392119508,5160208.0,6257130.0,0.0
1578392119559,5169243.0,6272115.0,0.0
1578392119603,5178248.0,6293448.0,0.0
1578392119653,5180261.0,6343635.0,0.0
1578392119700,5186521.0,6367118.0,0.0
1578392119755,5189065.0,6357845.0,0.0
1578392119802,5177526.0,6285316.0,0.0
1578392119850,5174444.0,6269444.0,0.0
1578392119892,5183585.0,6287310.0,0.0
1578392119948,5188410.0,6288949.0,0.0
1578392119997,5182370.0,6265241.0,0.0
1578392120047,5168337.0,6232224.0,0.0
1578392120093,5156230.0,6210532.0,0.0
1578392120144,5143592.0,6191963.0,0.0
1578392120193,5132726.0,6183332.0,0.0
1578392120233,5120650.0,6184983.0,0.0
1578392120290,5118616.0,6179319.0,0.0
1578392120334,5112037.0,6148915.0,0.0
1578392120386,5083008.0,6085064.0,0.0
1578392120428,5037023.0,6035733.0,0.0
1578392120484,5020986.0,6014150.0,0.0
1578392120535,5027931.0,6008962.0,0.0
1578392120584,5025822.0,5995462.0,0.0
1578392120635,5032555.0,5990677.0,0.0
1578392120674,5032978.0,5984789.0,0.0
1578392120731,5017665.0,5960593.0,0.0
1578392120778,5003650.0,5942749.0,0.0
1578392120820,4989027.0,5930758.0,0.0
1578392120877,4990618.0,5933416.0,0.0
1578392120925,4966855.0,5900078.0,0.0
1578392120975,4929521.0,5828096.0,0.0
1578392121023,4887409.0,5787492.0,0.0
1578392121073,4858370.0,5754060.0,0.0
1578392121116,4832700.0,5728593.0,0.0
1578392121166,4807763.0,5711353.0,0.0
1578392121216,4788798.0,5688605.0,0.0
1578392121269,4760490.0,5656657.0,0.0
1578392121316,4729965.0,5631618.0,0.0
1578392121366,4704991.0,5610368.0,0.0
1578392121415,4684984.0,5587180.0,0.0
1578392121466,4653844.0,5558449.0,0.0
1578392121512,4581451.0,5455052.0,0.0
1578392121569,4522725.0,5394918.0,0.0
1578392121611,4518891.0,5406363.0,0.0
1578392121656,4551013.0,5458400.0,0.0
1578392121709,4580786.0,5500974.0,0.0
1578392121760,4610789.0,5549794.0,0.0
1578392121801,4616126.0,5572908.0,0.0
1578392121855,4621588.0,5585649.0,0.0
1578392121902,4621557.0,5588723.0,0.0
1578392121954,4614757.0,5590741.0,0.0
1578392121995,4595976.0,5564219.0,0.0
1578392122054,4549193.0,5498018.0,0.0
1578392122103,4474150.0,5414163.0,0.0
1578392122150,4404752.0,5328480.0,0.0
1578392122198,4363672.0,5278378.0,0.0
1578392122245,4340786.0,5255511.0,0.0
1578392122296,4321550.0,5244825.0,0.0
1578392122336,4305966.0,5227396.0,0.0
1578392122394,4289217.0,5197358.0,0.0
1578392122440,4272562.0,5178553.0,0.0
1578392122491,4270665.0,5172546.0,0.0
1578392122539,4268816.0,5167048.0,0.0
1578392122588,4266359.0,5162929.0,0.0
1578392122641,4262670.0,5142498.0,0.0
1578392122685,4217285.0,5091291.0,0.0
1578392122735,4202181.0,5064151.0,0.0
1578392122778,4195516.0,5051756.0,0.0
1578392122833,4200285.0,5051720.0,0.0
1578392122876,4211746.0,5056812.0,0.0
1578392122932,4226657.0,5063795.0,0.0
1578392122980,4228746.0,5055317.0,0.0
1578392123030,4229603.0,5057917.0,0.0
1578392123077,4243021.0,5058534.0,0.0
1578392123126,4248137.0,5050995.0,0.0
1578392123177,4249291.0,5038043.0,0.0
1578392123218,4214993.0,4992571.0,0.0
1578392123274,4189198.0,4957832.0,0.0
1578392123325,4174364.0,4942150.0,0.0
1578392123373,4170713.0,4939287.0,0.0
1578392123414,4181300.0,4950638.0,0.0
1578392123468,4183245.0,4951741.0,0.0
1578392123513,4177436.0,4940652.0,0.0
1578392123561,4168027.0,4931665.0,0.0
1578392123616,4155428.0,4914734.0,0.0
1578392123661,4147616.0,4902579.0,0.0
1578392123707,4140460.0,4906935.0,0.0
1578392123758,4126484.0,4879795.0,0.0
1578392123814,4089488.0,4836590.0,0.0
1578392123856,4072862.0,4822630.0,0.0
1578392123903,4072275.0,4834312.0,0.0
1578392123954,4076320.0,4843976.0,0.0
1578392124004,4080125.0,4855575.0,0.0
1578392124057,4080260.0,4857772.0,0.0
1578392124103,4081666.0,4857333.0,0.0
1578392124148,4086887.0,4863744.0,0.0
1578392124201,4090278.0,4869834.0,0.0
1578392124246,4087119.0,4866997.0,0.0
1578392124297,4075560.0,4849009.0,0.0
1578392124344,4043889.0,4807016.0,0.0
1578392124395,4012373.0,4771483.0,0.0
1578392124448,4004918.0,4766412.0,0.0
1578392124489,4013058.0,4776053.0,0.0
1578392124547,4015640.0,4782310.0,0.0
1578392124595,4022747.0,4781028.0,0.0
1578392124641,4008935.0,4769143.0,0.0
1578392124685,3997281.0,4756844.0,0.0
1578392124741,4001123.0,4756938.0,0.0
1578392124787,4035145.0,4797828.0,0.0
1578392124842,4105805.0,4877467.0,0.0
1578392124887,4161487.0,4922190.0,0.0
1578392124938,4182349.0,4929207.0,0.0
1578392124979,4190065.0,4929779.0,0.0
1578392125033,4226474.0,4955814.0,0.0
1578392125085,4272619.0,5002472.0,0.0
1578392125139,4312082.0,5036689.0,0.0
1578392125182,4340969.0,5056992.0,0.0
1578392125229,4362341.0,5068947.0,0.0
1578392125280,4383427.0,5092740.0,0.0
1578392125327,4408017.0,5110869.0,0.0
1578392125378,4435833.0,5133760.0,0.0
1578392125419,4458258.0,5165719.0,0.0
1578392125476,4469652.0,5166574.0,0.0
1578392125520,4471454.0,5157883.0,0.0
1578392125569,4481895.0,5174314.0,0.0
1578392125623,4502564.0,5195816.0,0.0
1578392125670,4518410.0,5215797.0,0.0
1578392125720,4539570.0,5257969.0,0.0
1578392125762,4564807.0,5306515.0,0.0
1578392125819,4576306.0,5395737.0,0.0
1578392125860,4633213.0,5565691.0,0.0
1578392125916,4687941.0,5625992.0,0.0
1578392125962,4707090.0,5618867.0,0.0
1578392126013,4710085.0,5615270.0,0.0
1578392126064,4717068.0,5589245.0,0.0
1578392126108,4709526.0,5565525.0,0.0
1578392126156,4704152.0,5540296.0,0.0
1578392126202,4718947.0,5535001.0,0.0
1578392126259,4726595.0,5543074.0,0.0
1578392126300,4756445.0,5595526.0,0.0
1578392126357,4759710.0,5582918.0,0.0
1578392126402,4752052.0,5568066.0,0.0
1578392126451,4764795.0,5574370.0,0.0
1578392126503,4768686.0,5589102.0,0.0
1578392126546,4770064.0,5586075.0,0.0
1578392126602,4776797.0,5594030.0,0.0
1578392126642,4790859.0,5661655.0,0.0
1578392126698,4847158.0,5776962.0,0.0
1578392126741,4902532.0,5838259.0,0.0
1578392126796,4916634.0,5823882.0,0.0
1578392126843,4938806.0,5828608.0,0.0
1578392126892,4942949.0,5823833.0,0.0
1578392126944,4936533.0,5817992.0,0.0
1578392126985,4948563.0,5825934.0,0.0
1578392127032,4969079.0,5825115.0,0.0
1578392127085,4978318.0,5818421.0,0.0
1578392127137,4980504.0,5824985.0,0.0
1578392127186,4964573.0,5802630.0,0.0
1578392127235,4976824.0,5817659.0,0.0
1578392127287,4987477.0,5838449.0,0.0
1578392127334,4988036.0,5845085.0,0.0
1578392127384,4989740.0,5849787.0,0.0
1578392127425,5004064.0,5905896.0,0.0
1578392127480,5023270.0,6016441.0,0.0
1578392127524,5078383.0,6084398.0,0.0
1578392127576,5095094.0,6091189.0,0.0
1578392127632,5108656.0,6093813.0,0.0
1578392127674,5112385.0,6079556.0,0.0
1578392127726,5100180.0,6062613.0,0.0
1578392127768,5097705.0,6042762.0,0.0
1578392127814,5111296.0,6043059.0,0.0
1578392127864,5115871.0,6040957.0,0.0
1578392127914,5138708.0,6076279.0,0.0
1578392127964,5144295.0,6078024.0,0.0
1578392128018,5139701.0,6085644.0,0.0
1578392128067,5143852.0,6094455.0,0.0
1578392128110,5153204.0,6104202.0,0.0
1578392128162,5149419.0,6093173.0,0.0
1578392128205,5128104.0,6073286.0,0.0
1578392128256,5137765.0,6125678.0,0.0
1578392128308,5170696.0,6185636.0,0.0
1578392128356,5198831.0,6213702.0,0.0
1578392128405,5217690.0,6234372.0,0.0
1578392128450,5226581.0,6237851.0,0.0
1578392128504,5228353.0,6231298.0,0.0
1578392128569,5227217.0,6224612.0,0.0
1578392128608,5232861.0,6221988.0,0.0
1578392128655,5236599.0,6198244.0,0.0
1578392128703,5231869.0,6182536.0,0.0
1578392128745,5245181.0,6207814.0,0.0
1578392128804,5243264.0,6197401.0,0.0
1578392128844,5237042.0,6193589.0,0.0
1578392128901,5237928.0,6199965.0,0.0
1578392128941,5242908.0,6215187.0,0.0
1578392128993,5249842.0,6237329.0,0.0
1578392129043,5246106.0,6265145.0,0.0
1578392129088,5243446.0,6422811.0,0.0
1578392129138,5310756.0,6626935.0,0.0
1578392129186,5355003.0,6664000.0,0.0
1578392129244,5352047.0,6637798.0,0.0
1578392129285,5337406.0,6605280.0,0.0
1578392129341,5326100.0,6555345.0,0.0
1578392129381,5326677.0,6531362.0,0.0
1578392129439,5325830.0,6516153.0,0.0
1578392129488,5326831.0,6500659.0,0.0
1578392129527,5319001.0,6532061.0,0.0
1578392129586,5326589.0,6510382.0,0.0
1578392129626,5319511.0,6499662.0,0.0
1578392129683,5314848.0,6498427.0,0.0
1578392129724,5317979.0,6488704.0,0.0
1578392129783,5309196.0,6473792.0,0.0
1578392129821,5304445.0,6473661.0,0.0
1578392129878,5312499.0,6496529.0,0.0
1578392129928,5346470.0,6519133.0,0.0
1578392129977,5364087.0,6511534.0,0.0
1578392130021,5352972.0,6487682.0,0.0
1578392130065,5347328.0,6493299.0,0.0
1578392130122,5349658.0,6493132.0,0.0
1578392130169,5336704.0,6463878.0,0.0
1578392130221,5339343.0,6428249.0,0.0
1578392130262,5340027.0,6473672.0,0.0
1578392130312,5366909.0,6487219.0,0.0
1578392130366,5353811.0,6461849.0,0.0
1578392130417,5326628.0,6403436.0,0.0
1578392130461,5304947.0,6363379.0,0.0
1578392130512,5296481.0,6345107.0,0.0
1578392130564,5302885.0,6340998.0,0.0
1578392130604,5312865.0,6384985.0,0.0
1578392130659,5310321.0,6431016.0,0.0
1578392130703,5366186.0,6498843.0,0.0
1578392130760,5395169.0,6551842.0,0.0
1578392130811,5395833.0,6550833.0,0.0
1578392130857,5405013.0,6551332.0,0.0
1578392130903,5404869.0,6525841.0,0.0
1578392130953,5400198.0,6496836.0,0.0
1578392131001,5394236.0,6447257.0,0.0
1578392131046,5403068.0,6456601.0,0.0
1578392131101,5412248.0,6534425.0,0.0
1578392131143,5404974.0,6484917.0,0.0
1578392131199,5414164.0,6491624.0,0.0
1578392131249,5402808.0,6491328.0,0.0
1578392131296,5410966.0,6490734.0,0.0
1578392131339,5406921.0,6496955.0,0.0
1578392131393,5400478.0,6487564.0,0.0
1578392131437,5386116.0,6459746.0,0.0
1578392131484,5449002.0,6545158.0,0.0
1578392131533,5469403.0,6552588.0,0.0
1578392131583,5468296.0,6531622.0,0.0
1578392131640,5462391.0,6537546.0,0.0
1578392131691,5461081.0,6532418.0,0.0
1578392131738,5462893.0,6542451.0,0.0
1578392131784,5480210.0,6590961.0,0.0
1578392131826,5487203.0,6682321.0,0.0
1578392131882,5511379.0,6743701.0,0.0
1578392131926,5487993.0,6665830.0,0.0
1578392131983,5473883.0,6635767.0,0.0
1578392132026,5481242.0,6671575.0,0.0
1578392132078,5471581.0,6700104.0,0.0
1578392132129,5474836.0,6777928.0,0.0
1578392132175,5465242.0,6748616.0,0.0
1578392132226,5496846.0,6860157.0,0.0
1578392132269,5544108.0,6940403.0,0.0
1578392132319,5546912.0,6914391.0,0.0
1578392132370,5541384.0,6873930.0,0.0
1578392132424,5531800.0,6821832.0,0.0
1578392132469,5525067.0,6768217.0,0.0
1578392132521,5520174.0,6754304.0,0.0
1578392132569,5516243.0,6778747.0,0.0
1578392132615,5500168.0,6765546.0,0.0
1578392132664,5500188.0,6772836.0,0.0
1578392132714,5474864.0,6711170.0,0.0
1578392132762,5463970.0,6671812.0,0.0
1578392132806,5456245.0,6651202.0,0.0
1578392132864,5457229.0,6670056.0,0.0
1578392132911,5462824.0,6686037.0,0.0
1578392132960,5473410.0,6678664.0,0.0
1578392133009,5498558.0,6753305.0,0.0
1578392133069,5514867.0,6746835.0,0.0
1578392133105,5510127.0,6741053.0,0.0
1578392133149,5517756.0,6756142.0,0.0
1578392133202,5516533.0,6787319.0,0.0
1578392133247,5522688.0,6792307.0,0.0
1578392133304,5529805.0,6798314.0,0.0
1578392133347,5506226.0,6818201.0,0.0
1578392133401,5510629.0,6814353.0,0.0
1578392133447,5481847.0,6705981.0,0.0
1578392133498,5431310.0,6590048.0,0.0
1578392133546,5404379.0,6535232.0,0.0
1578392133597,5397000.0,6533606.0,0.0
1578392133642,5404830.0,6540170.0,0.0
1578392133687,5402172.0,6545762.0,0.0
1578392133742,5399224.0,6522564.0,0.0
1578392133793,5395565.0,6497228.0,0.0
1578392133856,5440873.0,6543720.0,0.0
1578392133899,5424548.0,6522634.0,0.0
1578392133933,5419645.0,6494485.0,0.0
1578392133987,5408983.0,6501004.0,0.0
1578392134032,5387030.0,6477721.0,0.0
1578392134081,5390084.0,6472593.0,0.0
1578392134128,5396740.0,6497145.0,0.0
1578392134176,5401392.0,6501538.0,0.0
1578392134226,5377745.0,6467831.0,0.0
1578392134275,5370347.0,6459712.0,0.0
1578392134323,5368884.0,6453418.0,0.0
1578392134373,5378419.0,6466798.0,0.0
1578392134422,5382243.0,6472819.0,0.0
1578392134469,5383168.0,6459426.0,0.0
1578392134522,5353116.0,6406144.0,0.0
1578392134566,5381753.0,6439872.0,0.0
1578392134623,5383564.0,6439812.0,0.0
1578392134669,5386530.0,6462749.0,0.0
1578392134718,5398339.0,6510988.0,0.0
1578392134773,5407904.0,6555012.0,0.0
1578392134816,5408010.0,6543304.0,0.0
1578392134869,5414192.0,6544339.0,0.0
1578392134909,5417390.0,6523916.0,0.0
1578392134967,5436761.0,6594997.0,0.0
1578392135008,5446324.0,6579921.0,0.0
1578392135064,5435440.0,6562419.0,0.0
1578392135111,5421628.0,6569282.0,0.0
1578392135155,5426734.0,6579029.0,0.0
1578392135211,5427620.0,6594333.0,0.0
1578392135252,5429191.0,6603925.0,0.0
1578392135309,5431868.0,6616985.0,0.0
1578392135349,5448531.0,6621568.0,0.0
1578392135400,5481404.0,6639863.0,0.0
1578392135449,5482205.0,6624038.0,0.0
1578392135496,5471648.0,6605909.0,0.0
1578392135547,5463576.0,6600008.0,0.0
1578392135602,5460957.0,6591686.0,0.0
1578392135651,5464462.0,6606882.0,0.0
1578392135696,5471841.0,6629060.0,0.0
1578392135748,5476368.0,6659857.0,0.0
1578392135789,5494621.0,6724989.0,0.0
1578392135841,5497250.0,6706101.0,0.0
1578392135890,5498713.0,6734833.0,0.0
1578392135939,5503530.0,6763076.0,0.0
1578392135990,5508327.0,6757661.0,0.0
1578392136036,5505850.0,6771054.0,0.0
1578392136086,5524933.0,6803739.0,0.0
1578392136135,5538474.0,6836994.0,0.0
1578392136184,5555561.0,6908893.0,0.0
1578392136232,5563749.0,6888117.0,0.0
1578392136282,5564539.0,6859611.0,0.0
1578392136331,5552711.0,6818984.0,0.0
1578392136381,5549011.0,6799453.0,0.0
1578392136430,5570019.0,6826773.0,0.0
1578392136484,5579845.0,6792044.0,0.0
1578392136526,5600678.0,6840817.0,0.0
1578392136575,5581230.0,6778011.0,0.0
1578392136624,5576868.0,6753638.0,0.0
1578392136672,5562534.0,6739485.0,0.0
1578392136723,5559434.0,6743082.0,0.0
1578392136772,5565732.0,6753269.0,0.0
1578392136820,5567678.0,6748949.0,0.0
1578392136871,5554917.0,6748806.0,0.0
1578392136919,5563054.0,6790122.0,0.0
1578392136966,5597913.0,6786845.0,0.0
1578392137016,5592114.0,6764454.0,0.0
1578392137064,5581472.0,6755123.0,0.0
1578392137113,5580113.0,6746193.0,0.0
1578392137160,5563883.0,6734534.0,0.0
1578392137212,5561051.0,6712821.0,0.0
1578392137261,5555821.0,6676288.0,0.0
1578392137311,5517842.0,6653766.0,0.0
1578392137363,5567920.0,6742679.0,0.0
1578392137413,5558538.0,6697636.0,0.0
1578392137463,5546103.0,6696057.0,0.0
1578392137511,5542895.0,6669806.0,0.0
1578392137554,5537944.0,6652341.0,0.0
1578392137609,5538464.0,6657685.0,0.0
1578392137650,5514309.0,6639507.0,0.0
1578392137708,5525182.0,6712452.0,0.0
1578392137752,5592866.0,6810126.0,0.0
1578392137799,5595389.0,6751500.0,0.0
1578392137846,5618901.0,6796569.0,0.0
1578392137900,5622166.0,6800915.0,0.0
1578392137951,5620935.0,6802504.0,0.0
1578392137992,5611196.0,6766875.0,0.0
1578392138050,5599618.0,6733550.0,0.0
1578392138096,5591066.0,6718222.0,0.0
1578392138147,5600802.0,6759159.0,0.0
1578392138193,5600081.0,6727114.0,0.0
1578392138243,5583022.0,6715978.0,0.0
1578392138293,5588069.0,6714163.0,0.0
1578392138344,5585334.0,6714353.0,0.0
1578392138392,5582396.0,6716371.0,0.0
1578392138434,5572341.0,6707240.0,0.0
1578392138486,5574903.0,6707620.0,0.0
1578392138531,5574595.0,6688352.0,0.0
1578392138587,5602401.0,6726771.0,0.0
1578392138634,5613112.0,6733764.0,0.0
1578392138684,5606091.0,6737514.0,0.0
1578392138734,5601621.0,6744437.0,0.0
1578392138782,5601670.0,6753591.0,0.0
1578392138832,5595755.0,6747417.0,0.0
1578392138872,5599831.0,6740947.0,0.0
1578392138929,5596651.0,6745149.0,0.0
1578392138971,5593896.0,6717510.0,0.0
1578392139029,5565299.0,6652104.0,0.0
1578392139075,5552721.0,6626389.0,0.0
1578392139125,5546286.0,6620797.0,0.0
1578392139171,5545323.0,6612509.0,0.0
1578392139216,5548231.0,6631232.0,0.0
1578392139264,5529449.0,6615609.0,0.0
1578392139313,5523939.0,6594333.0,0.0
1578392139365,5566283.0,6620987.0,0.0
1578392139411,5563314.0,6626436.0,0.0
1578392139462,5554657.0,6623076.0,0.0
1578392139515,5555687.0,6613638.0,0.0
1578392139565,5538157.0,6598001.0,0.0
1578392139613,5526666.0,6592315.0,0.0
1578392139662,5523815.0,6594630.0,0.0
1578392139712,5527994.0,6616428.0,0.0
1578392139753,5519654.0,6579325.0,0.0
1578392139812,5496990.0,6535374.0,0.0
1578392139852,5491269.0,6532358.0,0.0
1578392139909,5500332.0,6537250.0,0.0
1578392139954,5486770.0,6509789.0,0.0
1578392140005,5457113.0,6443114.0,0.0
1578392140055,5437984.0,6391289.0,0.0
1578392140102,5423227.0,6363769.0,0.0
1578392140152,5441038.0,6383240.0,0.0
1578392140194,5424731.0,6374658.0,0.0
1578392140248,5414617.0,6367189.0,0.0
1578392140293,5408115.0,6389094.0,0.0
1578392140349,5419615.0,6417326.0,0.0
1578392140396,5418672.0,6427204.0,0.0
1578392140438,5410551.0,6385580.0,0.0
1578392140495,5413471.0,6383929.0,0.0
1578392140534,5373267.0,6314950.0,0.0
1578392140583,5335163.0,6268386.0,0.0
1578392140633,5325173.0,6247076.0,0.0
1578392140690,5320435.0,6257322.0,0.0
1578392140736,5330732.0,6265216.0,0.0
1578392140787,5326571.0,6282705.0,0.0
1578392140837,5327524.0,6287857.0,0.0
1578392140884,5351547.0,6315223.0,0.0
1578392140935,5391567.0,6345107.0,0.0
1578392140983,5360889.0,6303244.0,0.0
1578392141031,5341462.0,6275129.0,0.0
1578392141074,5331484.0,6294779.0,0.0
1578392141130,5330588.0,6300740.0,0.0
1578392141179,5326100.0,6302948.0,0.0
1578392141220,5320137.0,6295253.0,0.0
1578392141278,5343880.0,6344394.0,0.0
1578392141320,5322611.0,6292202.0,0.0
1578392141375,5290577.0,6263281.0,0.0
1578392141423,5267035.0,6216076.0,0.0
1578392141473,5249948.0,6190598.0,0.0
1578392141514,5230106.0,6170094.0,0.0
1578392141571,5230472.0,6177395.0,0.0
1578392141617,5228296.0,6175377.0,0.0
1578392141668,5239980.0,6178476.0,0.0
1578392141713,5253465.0,6189696.0,0.0
1578392141764,5244978.0,6206389.0,0.0
1578392141815,5261352.0,6342899.0,0.0
1578392141857,5275560.0,6447114.0,0.0
1578392141911,5291944.0,6471500.0,0.0
1578392141954,5310813.0,6476462.0,0.0
1578392142010,5311979.0,6481544.0,0.0
1578392142057,5324355.0,6519310.0,0.0
1578392142107,5321465.0,6518634.0,0.0
1578392142158,5308598.0,6505267.0,0.0
1578392142204,5299764.0,6482766.0,0.0
1578392142245,5298533.0,6474385.0,0.0
1578392142296,5296077.0,6460078.0,0.0
1578392142353,5280550.0,6427537.0,0.0
1578392142397,5276340.0,6398675.0,0.0
1578392142450,5278652.0,6371927.0,0.0
1578392142498,5277785.0,6362867.0,0.0
1578392142549,5262585.0,6356635.0,0.0
1578392142597,5256970.0,6360529.0,0.0
1578392142642,5253339.0,6367319.0,0.0
1578392142694,5259869.0,6377529.0,0.0
1578392142736,5256846.0,6379084.0,0.0
1578392142783,5244170.0,6340558.0,0.0
1578392142836,5268577.0,6387502.0,0.0
1578392142888,5251653.0,6341248.0,0.0
1578392142938,5235433.0,6313109.0,0.0
1578392142987,5221833.0,6303232.0,0.0
1578392143038,5210158.0,6281043.0,0.0
1578392143085,5203917.0,6267590.0,0.0
1578392143135,5202232.0,6272945.0,0.0
1578392143177,5211430.0,6290254.0,0.0
1578392143226,5229431.0,6298636.0,0.0
1578392143278,5242656.0,6315176.0,0.0
1578392143324,5239950.0,6309964.0,0.0
1578392143380,5233391.0,6314144.0,0.0
1578392143427,5238979.0,6311613.0,0.0
1578392143478,5229259.0,6308349.0,0.0
1578392143525,5221611.0,6291786.0,0.0
1578392143575,5219232.0,6305952.0,0.0
1578392143617,5226370.0,6320838.0,0.0
1578392143673,5219126.0,6297580.0,0.0
1578392143718,5219549.0,6292049.0,0.0
1578392143772,5216621.0,6294007.0,0.0
1578392143820,5211824.0,6286444.0,0.0
1578392143868,5196143.0,6240499.0,0.0
1578392143919,5173028.0,6195121.0,0.0
1578392143965,5155285.0,6152868.0,0.0
1578392144015,5151741.0,6146894.0,0.0
1578392144056,5161632.0,6166282.0,0.0
1578392144114,5148216.0,6161902.0,0.0
1578392144157,5152241.0,6182976.0,0.0
1578392144211,5160303.0,6204797.0,0.0
1578392144257,5162682.0,6213393.0,0.0
1578392144308,5164647.0,6210758.0,0.0
1578392144349,5163993.0,6195121.0,0.0
1578392144399,5177169.0,6196262.0,0.0
1578392144447,5135435.0,6108535.0,0.0
1578392144498,5098274.0,6045137.0,0.0
1578392144553,5079318.0,6021226.0,0.0
1578392144599,5079153.0,6014257.0,0.0
1578392144651,5077315.0,6005696.0,0.0
1578392144701,5078066.0,6011323.0,0.0
1578392144749,5066863.0,5992209.0,0.0
1578392144800,5082294.0,6005090.0,0.0
1578392144845,5091705.0,5966257.0,0.0
1578392144897,5068405.0,5930069.0,0.0
1578392144939,5060583.0,5935673.0,0.0
1578392144995,5068838.0,5977083.0,0.0
1578392145040,5068925.0,6011097.0,0.0
1578392145091,5075909.0,6026485.0,0.0
1578392145142,5084432.0,6003144.0,0.0
1578392145189,5104341.0,6038726.0,0.0
1578392145235,5121217.0,6064584.0,0.0
1578392145286,5096376.0,6007133.0,0.0
1578392145331,5072170.0,5956283.0,0.0
1578392145379,5051838.0,5905600.0,0.0
1578392145436,5052214.0,5933239.0,0.0
1578392145479,5053350.0,5936160.0,0.0
1578392145525,5058984.0,5957245.0,0.0
1578392145574,5071727.0,5982414.0,0.0
1578392145623,5118222.0,6064288.0,0.0
1578392145671,5157241.0,6112405.0,0.0
1578392145720,5159783.0,6119827.0,0.0
1578392145770,5162682.0,6123054.0,0.0
1578392145823,5162221.0,6106090.0,0.0
1578392145870,5151847.0,6066946.0,0.0
1578392145919,5137505.0,6008533.0,0.0
1578392145965,5140414.0,6035852.0,0.0
1578392146024,5151597.0,6037134.0,0.0
1578392146069,5121698.0,5991436.0,0.0
1578392146120,5121621.0,6000200.0,0.0
1578392146160,5122190.0,6003404.0,0.0
1578392146217,5131253.0,6017593.0,0.0
1578392146259,5132092.0,6023445.0,0.0
1578392146306,5118760.0,5999511.0,0.0
1578392146359,5114851.0,5973141.0,0.0
1578392146404,5153668.0,6004010.0,0.0
1578392146454,5138295.0,5999225.0,0.0
1578392146502,5125061.0,5995641.0,0.0
1578392146551,5121978.0,6008142.0,0.0
1578392146601,5125455.0,6019991.0,0.0
1578392146655,5122854.0,6025713.0,0.0
1578392146700,5120032.0,6005625.0,0.0
1578392146755,5124260.0,6020051.0,0.0
1578392146803,5106596.0,5943140.0,0.0
1578392146852,5068617.0,5878163.0,0.0
1578392146903,5054555.0,5893371.0,0.0
1578392146944,5078018.0,5996994.0,0.0
1578392147000,5097406.0,6034950.0,0.0
1578392147043,5107925.0,6097305.0,0.0
1578392147098,5124327.0,6164040.0,0.0
1578392147147,5121796.0,6128172.0,0.0
1578392147194,5162229.0,6186609.0,0.0
1578392147246,5160391.0,6190894.0,0.0
1578392147287,5165370.0,6168302.0,0.0
1578392147342,5166228.0,6135652.0,0.0
1578392147383,5161969.0,6138312.0,0.0
1578392147439,5158916.0,6155432.0,0.0
1578392147484,5157327.0,6132115.0,0.0
1578392147538,5152898.0,6167590.0,0.0
1578392147586,5155748.0,6172266.0,0.0
1578392147633,5128951.0,6127389.0,0.0
1578392147685,5109851.0,6106909.0,0.0
1578392147729,5098071.0,6099097.0,0.0
1578392147786,5081081.0,6056629.0,0.0
1578392147824,5047273.0,5984230.0,0.0
1578392147881,5024493.0,5939174.0,0.0
1578392147923,5028037.0,5939080.0,0.0
1578392147977,5049941.0,5989444.0,0.0
1578392148024,5069830.0,6007904.0,0.0
1578392148074,5075561.0,6025322.0,0.0
1578392148121,5081476.0,6067421.0,0.0
1578392148170,5092195.0,6101235.0,0.0
1578392148223,5103437.0,6126154.0,0.0
1578392148262,5103687.0,6099394.0,0.0
1578392148320,5090856.0,6054218.0,0.0
1578392148363,5094160.0,6109344.0,0.0
1578392148418,5065534.0,6059953.0,0.0
1578392148464,5057078.0,6060179.0,0.0
1578392148513,5068444.0,6072883.0,0.0
1578392148562,5060853.0,6066816.0,0.0
1578392148610,5050538.0,6052782.0,0.0
1578392148664,5021633.0,6017307.0,0.0
1578392148712,5045327.0,6040755.0,0.0
1578392148760,5072865.0,6061757.0,0.0
1578392148805,5097146.0,6099097.0,0.0
1578392148849,5098611.0,6096699.0,0.0
1578392148903,5097512.0,6106291.0,0.0
1578392148949,5093217.0,6128089.0,0.0
1578392149003,5105007.0,6156192.0,0.0
1578392149051,5106807.0,6130404.0,0.0
1578392149101,5117161.0,6165512.0,0.0
1578392149146,5123086.0,6185373.0,0.0
1578392149202,5114880.0,6150647.0,0.0
1578392149243,5108311.0,6129657.0,0.0
1578392149299,5107155.0,6127912.0,0.0
1578392149346,5100797.0,6112275.0,0.0
1578392149396,5093660.0,6098598.0,0.0
1578392149443,5081986.0,6091106.0,0.0
1578392149487,5084231.0,6074188.0,0.0
1578392149543,5096791.0,6092021.0,0.0
1578392149587,5117730.0,6122082.0,0.0
1578392149642,5113309.0,6127616.0,0.0
1578392149682,5118029.0,6136970.0,0.0
1578392149732,5119329.0,6136081.0,0.0
1578392149787,5106509.0,6118675.0,0.0
1578392149835,5101771.0,6088934.0,0.0
1578392149887,5097975.0,6094848.0,0.0
1578392149932,5077806.0,6042692.0,0.0
1578392149981,5068848.0,6038323.0,0.0
1578392150032,5079328.0,6063313.0,0.0
1578392150081,5080773.0,6083010.0,0.0
1578392150124,5088709.0,6094502.0,0.0
1578392150179,5096549.0,6120004.0,0.0
1578392150229,5082150.0,6054897.0,0.0
1578392150268,5074887.0,6042476.0,0.0
1578392150322,5121804.0,6134227.0,0.0
1578392150372,5112915.0,6115232.0,0.0
1578392150422,5112529.0,6117239.0,0.0
1578392150464,5119849.0,6125595.0,0.0
1578392150523,5121834.0,6159788.0,0.0
1578392150563,5134142.0,6162222.0,0.0
1578392150610,5123096.0,6139688.0,0.0
1578392150662,5136176.0,6142099.0,0.0
1578392150712,5107279.0,6066412.0,0.0
1578392150761,5098977.0,6039069.0,0.0
1578392150809,5095432.0,6029512.0,0.0
1578392150860,5095720.0,6040471.0,0.0
1578392150904,5099806.0,6043462.0,0.0
1578392150962,5085588.0,6017877.0,0.0
1578392151003,5080407.0,6002252.0,0.0
1578392151059,5120572.0,6045706.0,0.0
1578392151109,5124309.0,6059669.0,0.0
1578392151150,5120542.0,6064358.0,0.0
1578392151205,5126899.0,6070199.0,0.0
1578392151248,5123770.0,6043605.0,0.0
1578392151302,5120457.0,6034854.0,0.0
1578392151353,5117990.0,6029536.0,0.0
1578392151402,5122007.0,6045339.0,0.0
1578392151443,5107299.0,5994869.0,0.0
1578392151494,5103715.0,5984396.0,0.0
1578392151543,5108291.0,5999298.0,0.0
1578392151591,5122035.0,6030734.0,0.0
1578392151640,5123027.0,6043948.0,0.0
1578392151690,5102878.0,5996377.0,0.0
1578392151740,5112307.0,5972085.0,0.0
1578392151788,5150459.0,6034380.0,0.0
1578392151835,5157048.0,6037634.0,0.0
1578392151886,5154360.0,6029632.0,0.0
1578392151940,5164706.0,6060488.0,0.0
1578392151991,5170734.0,6070888.0,0.0
1578392152037,5174838.0,6090941.0,0.0
1578392152085,5184412.0,6070805.0,0.0
1578392152127,5179133.0,6074865.0,0.0
1578392152182,5195981.0,6062220.0,0.0
1578392152229,5164253.0,5956224.0,0.0
1578392152274,5139653.0,5907558.0,0.0
1578392152323,5123510.0,5881297.0,0.0
1578392152380,5121603.0,5885024.0,0.0
1578392152432,5130522.0,5910312.0,0.0
1578392152478,5147493.0,5952603.0,0.0
1578392152526,5165754.0,5977143.0,0.0
1578392152574,5185442.0,5988409.0,0.0
1578392152621,5177197.0,5964166.0,0.0
1578392152666,5170688.0,5958395.0,0.0
1578392152723,5166256.0,5954538.0,0.0
1578392152768,5164657.0,5944695.0,0.0
1578392152821,5158897.0,5939746.0,0.0
1578392152867,5156325.0,5918446.0,0.0
1578392152918,5166833.0,5951178.0,0.0
1578392152965,5174298.0,5934971.0,0.0
1578392153016,5149429.0,5879206.0,0.0
1578392153063,5148716.0,5880904.0,0.0
1578392153110,5145606.0,5881427.0,0.0
1578392153157,5147771.0,5878649.0,0.0
1578392153206,5144941.0,5849881.0,0.0
1578392153261,5140345.0,5836870.0,0.0
1578392153310,5139449.0,5841998.0,0.0
1578392153359,5163627.0,5861789.0,0.0
1578392153406,5170167.0,5860590.0,0.0
1578392153457,5158936.0,5833913.0,0.0
1578392153501,5158473.0,5852981.0,0.0
1578392153550,5165746.0,5891197.0,0.0
1578392153605,5172835.0,5912770.0,0.0
1578392153649,5178951.0,5918720.0,0.0
1578392153699,5164745.0,5868712.0,0.0
1578392153748,5161122.0,5843780.0,0.0
1578392153801,5115871.0,5744170.0,0.0
1578392153850,5097396.0,5710167.0,0.0
1578392153897,5097195.0,5711556.0,0.0
1578392153945,5102762.0,5729922.0,0.0
1578392153991,5104997.0,5733235.0,0.0
1578392154044,5105844.0,5734743.0,0.0
1578392154086,5105468.0,5734363.0,0.0
1578392154143,5107492.0,5725685.0,0.0
1578392154191,5120686.0,5717920.0,0.0
1578392154240,5100123.0,5674882.0,0.0
1578392154285,5084210.0,5665693.0,0.0
1578392154331,5082825.0,5692987.0,0.0
1578392154385,5074560.0,5703590.0,0.0
1578392154428,5085541.0,5729578.0,0.0
1578392154484,5087071.0,5761017.0,0.0
1578392154529,5105152.0,5775417.0,0.0
1578392154583,5085387.0,5706297.0,0.0
1578392154631,5055410.0,5635121.0,0.0
1578392154681,5028567.0,5571330.0,0.0
1578392154730,4999344.0,5525930.0,0.0
1578392154776,4984057.0,5503716.0,0.0
1578392154828,4976631.0,5501614.0,0.0
1578392154867,4975861.0,5492307.0,0.0
1578392154921,4966296.0,5469060.0,0.0
1578392154973,4973819.0,5502293.0,0.0
1578392155024,4967230.0,5532258.0,0.0
1578392155067,4970439.0,5548512.0,0.0
1578392155118,4964918.0,5549235.0,0.0
1578392155163,4947466.0,5500345.0,0.0
1578392155216,4928365.0,5467328.0,0.0
1578392155265,4930098.0,5482952.0,0.0
1578392155309,4927490.0,5472469.0,0.0
1578392155363,4900028.0,5428945.0,0.0
1578392155408,4872192.0,5391865.0,0.0
1578392155465,4867433.0,5388518.0,0.0
1578392155510,4869390.0,5392674.0,0.0
1578392155560,4876025.0,5412595.0,0.0
1578392155610,4877490.0,5413154.0,0.0
1578392155655,4851840.0,5334617.0,0.0
1578392155708,4786131.0,5235054.0,0.0
1578392155750,4779743.0,5236669.0,0.0
1578392155798,4767425.0,5271219.0,0.0
1578392155848,4772654.0,5298336.0,0.0
1578392155899,4773089.0,5321414.0,0.0
1578392155949,4776238.0,5334487.0,0.0
1578392155996,4791255.0,5378617.0,0.0
1578392156044,4812598.0,5423850.0,0.0
1578392156090,4825429.0,5425905.0,0.0
1578392156139,4789993.0,5346882.0,0.0
1578392156188,4747997.0,5273640.0,0.0
1578392156238,4731901.0,5251236.0,0.0
1578392156293,4723898.0,5245444.0,0.0
1578392156339,4743875.0,5358777.0,0.0
1578392156393,4773888.0,5483961.0,0.0
1578392156433,4783154.0,5509736.0,0.0
1578392156491,4820699.0,5571876.0,0.0
1578392156530,4813937.0,5548938.0,0.0
1578392156583,4796956.0,5525088.0,0.0
1578392156631,4792699.0,5520529.0,0.0
1578392156681,4776594.0,5501378.0,0.0
1578392156732,4763688.0,5476682.0,0.0
1578392156779,4746715.0,5451965.0,0.0
1578392156824,4776854.0,5505544.0,0.0
1578392156876,4780899.0,5480281.0,0.0
1578392156925,4772559.0,5472539.0,0.0
1578392156973,4778347.0,5491155.0,0.0
1578392157023,4786054.0,5534728.0,0.0
1578392157071,4806030.0,5575212.0,0.0
1578392157121,4791765.0,5537565.0,0.0
1578392157171,4752668.0,5465736.0,0.0
1578392157219,4710345.0,5385634.0,0.0
1578392157266,4712724.0,5383805.0,0.0
1578392157316,4700127.0,5392578.0,0.0
1578392157362,4695753.0,5408951.0,0.0
1578392157414,4701070.0,5452712.0,0.0
1578392157462,4716800.0,5497401.0,0.0
1578392157512,4727182.0,5523127.0,0.0
1578392157562,4729262.0,5518724.0,0.0
1578392157610,4746851.0,5532650.0,0.0
1578392157659,4717214.0,5479616.0,0.0
1578392157707,4681671.0,5421429.0,0.0
1578392157756,4667194.0,5423031.0,0.0
1578392157805,4679667.0,5439605.0,0.0
1578392157857,4684974.0,5449518.0,0.0
1578392157910,4698469.0,5468586.0,0.0
1578392157951,4708158.0,5473572.0,0.0
1578392158008,4714392.0,5468870.0,0.0
1578392158053,4729272.0,5497175.0,0.0
1578392158104,4736130.0,5516420.0,0.0
1578392158153,4734888.0,5530097.0,0.0
1578392158203,4733771.0,5528209.0,0.0
1578392158251,4722338.0,5522630.0,0.0
1578392158294,4719372.0,5516989.0,0.0
1578392158342,4727452.0,5521655.0,0.0
1578392158391,4741629.0,5538016.0,0.0
1578392158449,4721895.0,5505843.0,0.0
1578392158493,4716625.0,5503515.0,0.0
1578392158545,4709266.0,5499716.0,0.0
1578392158593,4718764.0,5512051.0,0.0
1578392158641,4698768.0,5477977.0,0.0
1578392158692,4683174.0,5435712.0,0.0
1578392158732,4677347.0,5421655.0,0.0
1578392158789,4680911.0,5429111.0,0.0
1578392158832,4679899.0,5437088.0,0.0
1578392158889,4693510.0,5463944.0,0.0
1578392158935,4719380.0,5539477.0,0.0
1578392158987,4732566.0,5564526.0,0.0
1578392159033,4750173.0,5590314.0,0.0
1578392159084,4754383.0,5600405.0,0.0
1578392159129,4755557.0,5570820.0,0.0
1578392159181,4729138.0,5518818.0,0.0
1578392159230,4699713.0,5468539.0,0.0
1578392159272,4682335.0,5454944.0,0.0
1578392159327,4672048.0,5450956.0,0.0
1578392159376,4680092.0,5466781.0,0.0
1578392159426,4679369.0,5474214.0,0.0
1578392159475,4683020.0,5473132.0,0.0
1578392159517,4698729.0,5490491.0,0.0
1578392159573,4699048.0,5483675.0,0.0
1578392159613,4689223.0,5468443.0,0.0
1578392159671,4694357.0,5474794.0,0.0
1578392159713,4706492.0,5494670.0,0.0
1578392159769,4705944.0,5503193.0,0.0
1578392159810,4728636.0,5543667.0,0.0
1578392159867,4743990.0,5603991.0,0.0
1578392159911,4743143.0,5568445.0,0.0
1578392159963,4755317.0,5600192.0,0.0
1578392160005,4745175.0,5573158.0,0.0
1578392160055,4745705.0,5582312.0,0.0
1578392160103,4749269.0,5575665.0,0.0
1578392160154,4736650.0,5546231.0,0.0
1578392160208,4701137.0,5477418.0,0.0
1578392160255,4696187.0,5447074.0,0.0
1578392160304,4701157.0,5465606.0,0.0
1578392160353,4692959.0,5459718.0,0.0
1578392160402,4699674.0,5485337.0,0.0
1578392160453,4716934.0,5524838.0,0.0
1578392160500,4720016.0,5525834.0,0.0
1578392160551,4731392.0,5534276.0,0.0
1578392160593,4744905.0,5555042.0,0.0
1578392160641,4731227.0,5494681.0,0.0
1578392160695,4690716.0,5431436.0,0.0
1578392160750,4672213.0,5397565.0,0.0
1578392160797,4662822.0,5377582.0,0.0
1578392160842,4669785.0,5392874.0,0.0
1578392160894,4677327.0,5392627.0,0.0
1578392160935,4668793.0,5365224.0,0.0
1578392160988,4690474.0,5395274.0,0.0
1578392161035,4728752.0,5453365.0,0.0
1578392161090,4732365.0,5471590.0,0.0
1578392161137,4723821.0,5445685.0,0.0
1578392161189,4716125.0,5440733.0,0.0
1578392161237,4708833.0,5439392.0,0.0
1578392161280,4719303.0,5449934.0,0.0
1578392161334,4722799.0,5458423.0,0.0
1578392161381,4729291.0,5479603.0,0.0
1578392161433,4729417.0,5449555.0,0.0
1578392161474,4724985.0,5429917.0,0.0
1578392161531,4718561.0,5416477.0,0.0
1578392161582,4721046.0,5415421.0,0.0
1578392161628,4720603.0,5402184.0,0.0
1578392161677,4707793.0,5373380.0,0.0
1578392161724,4698296.0,5333845.0,0.0
1578392161774,4701379.0,5339057.0,0.0
1578392161818,4711521.0,5368407.0,0.0
1578392161872,4717068.0,5393469.0,0.0
1578392161915,4732615.0,5414946.0,0.0
1578392161971,4741611.0,5448663.0,0.0
1578392162017,4747381.0,5474950.0,0.0
1578392162062,4763956.0,5484601.0,0.0
1578392162117,4787063.0,5515564.0,0.0
1578392162161,4782614.0,5474274.0,0.0
1578392162215,4755086.0,5426617.0,0.0
1578392162256,4732970.0,5391451.0,0.0
1578392162306,4729725.0,5385075.0,0.0
1578392162355,4737056.0,5407752.0,0.0
1578392162405,4751628.0,5430427.0,0.0
1578392162453,4766616.0,5468896.0,0.0
1578392162504,4781015.0,5488307.0,0.0
1578392162552,4807109.0,5500558.0,0.0
1578392162599,4825699.0,5507884.0,0.0
1578392162655,4813340.0,5508620.0,0.0
1578392162699,4799585.0,5491808.0,0.0
1578392162753,4793740.0,5482749.0,0.0
1578392162796,4797072.0,5511112.0,0.0
1578392162851,4804228.0,5546790.0,0.0
1578392162897,4823434.0,5569288.0,0.0
1578392162948,4847727.0,5618357.0,0.0
1578392162998,4844269.0,5590897.0,0.0
1578392163045,4841870.0,5567496.0,0.0
1578392163097,4842871.0,5563494.0,0.0
1578392163137,4842053.0,5559897.0,0.0
1578392163193,4847429.0,5559172.0,0.0
1578392163237,4853786.0,5579095.0,0.0
1578392163283,4872297.0,5623035.0,0.0
1578392163337,4895435.0,5665122.0,0.0
1578392163390,4930850.0,5689248.0,0.0
1578392163438,4925891.0,5666417.0,0.0
1578392163485,4927912.0,5678265.0,0.0
1578392163535,4935194.0,5701049.0,0.0
1578392163578,4932593.0,5703054.0,0.0
1578392163634,4927392.0,5693190.0,0.0
1578392163678,4926179.0,5666726.0,0.0
1578392163731,4931159.0,5683383.0,0.0
1578392163779,4903891.0,5618796.0,0.0
1578392163822,4880784.0,5579925.0,0.0
1578392163879,4879502.0,5575106.0,0.0
1578392163924,4879715.0,5587084.0,0.0
1578392163976,4885975.0,5597081.0,0.0
1578392164018,4883539.0,5595539.0,0.0
1578392164073,4874965.0,5551609.0,0.0
1578392164118,4857965.0,5509427.0,0.0
1578392164168,4857628.0,5489945.0,0.0
1578392164221,4834616.0,5487605.0,0.0
1578392164270,4832883.0,5495133.0,0.0
1578392164316,4830996.0,5519744.0,0.0
1578392164366,4833712.0,5541282.0,0.0
1578392164416,4835128.0,5541862.0,0.0
1578392164457,4841004.0,5561476.0,0.0
1578392164513,4850086.0,5549367.0,0.0
1578392164557,4817086.0,5491097.0,0.0
1578392164611,4776171.0,5428349.0,0.0
1578392164661,4768658.0,5438858.0,0.0
1578392164708,4779591.0,5467304.0,0.0
1578392164758,4798246.0,5521335.0,0.0
1578392164805,4824947.0,5585636.0,0.0
1578392164857,4844653.0,5629053.0,0.0
1578392164899,4871759.0,5639406.0,0.0
1578392164954,4891552.0,5659733.0,0.0
1578392164999,4872336.0,5644595.0,0.0
1578392165052,4869447.0,5632247.0,0.0
1578392165102,4856974.0,5623972.0,0.0
1578392165147,4841725.0,5610331.0,0.0
1578392165199,4837026.0,5599884.0,0.0
1578392165246,4836215.0,5605476.0,0.0
1578392165290,4860393.0,5636782.0,0.0
1578392165339,4847014.0,5614404.0,0.0
1578392165394,4831709.0,5617907.0,0.0
1578392165440,4840291.0,5631025.0,0.0
1578392165491,4826132.0,5623202.0,0.0
1578392165541,4800115.0,5562805.0,0.0
1578392165588,4821085.0,5617728.0,0.0
1578392165637,4859574.0,5677969.0,0.0
1578392165681,4880534.0,5692761.0,0.0
1578392165737,4893517.0,5744454.0,0.0
1578392165780,4900750.0,5766775.0,0.0
1578392165825,4897438.0,5775893.0,0.0
1578392165881,4894778.0,5778980.0,0.0
1578392165929,4893391.0,5788644.0,0.0
1578392165981,4899730.0,5785081.0,0.0
1578392166022,4912656.0,5795447.0,0.0
1578392166080,4918040.0,5816710.0,0.0
1578392166121,4892487.0,5795684.0,0.0
1578392166177,4880918.0,5797405.0,0.0
1578392166222,4873984.0,5789700.0,0.0
1578392166272,4886832.0,5815464.0,0.0
1578392166327,4896658.0,5814728.0,0.0
1578392166372,4892015.0,5820640.0,0.0
1578392166422,4901906.0,5810406.0,0.0
1578392166468,4912174.0,5801134.0,0.0
1578392166519,4910758.0,5804245.0,0.0
1578392166561,4898862.0,5808887.0,0.0
1578392166617,4894307.0,5815701.0,0.0
1578392166660,4895376.0,5823323.0,0.0
1578392166714,4897456.0,5833819.0,0.0
1578392166762,4904622.0,5835302.0,0.0
1578392166813,4911461.0,5839174.0,0.0
1578392166863,4920823.0,5849348.0,0.0
1578392166903,4903428.0,5826257.0,0.0
1578392166959,4890762.0,5806596.0,0.0
1578392167002,4888519.0,5813090.0,0.0
1578392167057,4890849.0,5828678.0,0.0
1578392167106,4892015.0,5829188.0,0.0
1578392167149,4894248.0,5838461.0,0.0
1578392167206,4903458.0,5846141.0,0.0
1578392167249,4917020.0,5851626.0,0.0
1578392167302,4929781.0,5876654.0,0.0
1578392167344,4928731.0,5897917.0,0.0
1578392167399,4940145.0,5908650.0,0.0
1578392167441,4940550.0,5897834.0,0.0
1578392167490,4933296.0,5890688.0,0.0
1578392167544,4944123.0,5888706.0,0.0
1578392167586,4960950.0,5917674.0,0.0
1578392167640,4966989.0,5920772.0,0.0
1578392167685,4955749.0,5909376.0,0.0
1578392167743,4958002.0,5932693.0,0.0
1578392167783,4968328.0,5946916.0,0.0
1578392167837,4977538.0,5980300.0,0.0
1578392167883,4982458.0,5982058.0,0.0
1578392167938,4970217.0,5954609.0,0.0
1578392167985,4968098.0,5927694.0,0.0
1578392168032,4999131.0,5976418.0,0.0
1578392168080,5009005.0,6009294.0,0.0
1578392168127,5011961.0,6020953.0,0.0
1578392168183,5019841.0,6031470.0,0.0
1578392168223,5029329.0,6042762.0,0.0
1578392168279,5034605.0,6054171.0,0.0
1578392168321,5036686.0,6020501.0,0.0
1578392168378,5033248.0,5992494.0,0.0
1578392168425,5035473.0,6019089.0,0.0
1578392168473,5026159.0,6003001.0,0.0
1578392168526,5020948.0,6013877.0,0.0
1578392168571,5023991.0,6030734.0,0.0
1578392168623,5032391.0,6055240.0,0.0
1578392168664,5042013.0,6086299.0,0.0
1578392168713,5043911.0,6086666.0,0.0
1578392168761,5059437.0,6074901.0,0.0
1578392168809,5103148.0,6122604.0,0.0
1578392168861,5097301.0,6093789.0,0.0
1578392168907,5086512.0,6082807.0,0.0
1578392168958,5084509.0,6094871.0,0.0
1578392169012,5087900.0,6104605.0,0.0
1578392169061,5089749.0,6117213.0,0.0
1578392169110,5102329.0,6107349.0,0.0
1578392169154,5102839.0,6123270.0,0.0
1578392169202,5110968.0,6112324.0,0.0
1578392169259,5108937.0,6107955.0,0.0
1578392169302,5104583.0,6093576.0,0.0
1578392169348,5102069.0,6084825.0,0.0
1578392169404,5097108.0,6072646.0,0.0
1578392169452,5096704.0,6077132.0,0.0
1578392169501,5092071.0,6069356.0,0.0
1578392169550,5093871.0,6049732.0,0.0
1578392169603,5118145.0,6074532.0,0.0
1578392169643,5118973.0,6087545.0,0.0
1578392169699,5122643.0,6101542.0,0.0
1578392169747,5131899.0,6106779.0,0.0
1578392169796,5120060.0,6068204.0,0.0
1578392169846,5115601.0,6071541.0,0.0
1578392169886,5121255.0,6061770.0,0.0
1578392169941,5137052.0,6065640.0,0.0
1578392169991,5130156.0,6060285.0,0.0
1578392170043,5128210.0,6054931.0,0.0
1578392170083,5129327.0,6065949.0,0.0
1578392170139,5129376.0,6061141.0,0.0
1578392170189,5133614.0,6065463.0,0.0
1578392170237,5137706.0,6055857.0,0.0
1578392170284,5122759.0,6041373.0,0.0
1578392170330,5112490.0,5996128.0,0.0
1578392170381,5141723.0,6032612.0,0.0
1578392170426,5137340.0,6044627.0,0.0
1578392170482,5135934.0,6043438.0,0.0
1578392170523,5146548.0,6065414.0,0.0
1578392170580,5151847.0,6089706.0,0.0
1578392170629,5153773.0,6077561.0,0.0
1578392170677,5169011.0,6066589.0,0.0
1578392170725,5168087.0,6045529.0,0.0
1578392170774,5154129.0,6009222.0,0.0
1578392170823,5140433.0,5981252.0,0.0
1578392170871,5131619.0,5974246.0,0.0
1578392170922,5132448.0,5988755.0,0.0
1578392170967,5140819.0,5998752.0,0.0
1578392171020,5146867.0,6009378.0,0.0
1578392171067,5143659.0,6009864.0,0.0
1578392171117,5144372.0,5978698.0,0.0
1578392171160,5173095.0,5986427.0,0.0
1578392171216,5164302.0,5985489.0,0.0
1578392171260,5151510.0,5976087.0,0.0
1578392171306,5151152.0,5991628.0,0.0
1578392171356,5156585.0,6012938.0,0.0
1578392171403,5156721.0,6010528.0,0.0
1578392171459,5155902.0,5984802.0,0.0
1578392171510,5172642.0,6025939.0,0.0
1578392171557,5154939.0,5968061.0,0.0
1578392171606,5140201.0,5929533.0,0.0
1578392171653,5120841.0,5898417.0,0.0
1578392171702,5111509.0,5871916.0,0.0
1578392171751,5096145.0,5836930.0,0.0
1578392171803,5086705.0,5823537.0,0.0
1578392171848,5088979.0,5824938.0,0.0
1578392171900,5103360.0,5838745.0,0.0
1578392171949,5128315.0,5866265.0,0.0
1578392171998,5126081.0,5865672.0,0.0
1578392172048,5129992.0,5880430.0,0.0
1578392172093,5119945.0,5860567.0,0.0
1578392172141,5105373.0,5826007.0,0.0
1578392172190,5100489.0,5804957.0,0.0
1578392172243,5102242.0,5834222.0,0.0
1578392172290,5105046.0,5827027.0,0.0
1578392172335,5095980.0,5815500.0,0.0
1578392172391,5083237.0,5797002.0,0.0
1578392172437,5083652.0,5802500.0,0.0
1578392172485,5090539.0,5815035.0,0.0
1578392172533,5078625.0,5771927.0,0.0
1578392172581,5055662.0,5728392.0,0.0
1578392172625,5043265.0,5699861.0,0.0
1578392172684,5034010.0,5679560.0,0.0
1578392172731,5036235.0,5687349.0,0.0
1578392172780,5021064.0,5689508.0,0.0
1578392172827,5026690.0,5708019.0,0.0
1578392172879,5041078.0,5749226.0,0.0
1578392172925,5044547.0,5763285.0,0.0
1578392172975,5043651.0,5744906.0,0.0
1578392173021,5024241.0,5699042.0,0.0
1578392173066,4992514.0,5634967.0,0.0
1578392173123,4953890.0,5580757.0,0.0
1578392173168,4931063.0,5555991.0,0.0
1578392173221,4928885.0,5558246.0,0.0
1578392173270,4938711.0,5570796.0,0.0
1578392173311,4943392.0,5579059.0,0.0
1578392173363,4945192.0,5585469.0,0.0
1578392173414,4936157.0,5548962.0,0.0
1578392173460,4927276.0,5517429.0,0.0
1578392173510,4904429.0,5522487.0,0.0
1578392173564,4881294.0,5506709.0,0.0
1578392173607,4875207.0,5514984.0,0.0
1578392173660,4881237.0,5529326.0,0.0
1578392173709,4887285.0,5551005.0,0.0
1578392173751,4892986.0,5552049.0,0.0
1578392173799,4908438.0,5580910.0,0.0
1578392173851,4901424.0,5557083.0,0.0
1578392173899,4855421.0,5501521.0,0.0
1578392173949,4825728.0,5462412.0,0.0
1578392174000,4804142.0,5437516.0,0.0
1578392174051,4801609.0,5442598.0,0.0
1578392174101,4806135.0,5454470.0,0.0
1578392174149,4809681.0,5453757.0,0.0
1578392174198,4823068.0,5469049.0,0.0
1578392174249,4826951.0,5484874.0,0.0
1578392174290,4828452.0,5497934.0,0.0
1578392174346,4831313.0,5511707.0,0.0
1578392174386,4827394.0,5514449.0,0.0
1578392174437,4809671.0,5496366.0,0.0
1578392174491,4809218.0,5496166.0,0.0
1578392174533,4812887.0,5506316.0,0.0
1578392174592,4828231.0,5531451.0,0.0
1578392174638,4800365.0,5498350.0,0.0
1578392174686,4804093.0,5509973.0,0.0
1578392174731,4797159.0,5509629.0,0.0
1578392174788,4796966.0,5512014.0,0.0
1578392174832,4786564.0,5495334.0,0.0
1578392174882,4779995.0,5490941.0,0.0
1578392174933,4776738.0,5470451.0,0.0
1578392174981,4776874.0,5471091.0,0.0
1578392175031,4779300.0,5496878.0,0.0
1578392175077,4784233.0,5520042.0,0.0
1578392175129,4791554.0,5533896.0,0.0
1578392175177,4793413.0,5536283.0,0.0
1578392175226,4793248.0,5534372.0,0.0
1578392175268,4774909.0,5498338.0,0.0
1578392175318,4776084.0,5486525.0,0.0
1578392175375,4756821.0,5472290.0,0.0
1578392175423,4747245.0,5476243.0,0.0
1578392175471,4746388.0,5490478.0,0.0
1578392175516,4753708.0,5509666.0,0.0
1578392175570,4758987.0,5522237.0,0.0
1578392175611,4779879.0,5553130.0,0.0
1578392175668,4750685.0,5478097.0,0.0
1578392175708,4750549.0,5477408.0,0.0
1578392175763,4746493.0,5477335.0,0.0
1578392175810,4729205.0,5451110.0,0.0
1578392175863,4720065.0,5457128.0,0.0
1578392175911,4730235.0,5485540.0,0.0
1578392175959,4734435.0,5494112.0,0.0
1578392176010,4745079.0,5520172.0,0.0
1578392176052,4758794.0,5547846.0,0.0
1578392176108,4772376.0,5548725.0,0.0
1578392176148,4749490.0,5508061.0,0.0
1578392176207,4732403.0,5492736.0,0.0
1578392176252,4709152.0,5461557.0,0.0
1578392176304,4716269.0,5462566.0,0.0
1578392176349,4707976.0,5456821.0,0.0
1578392176403,4723041.0,5475697.0,0.0
1578392176449,4735784.0,5484697.0,0.0
1578392176492,4747670.0,5499383.0,0.0
1578392176547,4755529.0,5522890.0,0.0
1578392176588,4762483.0,5540093.0,0.0
1578392176647,4771055.0,5550280.0,0.0
1578392176692,4771269.0,5550090.0,0.0
1578392176742,4770198.0,5551302.0,0.0
1578392176793,4778298.0,5550090.0,0.0
1578392176834,4798315.0,5582525.0,0.0
1578392176891,4809545.0,5592582.0,0.0
1578392176931,4799721.0,5577683.0,0.0
1578392176986,4802273.0,5585386.0,0.0
1578392177029,4802167.0,5585649.0,0.0
1578392177082,4791090.0,5565085.0,0.0
1578392177133,4780350.0,5540616.0,0.0
1578392177182,4778530.0,5533909.0,0.0
1578392177232,4775285.0,5520908.0,0.0
1578392177281,4795810.0,5555195.0,0.0
1578392177326,4791765.0,5578442.0,0.0
1578392177379,4801503.0,5591502.0,0.0
1578392177429,4804181.0,5607447.0,0.0
1578392177469,4803130.0,5603588.0,0.0
1578392177527,4810971.0,5604906.0,0.0
1578392177574,4815297.0,5601747.0,0.0
1578392177623,4809614.0,5599645.0,0.0
1578392177673,4777557.0,5553853.0,0.0
1578392177721,4772693.0,5553070.0,0.0
1578392177770,4780149.0,5575498.0,0.0
1578392177814,4790454.0,5593614.0,0.0
1578392177862,4798055.0,5607697.0,0.0
1578392177912,4795897.0,5591537.0,0.0
1578392177961,4794605.0,5553877.0,0.0
1578392178010,4787661.0,5539500.0,0.0
1578392178058,4768936.0,5541269.0,0.0
1578392178107,4757215.0,5538301.0,0.0
1578392178155,4747515.0,5535451.0,0.0
1578392178205,4745435.0,5527366.0,0.0
1578392178254,4751360.0,5547490.0,0.0
1578392178303,4770805.0,5591419.0,0.0
1578392178352,4782490.0,5582016.0,0.0
1578392178401,4740571.0,5493482.0,0.0
1578392178451,4718937.0,5451596.0,0.0
1578392178498,4697815.0,5414993.0,0.0
1578392178547,4694972.0,5420277.0,0.0
1578392178597,4703016.0,5425049.0,0.0
1578392178645,4696486.0,5420490.0,0.0
1578392178694,4681150.0,5365544.0,0.0
1578392178742,4687248.0,5376657.0,0.0
1578392178790,4686650.0,5401032.0,0.0
1578392178839,4697478.0,5435342.0,0.0
1578392178890,4703796.0,5443261.0,0.0
1578392178940,4704046.0,5447084.0,0.0
1578392178988,4698209.0,5442621.0,0.0
1578392179039,4703825.0,5443701.0,0.0
1578392179086,4725390.0,5478214.0,0.0
1578392179135,4728309.0,5480994.0,0.0
1578392179191,4708910.0,5450873.0,0.0
1578392179232,4709335.0,5451477.0,0.0
1578392179288,4718638.0,5459539.0,0.0
1578392179336,4705241.0,5433621.0,0.0
1578392179386,4691880.0,5392388.0,0.0
1578392179433,4672965.0,5353909.0,0.0
1578392179483,4683154.0,5348224.0,0.0
1578392179532,4686535.0,5365307.0,0.0
1578392179574,4689540.0,5393090.0,0.0
1578392179631,4700915.0,5422402.0,0.0
1578392179672,4708053.0,5452083.0,0.0
1578392179727,4720642.0,5471840.0,0.0
1578392179775,4704981.0,5421986.0,0.0
1578392179829,4705241.0,5402741.0,0.0
1578392179874,4701551.0,5395048.0,0.0
1578392179922,4683723.0,5372550.0,0.0
1578392179973,4674409.0,5378118.0,0.0
1578392180014,4688963.0,5398954.0,0.0
1578392180070,4703449.0,5435948.0,0.0
1578392180112,4722848.0,5479865.0,0.0
1578392180162,4737854.0,5513083.0,0.0
1578392180215,4756435.0,5503313.0,0.0
1578392180266,4759421.0,5477824.0,0.0
1578392180315,4755451.0,5474118.0,0.0
1578392180356,4739260.0,5469632.0,0.0
1578392180406,4742093.0,5490062.0,0.0
1578392180457,4733838.0,5488970.0,0.0
1578392180511,4744202.0,5503575.0,0.0
1578392180552,4766866.0,5540249.0,0.0
1578392180609,4780245.0,5566784.0,0.0
1578392180656,4781208.0,5542634.0,0.0
1578392180708,4741284.0,5454730.0,0.0
1578392180755,4705857.0,5402041.0,0.0
1578392180802,4690948.0,5383923.0,0.0
1578392180853,4691197.0,5395001.0,0.0
1578392180897,4700135.0,5406720.0,0.0
1578392180952,4710432.0,5432565.0,0.0
1578392180992,4729908.0,5436874.0,0.0
1578392181040,4731343.0,5448166.0,0.0
1578392181093,4725382.0,5441719.0,0.0
1578392181139,4710759.0,5420407.0,0.0
1578392181192,4690312.0,5392221.0,0.0
1578392181245,4670776.0,5374165.0,0.0
1578392181293,4673369.0,5377619.0,0.0
1578392181336,4687904.0,5410293.0,0.0
1578392181393,4693528.0,5418651.0,0.0
1578392181434,4676065.0,5385158.0,0.0
1578392181490,4670441.0,5380729.0,0.0
1578392181536,4670787.0,5386903.0,0.0
1578392181586,4654346.0,5355274.0,0.0
1578392181637,4636546.0,5311121.0,0.0
1578392181685,4624197.0,5279694.0,0.0
1578392181734,4610887.0,5253516.0,0.0
1578392181779,4606764.0,5251059.0,0.0
1578392181836,4602091.0,5264166.0,0.0
1578392181874,4608768.0,5285642.0,0.0
1578392181922,4618168.0,5303001.0,0.0
1578392181978,4623370.0,5324680.0,0.0
1578392182028,4626094.0,5321427.0,0.0
1578392182078,4627271.0,5303227.0,0.0
1578392182124,4613361.0,5273853.0,0.0
1578392182174,4582586.0,5228548.0,0.0
1578392182217,4576605.0,5231374.0,0.0
1578392182273,4574169.0,5229083.0,0.0
1578392182314,4584417.0,5242961.0,0.0
1578392182364,4594454.0,5263360.0,0.0
1578392182418,4599279.0,5253516.0,0.0
1578392182470,4593972.0,5210359.0,0.0
1578392182518,4570518.0,5160923.0,0.0
1578392182568,4553681.0,5142082.0,0.0
1578392182616,4547382.0,5135421.0,0.0
1578392182662,4550580.0,5153205.0,0.0
1578392182713,4566521.0,5187018.0,0.0
1578392182756,4569467.0,5204518.0,0.0
1578392182811,4592644.0,5228810.0,0.0
1578392182859,4609854.0,5262231.0,0.0
1578392182910,4607581.0,5227445.0,0.0
1578392182958,4582501.0,5167251.0,0.0
1578392183006,4561704.0,5133937.0,0.0
1578392183056,4558208.0,5135089.0,0.0
1578392183099,4568409.0,5151200.0,0.0
1578392183154,4572541.0,5158572.0,0.0
1578392183197,4591681.0,5172309.0,0.0
1578392183252,4599529.0,5178436.0,0.0
1578392183297,4600819.0,5170005.0,0.0
1578392183344,4602843.0,5184644.0,0.0
1578392183399,4603796.0,5182233.0,0.0
1578392183449,4603536.0,5173698.0,0.0
1578392183498,4597997.0,5175609.0,0.0
1578392183545,4605693.0,5193346.0,0.0
1578392183596,4626123.0,5214871.0,0.0
1578392183643,4638155.0,5231921.0,0.0
1578392183693,4634349.0,5225141.0,0.0
1578392183734,4637037.0,5217365.0,0.0
1578392183782,4633415.0,5216166.0,0.0
1578392183836,4641515.0,5215880.0,0.0
1578392183881,4642728.0,5200968.0,0.0
1578392183930,4634483.0,5177900.0,0.0
1578392183979,4635765.0,5164923.0,0.0
1578392184031,4620537.0,5094139.0,0.0
1578392184080,4632181.0,5108531.0,0.0
1578392184128,4627943.0,5114406.0,0.0
1578392184178,4634936.0,5127289.0,0.0
1578392184232,4650146.0,5149548.0,0.0
1578392184280,4669429.0,5167347.0,0.0
1578392184327,4656290.0,5134412.0,0.0
1578392184376,4639378.0,5091541.0,0.0
1578392184420,4631383.0,5068674.0,0.0
1578392184477,4612388.0,5037651.0,0.0
1578392184519,4608150.0,5015438.0,0.0
1578392184575,4595909.0,4998566.0,0.0
1578392184618,4595878.0,5009408.0,0.0
1578392184673,4598798.0,5015129.0,0.0
1578392184718,4606888.0,4990304.0,0.0
1578392184762,4573080.0,4906269.0,0.0
1578392184815,4537634.0,4833160.0,0.0
1578392184864,4508844.0,4791987.0,0.0
1578392184913,4499212.0,4771424.0,0.0
1578392184963,4494801.0,4761926.0,0.0
1578392185017,4504606.0,4774984.0,0.0
1578392185059,4509354.0,4781420.0,0.0
1578392185115,4522532.0,4793316.0,0.0
1578392185160,4530411.0,4795404.0,0.0
1578392185212,4516618.0,4750491.0,0.0
1578392185261,4492759.0,4707643.0,0.0
1578392185308,4487491.0,4709448.0,0.0
1578392185351,4488443.0,4724456.0,0.0
1578392185400,4494002.0,4741303.0,0.0
1578392185448,4501660.0,4756475.0,0.0
1578392185499,4512889.0,4769489.0,0.0
1578392185554,4513217.0,4760275.0,0.0
1578392185599,4517735.0,4758293.0,0.0
1578392185652,4527136.0,4793862.0,0.0
1578392185702,4519777.0,4793139.0,0.0
1578392185747,4498182.0,4763921.0,0.0
1578392185799,4503682.0,4772823.0,0.0
1578392185842,4506985.0,4773941.0,0.0
1578392185897,4511079.0,4776373.0,0.0
1578392185939,4509047.0,4769226.0,0.0
1578392185986,4513227.0,4765533.0,0.0
1578392186040,4516069.0,4754101.0,0.0
1578392186092,4528446.0,4783498.0,0.0
1578392186142,4525931.0,4774487.0,0.0
1578392186190,4514151.0,4756571.0,0.0
1578392186239,4510453.0,4764264.0,0.0
1578392186281,4515933.0,4778843.0,0.0
1578392186337,4515067.0,4794408.0,0.0
1578392186387,4523168.0,4817476.0,0.0
1578392186436,4535554.0,4844189.0,0.0
1578392186481,4546602.0,4867317.0,0.0
1578392186533,4554780.0,4878252.0,0.0
1578392186583,4551224.0,4853188.0,0.0
1578392186631,4525846.0,4796070.0,0.0
1578392186679,4510464.0,4756938.0,0.0
1578392186721,4500417.0,4747204.0,0.0
1578392186778,4505772.0,4762566.0,0.0
1578392186824,4510858.0,4776672.0,0.0
1578392186873,4518013.0,4784185.0,0.0
1578392186926,4519296.0,4777811.0,0.0
1578392186965,4522540.0,4773751.0,0.0
1578392187024,4517378.0,4778250.0,0.0
1578392187063,4522522.0,4778890.0,0.0
1578392187121,4533223.0,4816076.0,0.0
1578392187161,4561887.0,4870427.0,0.0
1578392187219,4586873.0,4919473.0,0.0
1578392187263,4608969.0,4963507.0,0.0
1578392187315,4627472.0,4985841.0,0.0
1578392187369,4637259.0,5004599.0,0.0
1578392187411,4643547.0,5013681.0,0.0
1578392187463,4647409.0,5011532.0,0.0
1578392187504,4653584.0,5002734.0,0.0
1578392187561,4658381.0,5002912.0,0.0
1578392187603,4663533.0,5021267.0,0.0
1578392187658,4658767.0,5010154.0,0.0
1578392187702,4666481.0,5021303.0,0.0
1578392187756,4673271.0,5045725.0,0.0
1578392187805,4693770.0,5078338.0,0.0
1578392187856,4712523.0,5105977.0,0.0
1578392187901,4734608.0,5146391.0,0.0
1578392187953,4747582.0,5183635.0,0.0
1578392188001,4770440.0,5204068.0,0.0
1578392188050,4806800.0,5224405.0,0.0
1578392188099,4804402.0,5210752.0,0.0
1578392188143,4804431.0,5217649.0,0.0
1578392188188,4808687.0,5247022.0,0.0
1578392188248,4816316.0,5264915.0,0.0
1578392188286,4839145.0,5292755.0,0.0
1578392188336,4858591.0,5324145.0,0.0
1578392188387,4885002.0,5385028.0,0.0
1578392188435,4884819.0,5367219.0,0.0
1578392188485,4872395.0,5350931.0,0.0
1578392188534,4867829.0,5353222.0,0.0
1578392188583,4875428.0,5376017.0,0.0
1578392188637,4887612.0,5454540.0,0.0
1578392188685,4895916.0,5604170.0,0.0
1578392188729,4924869.0,5645984.0,0.0
1578392188780,4960026.0,5728010.0,0.0
1578392188827,4976420.0,5758120.0,0.0
1578392188883,4983808.0,5761681.0,0.0
1578392188923,4995114.0,5729768.0,0.0
1578392188975,4989192.0,5701559.0,0.0
1578392189023,4980234.0,5685068.0,0.0
1578392189073,4988285.0,5660089.0,0.0
1578392189123,4975120.0,5620708.0,0.0
1578392189176,5012471.0,5715082.0,0.0
1578392189227,5022913.0,5705691.0,0.0
1578392189273,5030444.0,5682730.0,0.0
1578392189319,5025542.0,5688962.0,0.0
1578392189366,5024743.0,5692667.0,0.0
1578392189422,5027970.0,5720507.0,0.0
1578392189462,5032949.0,5746009.0,0.0
1578392189521,5016913.0,5757681.0,0.0
1578392189561,5045432.0,5830506.0,0.0
1578392189618,5067489.0,5847733.0,0.0
1578392189667,5112374.0,5896992.0,0.0
1578392189716,5125398.0,5919193.0,0.0
1578392189761,5129752.0,5918291.0,0.0
1578392189812,5138545.0,5928371.0,0.0
1578392189861,5131725.0,5895246.0,0.0
1578392189908,5141867.0,5861019.0,0.0
1578392189963,5124414.0,5852861.0,0.0
1578392190004,5161508.0,5921437.0,0.0
1578392190060,5174887.0,5924727.0,0.0
1578392190104,5181765.0,5948424.0,0.0
1578392190150,5175271.0,5945015.0,0.0
1578392190205,5171929.0,5945634.0,0.0
1578392190254,5153060.0,5930662.0,0.0
1578392190301,5121911.0,5863404.0,0.0
1578392190351,5127988.0,5877580.0,0.0
1578392190402,5164147.0,5939293.0,0.0
1578392190443,5192610.0,5969105.0,0.0
1578392190500,5201934.0,5968582.0,0.0
1578392190542,5213116.0,5980740.0,0.0
1578392190597,5222824.0,6001376.0,0.0
1578392190644,5224009.0,6006884.0,0.0
1578392190695,5233901.0,5992032.0,0.0
1578392190742,5247607.0,6001267.0,0.0
1578392190791,5265696.0,6025986.0,0.0
1578392190846,5252675.0,6028206.0,0.0
1578392190886,5240529.0,6006195.0,0.0
1578392190941,5242252.0,6011180.0,0.0
1578392190984,5243158.0,6015562.0,0.0
1578392191037,5251153.0,6036945.0,0.0
1578392191086,5244044.0,6043296.0,0.0
1578392191127,5244824.0,6054944.0,0.0
1578392191185,5290739.0,6102897.0,0.0
1578392191231,5306873.0,6093683.0,0.0
1578392191281,5318481.0,6088947.0,0.0
1578392191325,5317680.0,6111289.0,0.0
1578392191375,5313540.0,6105305.0,0.0
1578392191426,5312798.0,6095974.0,0.0
1578392191479,5309889.0,6068467.0,0.0
1578392191526,5316756.0,6094752.0,0.0
1578392191577,5321148.0,6101531.0,0.0
1578392191624,5308743.0,6069096.0,0.0
1578392191672,5301412.0,6042323.0,0.0
1578392191720,5292040.0,6010493.0,0.0
1578392191768,5288823.0,6010743.0,0.0
1578392191822,5285182.0,6019908.0,0.0
1578392191870,5288504.0,6046395.0,0.0
1578392191920,5313009.0,6069024.0,0.0
1578392191959,5340970.0,6091106.0,0.0
1578392192017,5337908.0,6078011.0,0.0
1578392192061,5341905.0,6087189.0,0.0
1578392192115,5346923.0,6098455.0,0.0
1578392192158,5333274.0,6076183.0,0.0
1578392192205,5324288.0,6031697.0,0.0
1578392192262,5333052.0,6045173.0,0.0
1578392192309,5341665.0,6066589.0,0.0
1578392192359,5333603.0,6063658.0,0.0
1578392192409,5326628.0,6065047.0,0.0
1578392192458,5332465.0,6070105.0,0.0
1578392192504,5341192.0,6085990.0,0.0
1578392192553,5332908.0,6079886.0,0.0
1578392192601,5335923.0,6086833.0,0.0
1578392192647,5343591.0,6066912.0,0.0
1578392192703,5359416.0,6066483.0,0.0
1578392192749,5361024.0,6071671.0,0.0
1578392192800,5357460.0,6088268.0,0.0
1578392192852,5363173.0,6098088.0,0.0
1578392192898,5359993.0,6113083.0,0.0
1578392192945,5357596.0,6091558.0,0.0
1578392192987,5358654.0,6072930.0,0.0
1578392193043,5357769.0,6051430.0,0.0
1578392193090,5326407.0,5991330.0,0.0
1578392193143,5313722.0,5980123.0,0.0
1578392193187,5316362.0,5998668.0,0.0
1578392193240,5325078.0,6039829.0,0.0
1578392193289,5328961.0,6058826.0,0.0
1578392193328,5329481.0,6069593.0,0.0
1578392193384,5351084.0,6083686.0,0.0
1578392193435,5351661.0,6054065.0,0.0
1578392193482,5343110.0,6029228.0,0.0
1578392193530,5332004.0,6037218.0,0.0
1578392193582,5327583.0,6042666.0,0.0
1578392193629,5324539.0,6050658.0,0.0
1578392193675,5318672.0,6076610.0,0.0
1578392193729,5319115.0,6057851.0,0.0
1578392193779,5321736.0,6091735.0,0.0
1578392193825,5317902.0,6045066.0,0.0
1578392193870,5305766.0,6010184.0,0.0
1578392193924,5288718.0,5973617.0,0.0
1578392193967,5277803.0,5947069.0,0.0
1578392194020,5266255.0,5933073.0,0.0
1578392194069,5259513.0,5922067.0,0.0
1578392194119,5254168.0,5920951.0,0.0
1578392194161,5254590.0,5892778.0,0.0
1578392194210,5264916.0,5938961.0,0.0
1578392194259,5267604.0,5966291.0,0.0
1578392194307,5264985.0,5983601.0,0.0
1578392194358,5259079.0,5972667.0,0.0
1578392194409,5233873.0,5922197.0,0.0
1578392194458,5215581.0,5898297.0,0.0
1578392194507,5228651.0,5918173.0,0.0
1578392194556,5208685.0,5895200.0,0.0
1578392194610,5193486.0,5879944.0,0.0
1578392194657,5195981.0,5892885.0,0.0
1578392194709,5205371.0,5914813.0,0.0
1578392194749,5223566.0,5951818.0,0.0
1578392194800,5206450.0,5917781.0,0.0
1578392194847,5142320.0,5801015.0,0.0
1578392194903,5120900.0,5770468.0,0.0
1578392194950,5093977.0,5764554.0,0.0
1578392195002,5074212.0,5764637.0,0.0
1578392195050,5065602.0,5770871.0,0.0
1578392195097,5064427.0,5793416.0,0.0
1578392195149,5070331.0,5824558.0,0.0
1578392195195,5074135.0,5840183.0,0.0
1578392195247,5095606.0,5876072.0,0.0
1578392195287,5098591.0,5876738.0,0.0
1578392195342,5061422.0,5806963.0,0.0
1578392195391,5046347.0,5791018.0,0.0
1578392195442,5062192.0,5845715.0,0.0
1578392195491,5080348.0,5888160.0,0.0
1578392195538,5088757.0,5919918.0,0.0
1578392195590,5089277.0,5923195.0,0.0
1578392195630,5088652.0,5910788.0,0.0
1578392195685,5113108.0,5930129.0,0.0
1578392195728,5133797.0,5966993.0,0.0
1578392195784,5138497.0,5962410.0,0.0
1578392195832,5143044.0,5988019.0,0.0
1578392195884,5141530.0,6006551.0,0.0
1578392195931,5151963.0,6014233.0,0.0
1578392195978,5163329.0,6003701.0,0.0
1578392196030,5153966.0,6011537.0,0.0
1578392196074,5179308.0,6056309.0,0.0
1578392196128,5183362.0,6042037.0,0.0
1578392196174,5188410.0,6054990.0,0.0
1578392196226,5189566.0,6053732.0,0.0
1578392196272,5199313.0,6071694.0,0.0
1578392196323,5196076.0,6071387.0,0.0
1578392196371,5181590.0,6049529.0,0.0
1578392196422,5188313.0,6064951.0,0.0
1578392196461,5211672.0,6088211.0,0.0
1578392196516,5227582.0,6098694.0,0.0
1578392196569,5235106.0,6109484.0,0.0
1578392196608,5239604.0,6116501.0,0.0
1578392196668,5228759.0,6096699.0,0.0
1578392196711,5223692.0,6069973.0,0.0
1578392196765,5221554.0,6059229.0,0.0
1578392196812,5223403.0,6075483.0,0.0
1578392196865,5238544.0,6100200.0,0.0
1578392196911,5226678.0,6090798.0,0.0
1578392196956,5235462.0,6123460.0,0.0
1578392197008,5245383.0,6168883.0,0.0
1578392197049,5253416.0,6193079.0,0.0
1578392197107,5263790.0,6206602.0,0.0
1578392197152,5280550.0,6262901.0,0.0
1578392197198,5298456.0,6263008.0,0.0
1578392197252,5318355.0,6295515.0,0.0
1578392197300,5310543.0,6283357.0,0.0
1578392197352,5299957.0,6281292.0,0.0
1578392197392,5295709.0,6269870.0,0.0
1578392197448,5304937.0,6284746.0,0.0
1578392197488,5297300.0,6262688.0,0.0
1578392197544,5309435.0,6269691.0,0.0
1578392197590,5318278.0,6270950.0,0.0
1578392197642,5295768.0,6224032.0,0.0
1578392197693,5289459.0,6219057.0,0.0
1578392197743,5299120.0,6228567.0,0.0
1578392197791,5310669.0,6268362.0,0.0
1578392197832,5315937.0,6280164.0,0.0
1578392197890,5313241.0,6296394.0,0.0
1578392197930,5345267.0,6337484.0,0.0
1578392197988,5356690.0,6337139.0,0.0
1578392198032,5373393.0,6373683.0,0.0
1578392198086,5374019.0,6364198.0,0.0
1578392198127,5371802.0,6357382.0,0.0
1578392198180,5366688.0,6365693.0,0.0
1578392198232,5364165.0,6335253.0,0.0
1578392198273,5356015.0,6330052.0,0.0
1578392198331,5360688.0,6340108.0,0.0
1578392198370,5360109.0,6324471.0,0.0
1578392198429,5357210.0,6303874.0,0.0
1578392198474,5354841.0,6290517.0,0.0
1578392198526,5338197.0,6259221.0,0.0
1578392198574,5328209.0,6241947.0,0.0
1578392198624,5336848.0,6243620.0,0.0
1578392198673,5358675.0,6334954.0,0.0
1578392198718,5390210.0,6411342.0,0.0
1578392198764,5394198.0,6454131.0,0.0
1578392198813,5388850.0,6506406.0,0.0
1578392198862,5388505.0,6498118.0,0.0
1578392198910,5380693.0,6466871.0,0.0
1578392198961,5370329.0,6437676.0,0.0
1578392199011,5370300.0,6416377.0,0.0
1578392199059,5380837.0,6419677.0,0.0
1578392199106,5376099.0,6422918.0,0.0
1578392199155,5368712.0,6425625.0,0.0
1578392199205,5368864.0,6430720.0,0.0
1578392199254,5366899.0,6440014.0,0.0
1578392199303,5359301.0,6419274.0,0.0
1578392199351,5360503.0,6389640.0,0.0
1578392199399,5339680.0,6356313.0,0.0
1578392199450,5347462.0,6340499.0,0.0
1578392199499,5356218.0,6383929.0,0.0
1578392199547,5347569.0,6379976.0,0.0
1578392199597,5343234.0,6385318.0,0.0
1578392199645,5314482.0,6323048.0,0.0
1578392199693,5320059.0,6346389.0,0.0
1578392199745,5337244.0,6395195.0,0.0
1578392199792,5300642.0,6321480.0,0.0
1578392199848,5322420.0,6318986.0,0.0
1578392199894,5295297.0,6266094.0,0.0
1578392199944,5287253.0,6238254.0,0.0
1578392199986,5277458.0,6215210.0,0.0
1578392200041,5279036.0,6242658.0,0.0
1578392200091,5302983.0,6366037.0,0.0
1578392200133,5299649.0,6426301.0,0.0
1578392200189,5344650.0,6527336.0,0.0
1578392200233,5369732.0,6591400.0,0.0
1578392200289,5365205.0,6588456.0,0.0
1578392200335,5365071.0,6603748.0,0.0
1578392200380,5369770.0,6590272.0,0.0
1578392200434,5372216.0,6576275.0,0.0
1578392200483,5378708.0,6559415.0,0.0
1578392200532,5373836.0,6554336.0,0.0
1578392200574,5381782.0,6577580.0,0.0
1578392200630,5378555.0,6538924.0,0.0
1578392200677,5362460.0,6507272.0,0.0
1578392200728,5358212.0,6488430.0,0.0
1578392200776,5346393.0,6463059.0,0.0
1578392200825,5338563.0,6446841.0,0.0
1578392200877,5333881.0,6441806.0,0.0
1578392200916,5317757.0,6414869.0,0.0
1578392200972,5347665.0,6435076.0,0.0
1578392201014,5344418.0,6446498.0,0.0
1578392201071,5340200.0,6462869.0,0.0
1578392201114,5349004.0,6495114.0,0.0
1578392201161,5336395.0,6462193.0,0.0
1578392201217,5320868.0,6439861.0,0.0
1578392201265,5316313.0,6433081.0,0.0
1578392201315,5318924.0,6424759.0,0.0
1578392201361,5298494.0,6392727.0,0.0
1578392201406,5278055.0,6365324.0,0.0
1578392201455,5280520.0,6358357.0,0.0
1578392201510,5281271.0,6358058.0,0.0
1578392201555,5272872.0,6337614.0,0.0
1578392201609,5260157.0,6305203.0,0.0
1578392201656,5253349.0,6281873.0,0.0
1578392201709,5254523.0,6272258.0,0.0
1578392201756,5260824.0,6286907.0,0.0
1578392201803,5255419.0,6290670.0,0.0
1578392201854,5261834.0,6306912.0,0.0
1578392201896,5260139.0,6304989.0,0.0
1578392201951,5265292.0,6326348.0,0.0
1578392201994,5266468.0,6298412.0,0.0
1578392202043,5254871.0,6280211.0,0.0
1578392202096,5245893.0,6265026.0,0.0
1578392202147,5249544.0,6254709.0,0.0
1578392202197,5226861.0,6251302.0,0.0
1578392202246,5226398.0,6244652.0,0.0
1578392202296,5223895.0,6242717.0,0.0
1578392202342,5219405.0,6233730.0,0.0
1578392202386,5213232.0,6201021.0,0.0
1578392202435,5203667.0,6179200.0,0.0
1578392202484,5183449.0,6149828.0,0.0
1578392202537,5166738.0,6122771.0,0.0
1578392202588,5165563.0,6148226.0,0.0
1578392202639,5169011.0,6178903.0,0.0
1578392202688,5176909.0,6189815.0,0.0
1578392202736,5192389.0,6197378.0,0.0
1578392202776,5182390.0,6190717.0,0.0
1578392202833,5216449.0,6250412.0,0.0
1578392202880,5204756.0,6209998.0,0.0
1578392202931,5183845.0,6193804.0,0.0
1578392202976,5170696.0,6175293.0,0.0
1578392203030,5164637.0,6167648.0,0.0
1578392203071,5168713.0,6180068.0,0.0
1578392203119,5160515.0,6190491.0,0.0
1578392203178,5152491.0,6153580.0,0.0
1578392203224,5204985.0,6219317.0,0.0
1578392203274,5209108.0,6223106.0,0.0
1578392203318,5210611.0,6227249.0,0.0
1578392203372,5215784.0,6244345.0,0.0
1578392203424,5207403.0,6235820.0,0.0
1578392203469,5208685.0,6242361.0,0.0
1578392203519,5215581.0,6256989.0,0.0
1578392203567,5229403.0,6273610.0,0.0
1578392203617,5229606.0,6272174.0,0.0
1578392203663,5231301.0,6265845.0,0.0
1578392203714,5231754.0,6277100.0,0.0
1578392203755,5229181.0,6265442.0,0.0
1578392203813,5220118.0,6249617.0,0.0
1578392203858,5202241.0,6238931.0,0.0
1578392203910,5164233.0,6160738.0,0.0
1578392203960,5208618.0,6247645.0,0.0
1578392204007,5214839.0,6288533.0,0.0
1578392204057,5221148.0,6313870.0,0.0
1578392204104,5228932.0,6343682.0,0.0
1578392204155,5233121.0,6341864.0,0.0
1578392204198,5226658.0,6307161.0,0.0
1578392204253,5230675.0,6258235.0,0.0
1578392204298,5235683.0,6266997.0,0.0
1578392204350,5237071.0,6290254.0,0.0
1578392204401,5217633.0,6264492.0,0.0
1578392204448,5203744.0,6257073.0,0.0
1578392204497,5205699.0,6264136.0,0.0
1578392204542,5202830.0,6258152.0,0.0
1578392204596,5199833.0,6250899.0,0.0
1578392204637,5236540.0,6278455.0,0.0
1578392204685,5252425.0,6291882.0,0.0
1578392204737,5266371.0,6291276.0,0.0
1578392204791,5256277.0,6306378.0,0.0
1578392204842,5260793.0,6321064.0,0.0
1578392204882,5240114.0,6303362.0,0.0
1578392204939,5248408.0,6334717.0,0.0
1578392204980,5252723.0,6342043.0,0.0
1578392205034,5251346.0,6332200.0,0.0
1578392205079,5262990.0,6314641.0,0.0
1578392205136,5247993.0,6311982.0,0.0
1578392205181,5225425.0,6295622.0,0.0
1578392205233,5210861.0,6296155.0,0.0
1578392205280,5219204.0,6303671.0,0.0
1578392205329,5224009.0,6319176.0,0.0
1578392205380,5228865.0,6318050.0,0.0
1578392205425,5230935.0,6320471.0,0.0
1578392205477,5261710.0,6328377.0,0.0
1578392205519,5276389.0,6343479.0,0.0
1578392205576,5255680.0,6311827.0,0.0
1578392205620,5247934.0,6326216.0,0.0
1578392205674,5249716.0,6344454.0,0.0
1578392205720,5238072.0,6339869.0,0.0
1578392205772,5220051.0,6310344.0,0.0
1578392205821,5215128.0,6296561.0,0.0
1578392205868,5224760.0,6307293.0,0.0
1578392205919,5181224.0,6229277.0,0.0
1578392205960,5160179.0,6208407.0,0.0
1578392206008,5132188.0,6181410.0,0.0
1578392206063,5130975.0,6184341.0,0.0
1578392206106,5138535.0,6198873.0,0.0
1578392206158,5146906.0,6198944.0,0.0
1578392206203,5151711.0,6206353.0,0.0
1578392206253,5154564.0,6195716.0,0.0
1578392206301,5175956.0,6229789.0,0.0
1578392206355,5178219.0,6216789.0,0.0
1578392206400,5182264.0,6224578.0,0.0
1578392206453,5176677.0,6222286.0,0.0
1578392206499,5168808.0,6228198.0,0.0
1578392206554,5151865.0,6240806.0,0.0
1578392206601,5166073.0,6275129.0,0.0
1578392206653,5219260.0,6429032.0,0.0
1578392206702,5201664.0,6329542.0,0.0
1578392206746,5191300.0,6287549.0,0.0
1578392206800,5159206.0,6233612.0,0.0
1578392206842,5134441.0,6182062.0,0.0
1578392206894,5121121.0,6152132.0,0.0
1578392206942,5119002.0,6143298.0,0.0
1578392206992,5126775.0,6154517.0,0.0
1578392207043,5125331.0,6127556.0,0.0
1578392207085,5140827.0,6170082.0,0.0
1578392207136,5140981.0,6172563.0,0.0
1578392207185,5144401.0,6182560.0,0.0
1578392207235,5140423.0,6176861.0,0.0
1578392207282,5131946.0,6171660.0,0.0
1578392207337,5120918.0,6162459.0,0.0
1578392207386,5117673.0,6143180.0,0.0
1578392207427,5112693.0,6129134.0,0.0
1578392207481,5097878.0,6115848.0,0.0
1578392207524,5105700.0,6130476.0,0.0
1578392207584,5092110.0,6113949.0,0.0
1578392207624,5078422.0,6071008.0,0.0
1578392207700,5055536.0,6039259.0,0.0
1578392207726,5054766.0,6032908.0,0.0
1578392207823,5060555.0,6027387.0,0.0
1578392207824,5074145.0,6023221.0,0.0
1578392207882,5071825.0,6021973.0,0.0
1578392207926,5060315.0,6029809.0,0.0
1578392207971,5057627.0,6044851.0,0.0
1578392208022,5057848.0,6050468.0,0.0
1578392208067,5045924.0,6003204.0,0.0
1578392208119,5025456.0,5956484.0,0.0
1578392208163,5022730.0,5943722.0,0.0
1578392208215,5018298.0,5933166.0,0.0
1578392208263,4982968.0,5862515.0,0.0
1578392208314,4977200.0,5858668.0,0.0
1578392208366,4985790.0,5868972.0,0.0
1578392208411,4999633.0,5896635.0,0.0
1578392208460,5009188.0,5912913.0,0.0
1578392208509,5004121.0,5886295.0,0.0
1578392208560,5004237.0,5842331.0,0.0
1578392208603,5004458.0,5841512.0,0.0
1578392208657,4999084.0,5845678.0,0.0
1578392208699,4991339.0,5863974.0,0.0
1578392208754,4985118.0,5882888.0,0.0
1578392208804,4980658.0,5889501.0,0.0
1578392208852,4990693.0,5891626.0,0.0
1578392208900,4976400.0,5844017.0,0.0
1578392208951,4957397.0,5790841.0,0.0
1578392208999,4932228.0,5754523.0,0.0
1578392209048,4931949.0,5775217.0,0.0
1578392209097,4955692.0,5852482.0,0.0
1578392209141,4994488.0,6007383.0,0.0
1578392209194,5040087.0,6133930.0,0.0
1578392209244,5067365.0,6197804.0,0.0
1578392209288,5073895.0,6143084.0,0.0
1578392209342,5078970.0,6142408.0,0.0
1578392209385,5071150.0,6135165.0,0.0
1578392209433,5059919.0,6144889.0,0.0
1578392209487,5057483.0,6162722.0,0.0
1578392209538,5063732.0,6181160.0,0.0
1578392209580,5069379.0,6166841.0,0.0
1578392209635,5076467.0,6146564.0,0.0
1578392209686,5084875.0,6150054.0,0.0
1578392209733,5104670.0,6225017.0,0.0
1578392209782,5116893.0,6317527.0,0.0
1578392209831,5146105.0,6419404.0,0.0
1578392209884,5174154.0,6487325.0,0.0
1578392209924,5195808.0,6514978.0,0.0
1578392209979,5208752.0,6525937.0,0.0
1578392210024,5240490.0,6543886.0,0.0
1578392210076,5257472.0,6565009.0,0.0
1578392210128,5263394.0,6533606.0,0.0
1578392210173,5258049.0,6466455.0,0.0
1578392210223,5251529.0,6433034.0,0.0
1578392210271,5246886.0,6414227.0,0.0
1578392210321,5245181.0,6394163.0,0.0
1578392210368,5255285.0,6418216.0,0.0
1578392210419,5268075.0,6442816.0,0.0
1578392210463,5258916.0,6457561.0,0.0
1578392210516,5270985.0,6481664.0,0.0
1578392210569,5283602.0,6486862.0,0.0
1578392210614,5282582.0,6487219.0,0.0
1578392210664,5303925.0,6509220.0,0.0
1578392210711,5319462.0,6537073.0,0.0
1578392210761,5335990.0,6538581.0,0.0
1578392210809,5353502.0,6575229.0,0.0
1578392210851,5352663.0,6563726.0,0.0
1578392210904,5349158.0,6570754.0,0.0
1578392210952,5344526.0,6573913.0,0.0
1578392211008,5338823.0,6534888.0,0.0
1578392211054,5325502.0,6490745.0,0.0
1578392211104,5325242.0,6491731.0,0.0
1578392211152,5336194.0,6521591.0,0.0
1578392211202,5327967.0,6530246.0,0.0
1578392211248,5335076.0,6541988.0,0.0
1578392211299,5340288.0,6554905.0,0.0
1578392211344,5336250.0,6545431.0,0.0
1578392211389,5322130.0,6502890.0,0.0
1578392211445,5313182.0,6462905.0,0.0
1578392211494,5331541.0,6457467.0,0.0
1578392211543,5352549.0,6501418.0,0.0
1578392211591,5347443.0,6494984.0,0.0
1578392211642,5349313.0,6499010.0,0.0
1578392211688,5350477.0,6524819.0,0.0
1578392211740,5361978.0,6526220.0,0.0
1578392211786,5364924.0,6506240.0,0.0
1578392211831,5368259.0,6499733.0,0.0
1578392211892,5364463.0,6492183.0,0.0
1578392211934,5348051.0,6475692.0,0.0
1578392211985,5355410.0,6490485.0,0.0
1578392212033,5362816.0,6502380.0,0.0
1578392212081,5355562.0,6491803.0,0.0
1578392212123,5333717.0,6470681.0,0.0
1578392212174,5331185.0,6438555.0,0.0
1578392212225,5386829.0,6497655.0,0.0
1578392212273,5380268.0,6465469.0,0.0
1578392212324,5377997.0,6472546.0,0.0
1578392212370,5380124.0,6485154.0,0.0
1578392212417,5377948.0,6489452.0,0.0
1578392212473,5374384.0,6480381.0,0.0
1578392212521,5368730.0,6447364.0,0.0
1578392212565,5386587.0,6461160.0,0.0
1578392212620,5383525.0,6449405.0,0.0
1578392212664,5368200.0,6417303.0,0.0
1578392212712,5361690.0,6417932.0,0.0
1578392212771,5360205.0,6418323.0,0.0
1578392212814,5358472.0,6411579.0,0.0
1578392212858,5354504.0,6401928.0,0.0
1578392212909,5342502.0,6401642.0,0.0
1578392212956,5389005.0,6454903.0,0.0
1578392213007,5411437.0,6473875.0,0.0
1578392213055,5416842.0,6479846.0,0.0
1578392213107,5424278.0,6470990.0,0.0
1578392213153,5421590.0,6471630.0,0.0
1578392213208,5417833.0,6451982.0,0.0
1578392213255,5430586.0,6447684.0,0.0
1578392213304,5443533.0,6468650.0,0.0
1578392213354,5461333.0,6505277.0,0.0
1578392213402,5448214.0,6500136.0,0.0
1578392213445,5453606.0,6522517.0,0.0
1578392213502,5460561.0,6514621.0,0.0
1578392213547,5455465.0,6511381.0,0.0
1578392213598,5462074.0,6543982.0,0.0
1578392213649,5463970.0,6571586.0,0.0
1578392213695,5501391.0,6593574.0,0.0
1578392213744,5538917.0,6640659.0,0.0
1578392213794,5539061.0,6622080.0,0.0
1578392213842,5543925.0,6609625.0,0.0
1578392213886,5536306.0,6601943.0,0.0
1578392213940,5535932.0,6583398.0,0.0
1578392213989,5531213.0,6548089.0,0.0
1578392214032,5528582.0,6537107.0,0.0
1578392214091,5544775.0,6587601.0,0.0
1578392214136,5534833.0,6563677.0,0.0
1578392214185,5522322.0,6556294.0,0.0
1578392214234,5527889.0,6570933.0,0.0
1578392214284,5531857.0,6586722.0,0.0
1578392214331,5528216.0,6559701.0,0.0
1578392214383,5498695.0,6516699.0,0.0
1578392214427,5503492.0,6526007.0,0.0
1578392214481,5534323.0,6548825.0,0.0
1578392214531,5545949.0,6548209.0,0.0
1578392214577,5543887.0,6546724.0,0.0
1578392214626,5538860.0,6566647.0,0.0
1578392214675,5539929.0,6582105.0,0.0
1578392214725,5535613.0,6546630.0,0.0
1578392214771,5523535.0,6490045.0,0.0
1578392214822,5522592.0,6493299.0,0.0
1578392214866,5495968.0,6459532.0,0.0
1578392214923,5476569.0,6431323.0,0.0
1578392214972,5474653.0,6439232.0,0.0
1578392215019,5476270.0,6457811.0,0.0
1578392215067,5475636.0,6457397.0,0.0
1578392215115,5462574.0,6434376.0,0.0
1578392215160,5463740.0,6401216.0,0.0
1578392215209,5464992.0,6366630.0,0.0
1578392215263,5449465.0,6364768.0,0.0
1578392215306,5440258.0,6377339.0,0.0
1578392215361,5429806.0,6388322.0,0.0
1578392215408,5426734.0,6387776.0,0.0
1578392215453,5429065.0,6366880.0,0.0
1578392215507,5448974.0,6426824.0,0.0
1578392215557,5438715.0,6407733.0,0.0
1578392215605,5409897.0,6348228.0,0.0
1578392215654,5387715.0,6321194.0,0.0
1578392215703,5383245.0,6321243.0,0.0
1578392215751,5380211.0,6319010.0,0.0
1578392215803,5372497.0,6312113.0,0.0
1578392215852,5383332.0,6332379.0,0.0
1578392215899,5389131.0,6306937.0,0.0
1578392215947,5391876.0,6324744.0,0.0
1578392215997,5379825.0,6322466.0,0.0
1578392216046,5357383.0,6292558.0,0.0
1578392216094,5330153.0,6252844.0,0.0
1578392216139,5313761.0,6231381.0,0.0
1578392216188,5302491.0,6221858.0,0.0
1578392216236,5306662.0,6244462.0,0.0
1578392216290,5281657.0,6196665.0,0.0
1578392216337,5262624.0,6179093.0,0.0
1578392216385,5238139.0,6135569.0,0.0
1578392216432,5187870.0,6051168.0,0.0
1578392216486,5143129.0,5990440.0,0.0
1578392216529,5112076.0,5954158.0,0.0
1578392216584,5133949.0,5984349.0,0.0
1578392216629,5131292.0,5975302.0,0.0
1578392216682,5132255.0,5986510.0,0.0
1578392216734,5134374.0,6004093.0,0.0
1578392216782,5141820.0,6044947.0,0.0
1578392216828,5138381.0,6057745.0,0.0
1578392216878,5118886.0,6021083.0,0.0
1578392216926,5105257.0,5984113.0,0.0
1578392216973,5104572.0,5988979.0,0.0
1578392217025,5070852.0,5941075.0,0.0
1578392217068,5045644.0,5918897.0,0.0
1578392217123,5051164.0,5942071.0,0.0
1578392217175,5053139.0,5965414.0,0.0
1578392217220,5061662.0,5973747.0,0.0
1578392217268,5041338.0,5932930.0,0.0
1578392217319,5046676.0,5914491.0,0.0
1578392217367,5042371.0,5897917.0,0.0
1578392217416,5041483.0,5895639.0,0.0
1578392217459,5035367.0,5914515.0,0.0
1578392217510,5041657.0,5956497.0,0.0
1578392217564,5043035.0,5982071.0,0.0
1578392217615,5044796.0,5980787.0,0.0
1578392217662,5051934.0,5955464.0,0.0
1578392217709,5065776.0,6014150.0,0.0
1578392217759,5018435.0,5930449.0,0.0
1578392217807,4973675.0,5863191.0,0.0
1578392217857,4948439.0,5833024.0,0.0
1578392217899,4947476.0,5840859.0,0.0
1578392217952,4951791.0,5841536.0,0.0
1578392217996,4959101.0,5846961.0,0.0
1578392218048,4976871.0,5869815.0,0.0
1578392218096,4986120.0,5856697.0,0.0
1578392218143,4977123.0,5845538.0,0.0
1578392218193,4958841.0,5839114.0,0.0
1578392218248,4949315.0,5837809.0,0.0
1578392218297,4950123.0,5855225.0,0.0
1578392218345,4956395.0,5877260.0,0.0
1578392218389,4959784.0,5897395.0,0.0
1578392218440,4967259.0,5924691.0,0.0
1578392218490,4963098.0,5887980.0,0.0
1578392218537,4944229.0,5844113.0,0.0
1578392218590,4927451.0,5819537.0,0.0
1578392218640,4911134.0,5800802.0,0.0
1578392218687,4919186.0,5819976.0,0.0
1578392218738,4933296.0,5841939.0,0.0
1578392218786,4946878.0,5870694.0,0.0
1578392218829,4972990.0,5915560.0,0.0
1578392218887,4968281.0,5894094.0,0.0
1578392218934,4993149.0,5906798.0,0.0
1578392218983,4960392.0,5849218.0,0.0
1578392219031,4953725.0,5851603.0,0.0
1578392219081,4957886.0,5880038.0,0.0
1578392219127,4953390.0,5885286.0,0.0
1578392219178,4945568.0,5883848.0,0.0
1578392219226,4944268.0,5866408.0,0.0
1578392219270,4957811.0,5908650.0,0.0
1578392219323,4904035.0,5787159.0,0.0
1578392219378,4850058.0,5676627.0,0.0
1578392219423,4806462.0,5599765.0,0.0
1578392219465,4795560.0,5592132.0,0.0
1578392219522,4801552.0,5591586.0,0.0
1578392219568,4819831.0,5616409.0,0.0
1578392219618,4842892.0,5655234.0,0.0
1578392219665,4856029.0,5675701.0,0.0
1578392219714,4884337.0,5722775.0,0.0
1578392219761,4885658.0,5698152.0,0.0
1578392219813,4884809.0,5706438.0,0.0
1578392219859,4888884.0,5735788.0,0.0
1578392219908,4893064.0,5742745.0,0.0
1578392219958,4901262.0,5773862.0,0.0
1578392220003,4915882.0,5788987.0,0.0
1578392220055,4942996.0,5842534.0,0.0
1578392220102,4929936.0,5795424.0,0.0
1578392220153,4913080.0,5758120.0,0.0
1578392220202,4922384.0,5755057.0,0.0
1578392220250,4935541.0,5782244.0,0.0
1578392220300,4982497.0,5918244.0,0.0
1578392220352,5033209.0,6019065.0,0.0
1578392220397,5101886.0,6112347.0,0.0
1578392220446,5154842.0,6173026.0,0.0
1578392220497,5196029.0,6237518.0,0.0
1578392220544,5229220.0,6295289.0,0.0
1578392220595,5257327.0,6334813.0,0.0
1578392220646,5272718.0,6359413.0,0.0
1578392220695,5284691.0,6381459.0,0.0
1578392220757,5301325.0,6399185.0,0.0
1578392220806,5308915.0,6411959.0,0.0
1578392220839,5316630.0,6423441.0,0.0
1578392220895,5330472.0,6460838.0,0.0
1578392220940,5338177.0,6472260.0,0.0
1578392220991,5348705.0,6491684.0,0.0
1578392221033,5346133.0,6496362.0,0.0
1578392221090,5351344.0,6503603.0,0.0
1578392221134,5364983.0,6512413.0,0.0
1578392221188,5380307.0,6542082.0,0.0
1578392221237,5387771.0,6568439.0,0.0
1578392221287,5390807.0,6572381.0,0.0
1578392221335,5380693.0,6559997.0,0.0
1578392221376,5371611.0,6537179.0,0.0
1578392221432,5365388.0,6502617.0,0.0
1578392221474,5371524.0,6490901.0,0.0
1578392221530,5371822.0,6510276.0,0.0
1578392221575,5360341.0,6490769.0,0.0
1578392221629,5359203.0,6459509.0,0.0
1578392221678,5332947.0,6422692.0,0.0
1578392221739,5329643.0,6413350.0,0.0
1578392221775,5327187.0,6415581.0,0.0
1578392221816,5321658.0,6395078.0,0.0
1578392221869,5303098.0,6315402.0,0.0
1578392221917,5265158.0,6188211.0,0.0
1578392221965,5228816.0,6098907.0,0.0
1578392222015,5220888.0,6069486.0,0.0
1578392222063,5213289.0,6061390.0,0.0
1578392222117,5210938.0,6074058.0,0.0
1578392222159,5198947.0,6074937.0,0.0
1578392222212,5206133.0,6109164.0,0.0
1578392222266,5217653.0,6138762.0,0.0
1578392222314,5197964.0,6050668.0,0.0
1578392222356,5164590.0,5962218.0,0.0
1578392222404,5137495.0,5919786.0,0.0
1578392222455,5131745.0,5887933.0,0.0
1578392222508,5110536.0,5839411.0,0.0
1578392222558,5080291.0,5773815.0,0.0
1578392222605,5092360.0,5813350.0,0.0
1578392222656,5100942.0,5827027.0,0.0
1578392222703,5083989.0,5766299.0,0.0
1578392222750,5061469.0,5727121.0,0.0
1578392222808,5049498.0,5723345.0,0.0
1578392222852,5052580.0,5731633.0,0.0
1578392222900,5048669.0,5742306.0,0.0
1578392222950,5062790.0,5781971.0,0.0
1578392222998,5068290.0,5789393.0,0.0
1578392223039,5082101.0,5796716.0,0.0
1578392223097,5068529.0,5751138.0,0.0
1578392223144,5034693.0,5654545.0,0.0
1578392223194,5014861.0,5610011.0,0.0
1578392223241,5001790.0,5593614.0,0.0
1578392223292,4997946.0,5605593.0,0.0
1578392223337,4996425.0,5604407.0,0.0
1578392223409,4999950.0,5598293.0,0.0
1578392223430,5014408.0,5631547.0,0.0
1578392223481,5009698.0,5637235.0,0.0
1578392223535,4997967.0,5603848.0,0.0
1578392223576,4961576.0,5535451.0,0.0
1578392223627,4921150.0,5490658.0,0.0
1578392223680,4909921.0,5490632.0,0.0
1578392223727,4906376.0,5536817.0,0.0
1578392223784,4916652.0,5554745.0,0.0
1578392223827,4898661.0,5527805.0,0.0
1578392223871,4882931.0,5502077.0,0.0
1578392223925,4876602.0,5479865.0,0.0
1578392223973,4848093.0,5426724.0,0.0
1578392224022,4807080.0,5357211.0,0.0
1578392224072,4782730.0,5339057.0,0.0
1578392224117,4770045.0,5330508.0,0.0
1578392224165,4758294.0,5302455.0,0.0
1578392224225,4746918.0,5305056.0,0.0
1578392224271,4739742.0,5306801.0,0.0
1578392224317,4740398.0,5324584.0,0.0
1578392224365,4723772.0,5302408.0,0.0
1578392224413,4673753.0,5233653.0,0.0
1578392224464,4631970.0,5196029.0,0.0
1578392224512,4627886.0,5226139.0,0.0
1578392224558,4615115.0,5213922.0,0.0
1578392224608,4575055.0,5167773.0,0.0
1578392224656,4575083.0,5177425.0,0.0
1578392224707,4569045.0,5184704.0,0.0
1578392224761,4564335.0,5172522.0,0.0
1578392224808,4537827.0,5146011.0,0.0
1578392224852,4497798.0,5102997.0,0.0
1578392224900,4462707.0,5054380.0,0.0
1578392224953,4455040.0,5066536.0,0.0
1578392225002,4450657.0,5090389.0,0.0
1578392225048,4450657.0,5104172.0,0.0
1578392225101,4453701.0,5119214.0,0.0
1578392225147,4448914.0,5119940.0,0.0
1578392225197,4449598.0,5124320.0,0.0
1578392225240,4441990.0,5140930.0,0.0
1578392225302,4425943.0,5129414.0,0.0
1578392225342,4376868.0,5091671.0,0.0
1578392225393,4384688.0,5110596.0,0.0
1578392225440,4391316.0,5136002.0,0.0
1578392225485,4407978.0,5164806.0,0.0
1578392225541,4424478.0,5191613.0,0.0
1578392225588,4438030.0,5222054.0,0.0
1578392225638,4439466.0,5217875.0,0.0
1578392225686,4409886.0,5180405.0,0.0
1578392225738,4379178.0,5176036.0,0.0
1578392225780,4370212.0,5183398.0,0.0
1578392225833,4370694.0,5192646.0,0.0
1578392225883,4372821.0,5209696.0,0.0
1578392225930,4378918.0,5217591.0,0.0
1578392225982,4387086.0,5227505.0,0.0
1578392226021,4396757.0,5249184.0,0.0
1578392226078,4370125.0,5209410.0,0.0
1578392226127,4338830.0,5189369.0,0.0
1578392226176,4330942.0,5192420.0,0.0
1578392226219,4338822.0,5212746.0,0.0
1578392226274,4349984.0,5234711.0,0.0
1578392226322,4358914.0,5237002.0,0.0
1578392226370,4375220.0,5233819.0,0.0
1578392226423,4410800.0,5277380.0,0.0
1578392226468,4437597.0,5308925.0,0.0
1578392226518,4443713.0,5307061.0,0.0
1578392226568,4446457.0,5302299.0,0.0
1578392226615,4450657.0,5312985.0,0.0
1578392226665,4465828.0,5327921.0,0.0
1578392226715,4473967.0,5346336.0,0.0
1578392226764,4494973.0,5362980.0,0.0
1578392226813,4498037.0,5368667.0,0.0
1578392226860,4497883.0,5372906.0,0.0
1578392226903,4509066.0,5387925.0,0.0
1578392226955,4499646.0,5373736.0,0.0
1578392227006,4494435.0,5367978.0,0.0
1578392227056,4490678.0,5354348.0,0.0
1578392227100,4488801.0,5347748.0,0.0
1578392227154,4488106.0,5344864.0,0.0
1578392227202,4489234.0,5341753.0,0.0
1578392227254,4501245.0,5352117.0,0.0
1578392227310,4508546.0,5363716.0,0.0
1578392227350,4509442.0,5367955.0,0.0
1578392227400,4503007.0,5348364.0,0.0
1578392227448,4492576.0,5327054.0,0.0
1578392227492,4480747.0,5318720.0,0.0
1578392227540,4476993.0,5307214.0,0.0
1578392227595,4479967.0,5305612.0,0.0
