"1573151928655","4030778.0"
"1573151928713","3979105.0"
"1573151928793","3921314.0"
"1573151928861","3859929.0"
"1573151928863","3818487.0"
"1573151928957","3744245.0"
"1573151928957","3680621.0"
"1573151928995","3627975.0"
"1573151929048","3572648.0"
"1573151929096","3533673.0"
"1573151929146","3426637.0"
"1573151929193","3398408.0"
"1573151929239","3356277.0"
"1573151929289","3321118.0"
"1573151929339","3298074.0"
"1573151929387","3310238.0"
"1573151929438","3328509.0"
"1573151929484","3291119.0"
"1573151929535","3226817.0"
"1573151929587","3178587.0"
"1573151929633","3129864.0"
"1573151929679","3104058.0"
"1573151929729","3057145.0"
"1573151929778","3009361.0"
"1573151929826","2991148.0"
"1573151929878","2976568.0"
"1573151929926","2971198.0"
"1573151929974","2975260.0"
"1573151930022","2944822.0"
"1573151930072","2889874.0"
"1573151930120","2852904.0"
"1573151930168","2836595.0"
"1573151930219","2819187.0"
"1573151930267","2781151.0"
"1573151930316","2764885.0"
"1573151930367","2769046.0"
"1573151930413","2788929.0"
"1573151930462","2798340.0"
"1573151930511","2798457.0"
"1573151930560","2767234.0"
"1573151930612","2743938.0"
"1573151930658","2701765.0"
"1573151930708","2674241.0"
"1573151930753","2646280.0"
"1573151930803","2609828.0"
"1573151930852","2625972.0"
"1573151930901","2640331.0"
"1573151930949","2645571.0"
"1573151930999","2651958.0"
"1573151931051","2646645.0"
"1573151931096","2638636.0"
"1573151931144","2643911.0"
"1573151931195","2648598.0"
"1573151931242","2618071.0"
"1573151931291","2595659.0"
"1573151931343","2594592.0"
"1573151931389","2605649.0"
"1573151931442","2625893.0"
"1573151931491","2644065.0"
"1573151931539","2643864.0"
"1573151931591","2603253.0"
"1573151931639","2595285.0"
"1573151931685","2592371.0"
"1573151931735","2586156.0"
"1573151931783","2563045.0"
"1573151931830","2549040.0"
"1573151931876","2550788.0"
"1573151931930","2568899.0"
"1573151931979","2594104.0"
"1573151932027","2599659.0"
"1573151932079","2597052.0"
"1573151932126","2590311.0"
"1573151932168","2597713.0"
"1573151932218","2595439.0"
"1573151932269","2589952.0"
"1573151932315","2583076.0"
"1573151932363","2576715.0"
"1573151932416","2579009.0"
"1573151932462","2577408.0"
"1573151932512","2590837.0"
"1573151932560","2598420.0"
"1573151932618","2595372.0"
"1573151932662","2587243.0"
"1573151932710","2575847.0"
"1573151932760","2564270.0"
"1573151932807","2566771.0"
"1573151932858","2578488.0"
"1573151932902","2595352.0"
"1573151932957","2593105.0"
"1573151933004","2591164.0"
"1573151933054","2581109.0"
"1573151933096","2575687.0"
"1573151933149","2584149.0"
"1573151933192","2584315.0"
"1573151933239","2578722.0"
"1573151933290","2576461.0"
"1573151933340","2584563.0"
"1573151933391","2593058.0"
"1573151933437","2600734.0"
"1573151933485","2613603.0"
"1573151933540","2604200.0"
"1573151933593","2595059.0"
"1573151933634","2584602.0"
"1573151933685","2573153.0"
"1573151933732","2561911.0"
"1573151933783","2545540.0"
"1573151933834","2546366.0"
"1573151933874","2562023.0"
"1573151933923","2581083.0"
"1573151933972","2608296.0"
"1573151934020","2620192.0"
"1573151934070","2611397.0"
"1573151934126","2584563.0"
"1573151934175","2566213.0"
"1573151934222","2552175.0"
"1573151934266","2545166.0"
"1573151934320","2541673.0"
"1573151934368","2547801.0"
"1573151934420","2554922.0"
"1573151934466","2576902.0"
"1573151934515","2581428.0"
"1573151934560","2583389.0"
"1573151934614","2574526.0"
"1573151934664","2556456.0"
"1573151934709","2535958.0"
"1573151934760","2513219.0"
"1573151934802","2510577.0"
"1573151934853","2525509.0"
"1573151934905","2536045.0"
"1573151934958","2549028.0"
"1573151935003","2558403.0"
"1573151935053","2559209.0"
"1573151935097","2554408.0"
"1573151935148","2556544.0"
"1573151935200","2557482.0"
"1573151935246","2540072.0"
"1573151935296","2518706.0"
"1573151935339","2507030.0"
"1573151935393","2521287.0"
"1573151935442","2524515.0"
"1573151935491","2517906.0"
"1573151935540","2522774.0"
"1573151935593","2547868.0"
"1573151935633","2564392.0"
"1573151935686","2598993.0"
"1573151935736","2656881.0"
"1573151935784","2643858.0"
"1573151935832","2614009.0"
"1573151935882","2599753.0"
"1573151935928","2600407.0"
"1573151935979","2613924.0"
"1573151936026","2608702.0"
"1573151936073","2594785.0"
"1573151936126","2580949.0"
"1573151936167","2574748.0"
"1573151936222","2566751.0"
"1573151936271","2565424.0"
"1573151936315","2568799.0"
"1573151936368","2561517.0"
"1573151936421","2545347.0"
"1573151936467","2550469.0"
"1573151936514","2552135.0"
"1573151936559","2555115.0"
"1573151936614","2547228.0"
"1573151936663","2531730.0"
"1573151936709","2509511.0"
"1573151936756","2500896.0"
"1573151936807","2521593.0"
"1573151936859","2554055.0"
"1573151936905","2568691.0"
"1573151936954","2558709.0"
"1573151937004","2529804.0"
"1573151937052","2519326.0"
"1573151937102","2522595.0"
"1573151937151","2523656.0"
"1573151937197","2513672.0"
"1573151937241","2506510.0"
"1573151937299","2500610.0"
"1573151937340","2536565.0"
"1573151937394","2559930.0"
"1573151937443","2562870.0"
"1573151937491","2546787.0"
"1573151937535","2519901.0"
"1573151937590","2504356.0"
"1573151937639","2501428.0"
"1573151937687","2491400.0"
"1573151937736","2484378.0"
"1573151937780","2497115.0"
"1573151937833","2514572.0"
"1573151937882","2534511.0"
"1573151937930","2552754.0"
"1573151937977","2563825.0"
"1573151938022","2551468.0"
"1573151938080","2524795.0"
"1573151938128","2512099.0"
"1573151938175","2500542.0"
"1573151938219","2494900.0"
"1573151938265","2493013.0"
"1573151938317","2502670.0"
"1573151938366","2523641.0"
"1573151938418","2529737.0"
"1573151938462","2528670.0"
"1573151938513","2516780.0"
"1573151938562","2498562.0"
"1573151938616","2464788.0"
"1573151938661","2449783.0"
"1573151938711","2440968.0"
"1573151938760","2454237.0"
"1573151938809","2479557.0"
"1573151938857","2500356.0"
"1573151938907","2514005.0"
"1573151938956","2528036.0"
"1573151939004","2532571.0"
"1573151939055","2537591.0"
"1573151939103","2537951.0"
"1573151939151","2519200.0"
"1573151939202","2494628.0"
"1573151939247","2484325.0"
"1573151939296","2479331.0"
"1573151939341","2487779.0"
"1573151939389","2496642.0"
"1573151939439","2503870.0"
"1573151939486","2497895.0"
"1573151939545","2501162.0"
"1573151939593","2504443.0"
"1573151939642","2502830.0"
"1573151939687","2480664.0"
"1573151939736","2456892.0"
"1573151939781","2467508.0"
"1573151939833","2484691.0"
"1573151939881","2497129.0"
"1573151939931","2504890.0"
"1573151939983","2513212.0"
"1573151940031","2519633.0"
"1573151940075","2525929.0"
"1573151940124","2536578.0"
"1573151940177","2538237.0"
"1573151940218","2520687.0"
"1573151940272","2501495.0"
"1573151940321","2492361.0"
"1573151940370","2496822.0"
"1573151940419","2510331.0"
"1573151940461","2515366.0"
"1573151940511","2498649.0"
"1573151940559","2492554.0"
"1573151940609","2491467.0"
"1573151940661","2490573.0"
"1573151940712","2501577.0"
"1573151940763","2490900.0"
"1573151940809","2485219.0"
"1573151940859","2492846.0"
"1573151940906","2503249.0"
"1573151940956","2518186.0"
"1573151941000","2520301.0"
"1573151941052","2519413.0"
"1573151941103","2516173.0"
"1573151941151","2516673.0"
"1573151941204","2520047.0"
"1573151941247","2518794.0"
"1573151941298","2504029.0"
"1573151941341","2495087.0"
"1573151941395","2500963.0"
"1573151941438","2509405.0"
"1573151941492","2514200.0"
"1573151941546","2517979.0"
"1573151941592","2523335.0"
"1573151941640","2515425.0"
"1573151941681","2522914.0"
"1573151941737","2527849.0"
"1573151941784","2538325.0"
"1573151941834","2538812.0"
"1573151941880","2526762.0"
"1573151941932","2528463.0"
"1573151941984","2536370.0"
"1573151942029","2524974.0"
"1573151942078","2515959.0"
"1573151942122","2517199.0"
"1573151942176","2516847.0"
"1573151942220","2520094.0"
"1573151942274","2517032.0"
"1573151942324","2516299.0"
"1573151942371","2512605.0"
"1573151942420","2510577.0"
"1573151942468","2511746.0"
"1573151942519","2508458.0"
"1573151942562","2515705.0"
"1573151942611","2520068.0"
"1573151942665","2517534.0"
"1573151942712","2509878.0"
"1573151942765","2516526.0"
"1573151942809","2530783.0"
"1573151942858","2544753.0"
"1573151942907","2536291.0"
"1573151942957","2530622.0"
"1573151943000","2524129.0"
"1573151943057","2518148.0"
"1573151943108","2511538.0"
"1573151943144","2511559.0"
"1573151943202","2507211.0"
"1573151943249","2504943.0"
"1573151943299","2503129.0"
"1573151943341","2518528.0"
"1573151943390","2537384.0"
"1573151943441","2528130.0"
"1573151943488","2508298.0"
"1573151943541","2499909.0"
"1573151943587","2495382.0"
"1573151943638","2494281.0"
"1573151943688","2492881.0"
"1573151943738","2485380.0"
"1573151943779","2489892.0"
"1573151943836","2508911.0"
"1573151943885","2529129.0"
"1573151943932","2535777.0"
"1573151943977","2534950.0"
"1573151944030","2525123.0"
"1573151944080","2518314.0"
"1573151944129","2516158.0"
"1573151944178","2520240.0"
"1573151944223","2515378.0"
"1573151944274","2523735.0"
"1573151944320","2534857.0"
"1573151944368","2540452.0"
"1573151944418","2551314.0"
"1573151944465","2544440.0"
"1573151944513","2521660.0"
"1573151944563","2510799.0"
"1573151944619","2506863.0"
"1573151944665","2507485.0"
"1573151944713","2503576.0"
"1573151944763","2500276.0"
"1573151944806","2507792.0"
"1573151944861","2519533.0"
"1573151944906","2541159.0"
"1573151944959","2557249.0"
"1573151945012","2563484.0"
"1573151945054","2554609.0"
"1573151945109","2541752.0"
"1573151945151","2536084.0"
"1573151945202","2533390.0"
"1573151945250","2528956.0"
"1573151945295","2521248.0"
"1573151945343","2525696.0"
"1573151945398","2541746.0"
"1573151945449","2555782.0"
"1573151945494","2544067.0"
"1573151945544","2513972.0"
"1573151945592","2505496.0"
"1573151945643","2491954.0"
"1573151945691","2484079.0"
"1573151945740","2478884.0"
"1573151945783","2490441.0"
"1573151945833","2506164.0"
"1573151945886","2518499.0"
"1573151945929","2531443.0"
"1573151945983","2540312.0"
"1573151946031","2535917.0"
"1573151946080","2512318.0"
"1573151946128","2491946.0"
"1573151946178","2482584.0"
"1573151946226","2476757.0"
"1573151946275","2470542.0"
"1573151946323","2474910.0"
"1573151946368","2492460.0"
"1573151946415","2499482.0"
"1573151946466","2503210.0"
"1573151946520","2499228.0"
"1573151946566","2499415.0"
"1573151946617","2484738.0"
"1573151946664","2460192.0"
"1573151946711","2439793.0"
"1573151946760","2447642.0"
"1573151946812","2468882.0"
"1573151946861","2486206.0"
"1573151946905","2503675.0"
"1573151946960","2519948.0"
"1573151947009","2521453.0"
"1573151947057","2510559.0"
"1573151947106","2507784.0"
"1573151947152","2508663.0"
"1573151947202","2496747.0"
"1573151947249","2484518.0"
"1573151947300","2473295.0"
"1573151947345","2482998.0"
"1573151947401","2490160.0"
"1573151947441","2483317.0"
"1573151947495","2482899.0"
"1573151947546","2471688.0"
"1573151947589","2485432.0"
"1573151947643","2487259.0"
"1573151947685","2478098.0"
"1573151947739","2451078.0"
"1573151947789","2453371.0"
"1573151947837","2482131.0"
"1573151947885","2508978.0"
"1573151947933","2521394.0"
"1573151947984","2530816.0"
"1573151948027","2531531.0"
"1573151948079","2517061.0"
"1573151948130","2506936.0"
"1573151948179","2503836.0"
"1573151948225","2498862.0"
"1573151948275","2478618.0"
"1573151948323","2472616.0"
"1573151948373","2495347.0"
"1573151948422","2525874.0"
"1573151948467","2532957.0"
"1573151948518","2521935.0"
"1573151948568","2515872.0"
"1573151948625","2510451.0"
"1573151948665","2508777.0"
"1573151948714","2516085.0"
"1573151948763","2522242.0"
"1573151948810","2526216.0"
"1573151948857","2524296.0"
"1573151948911","2527583.0"
"1573151948959","2538258.0"
"1573151949006","2542693.0"
"1573151949059","2532270.0"
"1573151949100","2523849.0"
"1573151949149","2522134.0"
"1573151949198","2519820.0"
"1573151949250","2516260.0"
"1573151949296","2510805.0"
"1573151949347","2510732.0"
"1573151949395","2504104.0"
"1573151949442","2500742.0"
"1573151949491","2497796.0"
"1573151949538","2494482.0"
"1573151949589","2492995.0"
"1573151949638","2495020.0"
"1573151949685","2486312.0"
"1573151949735","2471202.0"
"1573151949783","2475310.0"
"1573151949834","2504596.0"
"1573151949882","2527229.0"
"1573151949931","2523008.0"
"1573151949979","2521900.0"
"1573151950028","2506524.0"
"1573151950081","2494833.0"
"1573151950128","2492661.0"
"1573151950175","2499695.0"
"1573151950223","2497668.0"
"1573151950272","2486251.0"
"1573151950321","2485126.0"
"1573151950370","2513239.0"
"1573151950419","2538105.0"
"1573151950468","2524667.0"
"1573151950517","2504236.0"
"1573151950565","2498255.0"
"1573151950616","2500069.0"
"1573151950662","2494082.0"
"1573151950712","2484264.0"
"1573151950760","2493100.0"
"1573151950811","2512398.0"
"1573151950859","2535324.0"
"1573151950909","2555083.0"
"1573151950956","2573121.0"
"1573151951004","2566759.0"
"1573151951057","2542059.0"
"1573151951108","2524182.0"
"1573151951154","2524422.0"
"1573151951198","2530816.0"
"1573151951250","2528416.0"
"1573151951302","2519793.0"
"1573151951348","2514419.0"
"1573151951399","2520106.0"
"1573151951448","2528948.0"
"1573151951494","2535358.0"
"1573151951541","2524749.0"
"1573151951589","2493068.0"
"1573151951644","2462299.0"
"1573151951694","2459058.0"
"1573151951735","2451823.0"
"1573151951789","2449403.0"
"1573151951838","2465980.0"
"1573151951887","2489366.0"
"1573151951937","2501569.0"
"1573151951985","2517646.0"
"1573151952029","2525763.0"
"1573151952083","2525502.0"
"1573151952138","2511477.0"
"1573151952182","2501615.0"
"1573151952228","2495081.0"
"1573151952273","2487332.0"
"1573151952323","2492334.0"
"1573151952376","2524615.0"
"1573151952424","2546820.0"
"1573151952475","2543053.0"
"1573151952522","2530663.0"
"1573151952565","2522715.0"
"1573151952619","2527536.0"
"1573151952668","2523595.0"
"1573151952718","2492227.0"
"1573151952765","2473022.0"
"1573151952808","2480924.0"
"1573151952856","2500835.0"
"1573151952910","2521947.0"
"1573151952958","2537512.0"
"1573151953006","2552415.0"
"1573151953056","2543038.0"
"1573151953108","2534310.0"
"1573151953149","2533843.0"
"1573151953205","2540739.0"
"1573151953258","2535838.0"
"1573151953303","2506991.0"
"1573151953347","2484358.0"
"1573151953400","2498982.0"
"1573151953448","2535190.0"
"1573151953498","2547254.0"
"1573151953548","2550702.0"
"1573151953596","2543559.0"
"1573151953646","2541933.0"
"1573151953697","2552187.0"
"1573151953742","2546653.0"
"1573151953791","2536645.0"
"1573151953834","2544207.0"
"1573151953881","2554189.0"
"1573151953933","2559016.0"
"1573151953981","2553675.0"
"1573151954032","2549081.0"
"1573151954085","2538351.0"
"1573151954133","2533638.0"
"1573151954182","2536972.0"
"1573151954229","2536791.0"
"1573151954279","2527843.0"
"1573151954326","2521927.0"
"1573151954376","2522034.0"
"1573151954419","2516333.0"
"1573151954472","2526496.0"
"1573151954522","2508865.0"
"1573151954564","2505244.0"
"1573151954619","2493860.0"
"1573151954664","2490894.0"
"1573151954716","2488246.0"
"1573151954761","2479211.0"
"1573151954814","2503350.0"
"1573151954863","2540686.0"
"1573151954913","2558090.0"
"1573151954957","2553815.0"
"1573151955010","2549508.0"
"1573151955059","2536858.0"
"1573151955101","2530163.0"
"1573151955156","2536031.0"
"1573151955206","2534997.0"
"1573151955257","2529342.0"
"1573151955303","2510884.0"
"1573151955347","2521807.0"
"1573151955402","2556757.0"
"1573151955451","2582909.0"
"1573151955496","2575400.0"
"1573151955543","2554969.0"
"1573151955601","2548286.0"
"1573151955645","2531090.0"
"1573151955694","2534664.0"
"1573151955742","2530249.0"
"1573151955791","2528457.0"
"1573151955839","2539745.0"
"1573151955888","2560404.0"
"1573151955937","2565953.0"
"1573151955986","2564825.0"
"1573151956036","2561477.0"
"1573151956092","2554630.0"
"1573151956135","2542919.0"
"1573151956183","2539678.0"
"1573151956230","2529536.0"
"1573151956279","2510606.0"
"1573151956326","2527496.0"
"1573151956378","2563130.0"
"1573151956426","2588178.0"
"1573151956473","2595673.0"
"1573151956523","2599913.0"
"1573151956568","2599486.0"
"1573151956624","2598499.0"
"1573151956741","2574594.0"
"1573151956767","2565392.0"
"1573151956819","2593952.0"
"1573151956864","2624292.0"
"1573151956917","2633394.0"
"1573151956957","2627848.0"
"1573151957014","2618451.0"
"1573151957056","2621045.0"
"1573151957105","2625192.0"
"1573151957158","2630861.0"
"1573151957201","2630253.0"
"1573151957259","2624286.0"
"1573151957300","2609968.0"
"1573151957348","2614844.0"
"1573151957397","2629493.0"
"1573151957454","2647458.0"
"1573151957498","2653194.0"
"1573151957551","2651792.0"
"1573151957600","2651119.0"
"1573151957643","2647405.0"
"1573151957694","2649305.0"
"1573151957738","2641997.0"
"1573151957795","2645898.0"
"1573151957842","2657948.0"
"1573151957894","2661989.0"
"1573151957938","2670177.0"
"1573151957988","2670376.0"
"1573151958032","2658188.0"
"1573151958084","2653679.0"
"1573151958137","2657708.0"
"1573151958179","2662968.0"
"1573151958234","2652747.0"
"1573151958281","2644711.0"
"1573151958327","2668550.0"
"1573151958377","2692356.0"
"1573151958423","2702258.0"
"1573151958479","2693802.0"
"1573151958521","2681254.0"
"1573151958569","2685968.0"
"1573151958620","2690009.0"
"1573151958671","2684381.0"
"1573151958720","2666363.0"
"1573151958763","2658021.0"
"1573151958821","2672331.0"
"1573151958860","2696370.0"
"1573151958910","2720329.0"
"1573151958960","2725623.0"
"1573151959006","2706872.0"
"1573151959059","2689542.0"
"1573151959104","2682508.0"
"1573151959156","2682400.0"
"1573151959204","2679539.0"
"1573151959253","2687254.0"
"1573151959298","2695810.0"
"1573151959348","2712521.0"
"1573151959400","2720042.0"
"1573151959447","2721684.0"
"1573151959498","2718616.0"
"1573151959546","2719630.0"
"1573151959594","2715708.0"
"1573151959643","2697545.0"
"1573151959692","2685608.0"
"1573151959741","2679700.0"
"1573151959789","2677912.0"
"1573151959847","2682739.0"
"1573151959890","2687227.0"
"1573151959941","2692542.0"
"1573151959983","2686701.0"
"1573151960040","2680019.0"
"1573151960085","2676053.0"
"1573151960136","2677266.0"
"1573151960178","2662361.0"
"1573151960234","2691023.0"
"1573151960282","2750510.0"
"1573151960329","2789333.0"
"1573151960380","2789087.0"
"1573151960429","2779670.0"
"1573151960479","2770588.0"
"1573151960519","2761094.0"
"1573151960568","2789514.0"
"1573151960621","2783538.0"
"1573151960672","2779231.0"
"1573151960719","2750490.0"
"1573151960768","2724317.0"
"1573151960820","2718722.0"
"1573151960862","2723303.0"
"1573151960913","2740087.0"
"1573151960963","2735146.0"
"1573151961013","2722763.0"
"1573151961058","2712573.0"
"1573151961110","2714449.0"
"1573151961157","2708345.0"
"1573151961207","2707167.0"
"1573151961258","2691862.0"
"1573151961300","2666416.0"
"1573151961349","2635761.0"
"1573151961405","2657901.0"
"1573151961446","2665870.0"
"1573151961502","2661321.0"
"1573151961547","2664035.0"
"1573151961602","2655248.0"
"1573151961645","2647212.0"
"1573151961698","2635101.0"
"1573151961743","2634475.0"
"1573151961796","2648504.0"
"1573151961843","2661382.0"
"1573151961894","2658673.0"
"1573151961938","2651873.0"
"1573151961983","2649092.0"
"1573151962033","2641976.0"
"1573151962079","2638128.0"
"1573151962138","2638356.0"
"1573151962186","2634256.0"
"1573151962227","2623699.0"
"1573151962283","2622080.0"
"1573151962333","2636915.0"
"1573151962378","2647925.0"
"1573151962430","2646859.0"
"1573151962480","2633841.0"
"1573151962519","2607508.0"
"1573151962569","2605628.0"
"1573151962623","2599113.0"
"1573151962674","2588450.0"
"1573151962720","2583275.0"
"1573151962769","2589192.0"
"1573151962822","2604281.0"
"1573151962860","2628093.0"
"1573151962909","2645485.0"
"1573151962960","2639656.0"
"1573151963006","2620418.0"
"1573151963058","2610730.0"
"1573151963105","2602520.0"
"1573151963155","2587430.0"
"1573151963203","2575327.0"
"1573151963261","2574734.0"
"1573151963307","2590770.0"
"1573151963350","2602821.0"
"1573151963404","2616364.0"
"1573151963454","2621633.0"
"1573151963503","2614304.0"
"1573151963547","2611657.0"
"1573151963594","2600059.0"
"1573151963642","2582302.0"
"1573151963700","2579082.0"
"1573151963748","2603066.0"
"1573151963795","2620645.0"
"1573151963842","2625940.0"
"1573151963893","2629140.0"
"1573151963938","2627167.0"
"1573151963987","2618231.0"
"1573151964038","2612530.0"
"1573151964083","2612291.0"
"1573151964137","2602607.0"
"1573151964186","2585043.0"
"1573151964235","2588298.0"
"1573151964282","2601880.0"
"1573151964329","2630627.0"
"1573151964378","2633187.0"
"1573151964426","2630507.0"
"1573151964481","2619558.0"
"1573151964525","2615570.0"
"1573151964575","2615570.0"
"1573151964624","2614284.0"
"1573151964668","2595019.0"
"1573151964716","2583228.0"
"1573151964766","2599726.0"
"1573151964816","2621019.0"
"1573151964862","2637348.0"
"1573151964916","2642950.0"
"1573151964966","2623939.0"
"1573151965016","2607934.0"
"1573151965059","2599379.0"
"1573151965106","2600187.0"
"1573151965154","2599700.0"
"1573151965205","2596026.0"
"1573151965253","2583356.0"
"1573151965303","2592085.0"
"1573151965350","2600634.0"
"1573151965401","2608089.0"
"1573151965452","2603767.0"
"1573151965503","2601033.0"
"1573151965548","2598353.0"
"1573151965600","2594066.0"
"1573151965647","2588537.0"
"1573151965699","2586349.0"
"1573151965746","2601646.0"
"1573151965789","2623132.0"
"1573151965844","2618071.0"
"1573151965886","2615037.0"
"1573151965944","2618892.0"
"1573151965983","2611569.0"
"1573151966039","2602928.0"
"1573151966087","2598133.0"
"1573151966138","2593645.0"
"1573151966187","2585984.0"
"1573151966229","2587444.0"
"1573151966285","2616884.0"
"1573151966331","2639203.0"
"1573151966379","2661908.0"
"1573151966426","2637830.0"
"1573151966479","2613989.0"
"1573151966528","2612142.0"
"1573151966576","2607855.0"
"1573151966626","2603326.0"
"1573151966665","2592125.0"
"1573151966724","2585236.0"
"1573151966765","2599434.0"
"1573151966821","2627667.0"
"1573151966871","2652747.0"
"1573151966919","2661349.0"
"1573151966967","2661408.0"
"1573151967012","2652940.0"
"1573151967059","2637377.0"
"1573151967105","2626860.0"
"1573151967163","2614550.0"
"1573151967209","2610944.0"
"1573151967260","2609349.0"
"1573151967308","2621539.0"
"1573151967352","2634075.0"
"1573151967406","2650158.0"
"1573151967446","2648519.0"
"1573151967505","2648226.0"
"1573151967546","2650725.0"
"1573151967604","2645231.0"
"1573151967649","2629128.0"
"1573151967699","2612717.0"
"1573151967747","2619611.0"
"1573151967792","2635194.0"
"1573151967846","2656288.0"
"1573151967887","2658421.0"
"1573151967941","2660616.0"
"1573151967987","2661229.0"
"1573151968040","2659368.0"
"1573151968083","2663968.0"
"1573151968139","2659141.0"
"1573151968187","2648431.0"
"1573151968230","2639043.0"
"1573151968279","2629093.0"
"1573151968327","2635662.0"
"1573151968384","2639811.0"
"1573151968429","2639282.0"
"1573151968474","2640770.0"
"1573151968529","2646257.0"
"1573151968578","2647218.0"
"1573151968627","2637149.0"
"1573151968668","2631200.0"
"1573151968726","2650573.0"
"1573151968769","2670671.0"
"1573151968819","2690182.0"
"1573151968870","2694190.0"
"1573151968918","2682514.0"
"1573151968968","2662302.0"
"1573151969009","2650412.0"
"1573151969060","2643145.0"
"1573151969108","2645684.0"
"1573151969164","2642230.0"
"1573151969211","2636141.0"
"1573151969262","2634729.0"
"1573151969311","2652239.0"
"1573151969353","2672105.0"
"1573151969408","2695716.0"
"1573151969449","2696990.0"
"1573151969506","2675831.0"
"1573151969550","2667843.0"
"1573151969599","2662828.0"
"1573151969651","2660461.0"
"1573151969694","2672912.0"
"1573151969742","2721936.0"
"1573151969792","2742042.0"
"1573151969841","2736867.0"
"1573151969890","2735041.0"
"1573151969939","2738448.0"
"1573151969991","2726430.0"
"1573151970039","2708693.0"
"1573151970087","2689349.0"
"1573151970137","2668397.0"
"1573151970188","2654380.0"
"1573151970229","2646225.0"
"1573151970287","2661455.0"
"1573151970331","2688875.0"
"1573151970385","2713701.0"
"1573151970432","2716921.0"
"1573151970480","2704733.0"
"1573151970529","2712894.0"
"1573151970579","2705513.0"
"1573151970627","2700812.0"
"1573151970669","2673070.0"
"1573151970726","2658460.0"
"1573151970772","2681988.0"
"1573151970821","2754692.0"
"1573151970871","2791306.0"
"1573151970916","2793266.0"
"1573151970962","2793248.0"
"1573151971012","2787638.0"
"1573151971060","2774003.0"
"1573151971111","2763820.0"
"1573151971158","2762453.0"
"1573151971205","2751290.0"
"1573151971256","2734019.0"
"1573151971303","2728758.0"
"1573151971352","2738387.0"
"1573151971401","2741955.0"
"1573151971451","2721930.0"
"1573151971497","2721149.0"
"1573151971548","2719829.0"
"1573151971597","2721570.0"
"1573151971645","2713268.0"
"1573151971695","2701945.0"
"1573151971742","2698203.0"
"1573151971793","2687020.0"
"1573151971841","2671311.0"
"1573151971899","2661414.0"
"1573151971946","2653454.0"
"1573151971994","2649612.0"
"1573151972042","2643551.0"
"1573151972091","2638955.0"
"1573151972137","2627466.0"
"1573151972188","2615497.0"
"1573151972231","2609056.0"
"1573151972280","2625619.0"
"1573151972335","2633829.0"
"1573151972384","2631755.0"
"1573151972432","2622106.0"
"1573151972479","2617677.0"
"1573151972530","2632529.0"
"1573151972582","2630901.0"
"1573151972628","2618305.0"
"1573151972674","2599820.0"
"1573151972727","2599580.0"
"1573151972767","2631001.0"
"1573151972824","2647358.0"
"1573151972873","2642771.0"
"1573151972916","2635515.0"
"1573151972969","2609229.0"
"1573151973013","2590384.0"
"1573151973061","2599686.0"
"1573151973115","2642631.0"
"1573151973165","2838812.0"
"1573151973215","2957468.0"
"1573151973262","3053756.0"
"1573151973311","3029792.0"
"1573151973354","3029185.0"
"1573151973409","2948904.0"
"1573151973454","2889463.0"
"1573151973507","2843459.0"
"1573151973549","2807905.0"
"1573151973598","2772108.0"
"1573151973655","2749344.0"
"1573151973700","2735093.0"
"1573151973752","2729732.0"
"1573151973796","2729165.0"
"1573151973849","2734845.0"
"1573151973897","2728297.0"
"1573151973947","2712515.0"
"1573151973997","2704079.0"
"1573151974047","2693162.0"
"1573151974093","2673871.0"
"1573151974135","2659462.0"
"1573151974190","2655006.0"
"1573151974240","2654728.0"
"1573151974282","2657834.0"
"1573151974335","2663348.0"
"1573151974383","2658614.0"
"1573151974436","2653334.0"
"1573151974483","2653433.0"
"1573151974533","2651359.0"
"1573151974576","2642377.0"
"1573151974630","2613103.0"
"1573151974677","2585896.0"
"1573151974728","2588403.0"
"1573151974777","2613723.0"
"1573151974824","2644837.0"
"1573151974875","2666215.0"
"1573151974918","2655727.0"
"1573151974964","2636322.0"
"1573151975016","2624698.0"
"1573151975062","2625686.0"
"1573151975119","2621653.0"
"1573151975164","2619897.0"
"1573151975217","2612989.0"
"1573151975256","2605988.0"
"1573151975304","2608709.0"
"1573151975355","2616452.0"
"1573151975403","2625832.0"
"1573151975454","2624792.0"
"1573151975502","2609302.0"
"1573151975551","2596839.0"
"1573151975599","2591691.0"
"1573151975655","2581942.0"
"1573151975696","2592812.0"
"1573151975753","2621645.0"
"1573151975797","2641111.0"
"1573151975847","2641284.0"
"1573151975900","2625119.0"
"1573151975946","2617677.0"
"1573151975990","2614418.0"
"1573151976043","2612096.0"
"1573151976094","2606435.0"
"1573151976137","2601173.0"
"1573151976192","2593712.0"
"1573151976237","2595019.0"
"1573151976287","2598294.0"
"1573151976331","2597532.0"
"1573151976381","2597865.0"
"1573151976429","2598814.0"
"1573151976479","2596687.0"
"1573151976525","2590717.0"
"1573151976582","2582542.0"
"1573151976630","2569033.0"
"1573151976680","2565471.0"
"1573151976724","2581741.0"
"1573151976778","2605001.0"
"1573151976818","2621005.0"
"1573151976874","2617644.0"
"1573151976921","2595153.0"
"1573151976969","2579634.0"
"1573151977018","2574813.0"
"1573151977062","2575528.0"
"1573151977120","2571300.0"
"1573151977159","2566306.0"
"1573151977215","2565932.0"
"1573151977259","2581069.0"
"1573151977313","2590057.0"
"1573151977359","2600021.0"
"1573151977403","2604367.0"
"1573151977459","2598926.0"
"1573151977500","2588891.0"
"1573151977554","2582936.0"
"1573151977603","2577328.0"
"1573151977650","2568606.0"
"1573151977703","2577974.0"
"1573151977750","2595506.0"
"1573151977798","2599761.0"
"1573151977841","2599673.0"
"1573151977900","2605316.0"
"1573151977940","2604775.0"
"1573151977996","2597327.0"
"1573151978039","2592711.0"
"1573151978095","2575148.0"
"1573151978143","2565012.0"
"1573151978185","2560109.0"
"1573151978234","2575867.0"
"1573151978282","2596979.0"
"1573151978339","2604275.0"
"1573151978387","2597806.0"
"1573151978437","2597020.0"
"1573151978480","2610629.0"
"1573151978534","2608396.0"
"1573151978581","2599419.0"
"1573151978630","2572720.0"
"1573151978678","2561170.0"
"1573151978721","2582562.0"
"1573151978778","2607888.0"
"1573151978820","2616031.0"
"1573151978875","2621732.0"
"1573151978922","2611870.0"
"1573151978972","2605494.0"
"1573151979018","2598040.0"
"1573151979063","2593832.0"
"1573151979121","2594539.0"
"1573151979160","2578521.0"
"1573151979218","2572580.0"
"1573151979259","2575353.0"
"1573151979314","2581782.0"
"1573151979358","2597973.0"
"1573151979413","2603847.0"
"1573151979458","2602294.0"
"1573151979502","2601506.0"
"1573151979552","2581983.0"
"1573151979603","2562204.0"
"1573151979657","2554642.0"
"1573151979705","2570172.0"
"1573151979754","2581109.0"
"1573151979804","2588818.0"
"1573151979844","2604294.0"
"1573151979901","2614590.0"
"1573151979942","2607981.0"
"1573151979998","2599594.0"
"1573151980040","2592877.0"
"1573151980094","2588885.0"
"1573151980146","2584476.0"
"1573151980192","2579041.0"
"1573151980235","2580736.0"
"1573151980282","2580683.0"
"1573151980331","2577320.0"
"1573151980382","2577869.0"
"1573151980429","2571934.0"
"1573151980480","2574281.0"
"1573151980526","2570207.0"
"1573151980583","2564232.0"
"1573151980631","2552502.0"
"1573151980680","2558677.0"
"1573151980724","2584122.0"
"1573151980777","2614550.0"
"1573151980827","2595118.0"
"1573151980874","2577729.0"
"1573151980922","2559989.0"
"1573151980972","2557116.0"
"1573151981017","2557763.0"
"1573151981063","2558183.0"
"1573151981119","2552041.0"
"1573151981162","2544213.0"
"1573151981216","2539733.0"
"1573151981266","2550747.0"
"1573151981313","2548947.0"
"1573151981359","2532603.0"
"1573151981404","2523841.0"
"1573151981458","2528670.0"
"1573151981502","2538185.0"
"1573151981554","2531870.0"
"1573151981605","2520760.0"
"1573151981655","2513192.0"
"1573151981703","2530470.0"
"1573151981753","2562078.0"
"1573151981797","2580654.0"
"1573151981841","2578834.0"
"1573151981902","2569012.0"
"1573151981945","2562618.0"
"1573151981989","2564591.0"
"1573151982047","2564872.0"
"1573151982094","2555150.0"
"1573151982141","2543941.0"
"1573151982187","2539645.0"
"1573151982238","2542693.0"
"1573151982282","2548268.0"
"1573151982340","2561324.0"
"1573151982386","2570093.0"
"1573151982435","2552462.0"
"1573151982478","2539952.0"
"1573151982531","2533930.0"
"1573151982582","2531563.0"
"1573151982631","2519755.0"
"1573151982681","2521728.0"
"1573151982728","2553823.0"
"1573151982777","2573793.0"
"1573151982825","2578308.0"
"1573151982872","2572133.0"
"1573151982923","2547200.0"
"1573151982972","2534751.0"
"1573151983018","2522621.0"
"1573151983064","2515413.0"
"1573151983119","2507757.0"
"1573151983164","2502515.0"
"1573151983216","2497922.0"
"1573151983263","2520094.0"
"1573151983314","2540032.0"
"1573151983354","2549715.0"
"1573151983407","2533723.0"
"1573151983455","2514972.0"
"1573151983507","2516366.0"
"1573151983551","2513812.0"
"1573151983611","2507158.0"
"1573151983655","2501436.0"
"1573151983703","2514072.0"
"1573151983746","2536750.0"
"1573151983797","2558157.0"
"1573151983848","2570780.0"
"1573151983898","2568951.0"
"1573151983951","2556769.0"
"1573151983989","2532030.0"
"1573151984038","2511825.0"
"1573151984089","2501810.0"
"1573151984136","2491607.0"
"1573151984185","2492279.0"
"1573151984236","2521807.0"
"1573151984286","2546159.0"
"1573151984334","2553815.0"
"1573151984390","2558736.0"
"1573151984438","2556123.0"
"1573151984488","2553935.0"
"1573151984532","2541960.0"
"1573151984585","2535044.0"
"1573151984626","2518361.0"
"1573151984677","2528735.0"
"1573151984726","2553923.0"
"1573151984780","2584236.0"
"1573151984828","2603680.0"
"1573151984877","2624426.0"
"1573151984926","2619099.0"
"1573151984968","2614623.0"
"1573151985024","2604267.0"
"1573151985066","2594633.0"
"1573151985120","2587956.0"
"1573151985166","2575140.0"
"1573151985213","2570327.0"
"1573151985268","2593613.0"
"1573151985314","2606868.0"
"1573151985364","2625373.0"
"1573151985411","2632982.0"
"1573151985464","2631667.0"
"1573151985505","2633409.0"
"1573151985556","2616870.0"
"1573151985611","2605240.0"
"1573151985659","2589236.0"
"1573151985700","2585250.0"
"1573151985749","2601600.0"
"1573151985804","2616330.0"
"1573151985845","2623693.0"
"1573151985902","2627374.0"
"1573151985948","2621279.0"
"1573151986001","2619052.0"
"1573151986047","2617425.0"
"1573151986095","2607408.0"
"1573151986147","2595705.0"
"1573151986187","2586817.0"
"1573151986237","2592833.0"
"1573151986292","2611590.0"
"1573151986338","2624979.0"
"1573151986387","2632521.0"
"1573151986431","2632915.0"
"1573151986482","2639002.0"
"1573151986531","2633654.0"
"1573151986581","2615430.0"
"1573151986629","2600567.0"
"1573151986684","2584844.0"
"1573151986729","2594113.0"
"1573151986775","2614436.0"
"1573151986830","2634554.0"
"1573151986879","2640442.0"
"1573151986927","2628581.0"
"1573151986967","2623693.0"
"1573151987025","2620858.0"
"1573151987066","2619497.0"
"1573151987119","2608696.0"
"1573151987170","2596792.0"
"1573151987222","2591051.0"
"1573151987268","2604515.0"
"1573151987311","2618558.0"
"1573151987359","2628219.0"
"1573151987407","2634896.0"
"1573151987465","2632448.0"
"1573151987509","2625601.0"
"1573151987556","2612589.0"
"1573151987611","2596733.0"
"1573151987658","2581963.0"
"1573151987707","2591258.0"
"1573151987747","2609903.0"
"1573151987804","2623018.0"
"1573151987850","2635089.0"
"1573151987896","2627900.0"
"1573151987951","2615710.0"
"1573151988002","2612522.0"
"1573151988048","2620885.0"
"1573151988091","2615190.0"
"1573151988147","2598186.0"
"1573151988188","2587883.0"
"1573151988245","2590825.0"
"1573151988292","2602420.0"
"1573151988340","2613010.0"
"1573151988381","2622185.0"
"1573151988433","2621051.0"
"1573151988489","2625460.0"
"1573151988528","2630773.0"
"1573151988586","2625926.0"
"1573151988635","2604194.0"
"1573151988683","2588844.0"
"1573151988731","2595386.0"
"1573151988781","2606067.0"
"1573151988829","2612996.0"
"1573151988871","2623305.0"
"1573151988920","2617545.0"
"1573151988972","2609863.0"
"1573151989026","2604460.0"
"1573151989072","2605354.0"
"1573151989124","2599279.0"
"1573151989170","2582489.0"
"1573151989222","2573179.0"
"1573151989268","2584756.0"
"1573151989310","2600807.0"
"1573151989364","2610535.0"
"1573151989416","2615151.0"
"1573151989455","2611770.0"
"1573151989510","2609355.0"
"1573151989554","2602640.0"
"1573151989614","2589303.0"
"1573151989650","2573606.0"
"1573151989708","2566993.0"
"1573151989750","2576828.0"
"1573151989805","2591977.0"
"1573151989844","2605027.0"
"1573151989900","2608396.0"
"1573151989945","2594685.0"
"1573151989995","2590831.0"
"1573151990042","2591678.0"
"1573151990094","2592424.0"
"1573151990145","2588611.0"
"1573151990192","2577235.0"
"1573151990243","2564998.0"
"1573151990292","2574813.0"
"1573151990340","2583109.0"
"1573151990382","2595212.0"
"1573151990431","2591670.0"
"1573151990487","2595612.0"
"1573151990532","2596500.0"
"1573151990585","2582556.0"
"1573151990627","2576195.0"
"1573151990683","2587971.0"
"1573151990731","2598233.0"
"1573151990779","2595472.0"
"1573151990829","2595106.0"
"1573151990871","2607335.0"
"1573151990927","2599539.0"
"1573151990973","2585756.0"
"1573151991025","2578308.0"
"1573151991066","2579581.0"
"1573151991115","2577922.0"
"1573151991171","2573013.0"
"1573151991212","2571020.0"
"1573151991268","2571926.0"
"1573151991313","2574453.0"
"1573151991366","2576548.0"
"1573151991415","2575695.0"
"1573151991462","2572267.0"
"1573151991512","2573147.0"
"1573151991553","2573246.0"
"1573151991609","2562210.0"
"1573151991657","2557763.0"
"1573151991707","2576440.0"
"1573151991753","2591977.0"
"1573151991806","2595840.0"
"1573151991855","2592772.0"
"1573151991896","2585916.0"
"1573151991944","2575654.0"
"1573151991996","2569553.0"
"1573151992042","2567633.0"
"1573151992093","2563644.0"
"1573151992140","2563145.0"
"1573151992188","2561123.0"
"1573151992238","2576893.0"
"1573151992286","2602148.0"
"1573151992336","2600366.0"
"1573151992383","2593812.0"
"1573151992431","2580215.0"
"1573151992482","2577468.0"
"1573151992534","2583629.0"
"1573151992579","2581475.0"
"1573151992627","2572814.0"
"1573151992677","2566599.0"
"1573151992723","2574640.0"
"1573151992777","2586563.0"
"1573151992828","2596345.0"
"1573151992875","2610889.0"
"1573151992927","2599653.0"
"1573151992976","2581428.0"
"1573151993024","2573060.0"
"1573151993068","2572306.0"
"1573151993115","2570152.0"
"1573151993171","2564764.0"
"1573151993215","2563744.0"
"1573151993262","2579996.0"
"1573151993314","2605208.0"
"1573151993367","2614530.0"
"1573151993413","2612189.0"
"1573151993456","2600287.0"
"1573151993505","2593964.0"
"1573151993554","2590531.0"
"1573151993611","2587650.0"
"1573151993657","2575187.0"
"1573151993706","2577848.0"
"1573151993756","2591305.0"
"1573151993797","2605114.0"
"1573151993854","2618471.0"
"1573151993895","2630887.0"
"1573151993952","2627147.0"
"1573151993997","2616677.0"
"1573151994047","2603394.0"
"1573151994099","2589163.0"
"1573151994138","2581042.0"
"1573151994188","2576700.0"
"1573151994237","2588777.0"
"1573151994286","2619465.0"
"1573151994336","2625145.0"
"1573151994382","2628926.0"
"1573151994437","2624327.0"
"1573151994488","2629426.0"
"1573151994538","2632307.0"
"1573151994585","2629113.0"
"1573151994627","2617837.0"
"1573151994676","2604901.0"
"1573151994731","2612376.0"
"1573151994777","2625513.0"
"1573151994830","2630761.0"
"1573151994875","2635688.0"
"1573151994921","2632261.0"
"1573151994967","2623646.0"
"1573151995020","2620844.0"
"1573151995067","2621492.0"
"1573151995120","2616543.0"
"1573151995163","2610830.0"
"1573151995221","2609956.0"
"1573151995263","2616925.0"
"1573151995319","2619572.0"
"1573151995365","2618737.0"
"1573151995415","2616397.0"
"1573151995456","2614190.0"
"1573151995510","2613530.0"
"1573151995556","2612089.0"
"1573151995604","2605614.0"
"1573151995661","2595132.0"
"1573151995700","2610316.0"
"1573151995756","2633602.0"
"1573151995800","2652686.0"
"1573151995852","2663170.0"
"1573151995901","2646178.0"
"1573151995949","2626413.0"
"1573151996003","2614150.0"
"1573151996043","2610088.0"
"1573151996100","2600647.0"
"1573151996138","2595959.0"
"1573151996196","2592205.0"
"1573151996239","2608603.0"
"1573151996292","2621519.0"
"1573151996342","2631088.0"
"1573151996385","2630747.0"
"1573151996439","2625154.0"
"1573151996480","2618804.0"
"1573151996538","2601774.0"
"1573151996580","2579801.0"
"1573151996628","2568626.0"
"1573151996679","2585390.0"
"1573151996730","2610582.0"
"1573151996782","2630274.0"
"1573151996822","2643417.0"
"1573151996880","2647218.0"
"1573151996919","2640276.0"
"1573151996976","2635194.0"
"1573151997019","2636550.0"
"1573151997068","2638063.0"
"1573151997121","2632874.0"
"1573151997169","2616691.0"
"1573151997217","2610330.0"
"1573151997262","2615984.0"
"1573151997319","2622819.0"
"1573151997366","2623965.0"
"1573151997415","2618485.0"
"1573151997457","2616011.0"
"1573151997513","2604261.0"
"1573151997559","2597625.0"
"1573151997603","2586743.0"
"1573151997662","2592958.0"
"1573151997701","2626472.0"
"1573151997758","2642531.0"
"1573151997799","2648086.0"
"1573151997854","2636643.0"
"1573151997905","2627086.0"
"1573151997953","2621712.0"
"1573151997997","2623059.0"
"1573151998047","2618924.0"
"1573151998098","2613237.0"
"1573151998141","2607782.0"
"1573151998189","2608442.0"
"1573151998238","2626279.0"
"1573151998293","2638630.0"
"1573151998342","2637576.0"
"1573151998382","2616110.0"
"1573151998432","2610816.0"
"1573151998480","2587083.0"
"1573151998529","2584949.0"
"1573151998580","2579955.0"
"1573151998639","2583135.0"
"1573151998677","2601480.0"
"1573151998728","2626787.0"
"1573151998778","2637283.0"
"1573151998827","2650752.0"
"1573151998880","2635162.0"
"1573151998922","2630235.0"
"1573151998979","2621866.0"
"1573151999018","2610570.0"
"1573151999069","2600953.0"
"1573151999124","2592357.0"
"1573151999171","2589098.0"
"1573151999217","2594566.0"
"1573151999270","2614030.0"
"1573151999317","2623786.0"
"1573151999369","2624140.0"
"1573151999418","2622220.0"
"1573151999462","2627214.0"
"1573151999514","2623246.0"
"1573151999558","2617998.0"
"1573151999613","2597298.0"
"1573151999658","2587997.0"
"1573151999707","2611669.0"
"1573151999759","2638175.0"
"1573151999804","2663135.0"
"1573151999856","2669911.0"
"1573151999906","2654421.0"
"1573151999955","2640702.0"
"1573151999995","2635501.0"
"1573152000042","2634861.0"
"1573152000092","2629806.0"
"1573152000144","2617691.0"
"1573152000191","2615677.0"
"1573152000243","2629408.0"
"1573152000288","2641377.0"
"1573152000339","2656967.0"
"1573152000386","2666857.0"
"1573152000439","2671752.0"
"1573152000488","2659760.0"
"1573152000538","2650926.0"
"1573152000582","2632454.0"
"1573152000630","2628467.0"
"1573152000681","2648998.0"
"1573152000727","2666790.0"
"1573152000778","2676679.0"
"1573152000826","2719183.0"
"1573152000874","2715115.0"
"1573152000923","2722064.0"
"1573152000973","2725603.0"
"1573152001020","2713148.0"
"1573152001069","2705759.0"
"1573152001119","2697264.0"
"1573152001166","2697303.0"
"1573152001217","2707132.0"
"1573152001264","2719782.0"
"1573152001315","2709634.0"
"1573152001362","2681033.0"
"1573152001409","2675338.0"
"1573152001462","2683534.0"
"1573152001508","2686581.0"
"1573152001558","2673052.0"
"1573152001606","2659435.0"
"1573152001656","2666410.0"
"1573152001703","2677906.0"
"1573152001754","2683753.0"
"1573152001804","2672485.0"
"1573152001851","2662574.0"
"1573152001899","2651312.0"
"1573152001947","2635723.0"
"1573152001997","2626913.0"
"1573152002045","2620631.0"
"1573152002095","2614389.0"
"1573152002147","2606634.0"
"1573152002193","2616177.0"
"1573152002243","2629101.0"
"1573152002289","2630560.0"
"1573152002338","2630267.0"
"1573152002386","2628033.0"
"1573152002437","2624532.0"
"1573152002485","2617630.0"
"1573152002535","2604767.0"
"1573152002583","2588225.0"
"1573152002631","2595825.0"
"1573152002729","2616645.0"
"1573152002736","2629394.0"
"1573152002831","2634422.0"
"1573152002832","2635235.0"
"1573152002901","2621519.0"
"1573152002927","2611756.0"
"1573152002973","2610608.0"
"1573152003023","2609550.0"
"1573152003071","2598239.0"
"1573152003118","2582269.0"
"1573152003166","2579874.0"
"1573152003217","2601155.0"
"1573152003265","2617098.0"
"1573152003315","2620911.0"
"1573152003364","2612782.0"
"1573152003411","2619237.0"
"1573152003464","2610210.0"
"1573152003508","2603761.0"
"1573152003563","2589312.0"
"1573152003605","2581863.0"
"1573152003654","2583442.0"
"1573152003703","2592371.0"
"1573152003753","2594171.0"
"1573152003802","2590457.0"
"1573152003852","2583442.0"
"1573152003900","2576040.0"
"1573152003951","2568192.0"
"1573152003999","2559463.0"
"1573152004047","2556476.0"
"1573152004097","2547141.0"
"1573152004143","2549321.0"
"1573152004195","2564504.0"
"1573152004245","2572852.0"
"1573152004293","2567271.0"
"1573152004340","2560223.0"
"1573152004388","2547447.0"
"1573152004438","2513473.0"
"1573152004487","2507410.0"
"1573152004536","2498816.0"
"1573152004584","2493427.0"
"1573152004633","2492153.0"
"1573152004685","2512184.0"
"1573152004732","2531923.0"
"1573152004780","2543106.0"
"1573152004827","2554361.0"
"1573152004878","2561997.0"
"1573152004926","2554762.0"
"1573152004976","2543132.0"
"1573152005026","2551621.0"
"1573152005073","2548061.0"
"1573152005118","2540478.0"
"1573152005170","2542033.0"
"1573152005219","2566605.0"
"1573152005267","2586071.0"
"1573152005317","2590957.0"
"1573152005367","2570059.0"
"1573152005414","2562125.0"
"1573152005467","2563124.0"
"1573152005517","2561345.0"
"1573152005560","2548567.0"
"1573152005607","2534623.0"
"1573152005656","2534924.0"
"1573152005711","2554235.0"
"1573152005756","2547673.0"
"1573152005805","2567066.0"
"1573152005853","2592304.0"
"1573152005900","2583042.0"
"1573152005956","2566658.0"
"1573152006004","2559609.0"
"1573152006048","2554481.0"
"1573152006100","2547734.0"
"1573152006147","2547620.0"
"1573152006201","2562230.0"
"1573152006247","2571099.0"
"1573152006293","2564477.0"
"1573152006345","2554823.0"
"1573152006387","2558996.0"
"1573152006443","2558309.0"
"1573152006488","2543193.0"
"1573152006541","2524462.0"
"1573152006589","2526589.0"
"1573152006633","2559297.0"
"1573152006685","2590671.0"
"1573152006737","2595732.0"
"1573152006785","2581089.0"
"1573152006830","2563197.0"
"1573152006877","2555922.0"
"1573152006930","2556182.0"
"1573152006982","2553309.0"
"1573152007031","2551629.0"
"1573152007074","2539625.0"
"1573152007122","2529670.0"
"1573152007177","2533965.0"
"1573152007225","2545633.0"
"1573152007270","2569506.0"
"1573152007323","2580989.0"
"1573152007370","2600927.0"
"1573152007421","2602800.0"
"1573152007472","2600033.0"
"1573152007519","2587778.0"
"1573152007563","2576528.0"
"1573152007611","2566125.0"
"1573152007659","2571847.0"
"1573152007707","2578281.0"
"1573152007757","2578675.0"
"1573152007808","2570099.0"
"1573152007853","2557236.0"
"1573152007902","2549101.0"
"1573152007951","2546781.0"
"1573152008002","2548008.0"
"1573152008049","2545533.0"
"1573152008099","2542100.0"
"1573152008152","2644165.0"
"1573152008197","2816780.0"
"1573152008249","2831396.0"
"1573152008295","2826248.0"
"1573152008342","2798336.0"
"1573152008398","2810512.0"
"1573152008445","2793740.0"
"1573152008489","2777297.0"
"1573152008539","2749502.0"
"1573152008590","2735666.0"
"1573152008636","2738793.0"
"1573152008683","2785078.0"
"1573152008734","2795335.0"
"1573152008783","2759273.0"
"1573152008832","2726897.0"
"1573152008878","2708187.0"
"1573152008930","2693317.0"
"1573152008982","2688434.0"
"1573152009034","2682134.0"
"1573152009075","2681667.0"
"1573152009122","2708626.0"
"1573152009178","2731192.0"
"1573152009226","2724563.0"
"1573152009271","2725050.0"
"1573152009319","2710414.0"
"1573152009372","2695283.0"
"1573152009422","2689042.0"
"1573152009472","2679860.0"
"1573152009520","2657227.0"
"1573152009564","2646999.0"
"1573152009621","2654319.0"
"1573152009665","2670051.0"
"1573152009712","2691850.0"
"1573152009758","2711060.0"
"1573152009811","2714294.0"
"1573152009855","2698430.0"
"1573152009911","2679153.0"
"1573152009960","2669210.0"
"1573152010006","2660727.0"
"1573152010054","2648472.0"
"1573152010099","2640609.0"
"1573152010151","2660922.0"
"1573152010199","2683400.0"
"1573152010248","2696817.0"
"1573152010296","2696131.0"
"1573152010344","2701285.0"
"1573152010395","2690389.0"
"1573152010447","2663602.0"
"1573152010493","2643265.0"
"1573152010539","2618112.0"
"1573152010591","2615397.0"
"1573152010637","2638476.0"
"1573152010691","2666430.0"
"1573152010735","2689428.0"
"1573152010787","2697884.0"
"1573152010838","2693396.0"
"1573152010881","2686908.0"
"1573152010937","2687721.0"
"1573152010984","2682248.0"
"1573152011033","2670545.0"
"1573152011076","2667109.0"
"1573152011124","2678239.0"
"1573152011175","2689743.0"
"1573152011227","2694716.0"
"1573152011275","2693457.0"
"1573152011320","2677185.0"
"1573152011377","2671731.0"
"1573152011423","2666457.0"
"1573152011472","2660929.0"
"1573152011516","2644431.0"
"1573152011564","2629920.0"
"1573152011620","2620899.0"
"1573152011667","2628841.0"
"1573152011712","2638210.0"
"1573152011759","2650772.0"
"1573152011808","2642765.0"
"1573152011855","2632955.0"
"1573152011911","2623520.0"
"1573152011956","2625060.0"
"1573152012002","2626399.0"
"1573152012053","2626761.0"
"1573152012099","2612303.0"
"1573152012154","2604200.0"
"1573152012203","2611464.0"
"1573152012252","2621372.0"
"1573152012294","2622732.0"
"1573152012344","2617723.0"
"1573152012397","2609196.0"
"1573152012441","2605927.0"
"1573152012498","2597812.0"
"1573152012539","2593631.0"
"1573152012588","2601313.0"
"1573152012643","2606648.0"
"1573152012684","2610769.0"
"1573152012736","2615824.0"
"1573152012782","2614343.0"
"1573152012835","2609089.0"
"1573152012879","2608156.0"
"1573152012928","2608343.0"
"1573152012976","2608215.0"
"1573152013025","2603841.0"
"1573152013076","2578188.0"
"1573152013123","2578769.0"
"1573152013176","2590998.0"
"1573152013223","2605448.0"
"1573152013275","2616303.0"
"1573152013320","2613983.0"
"1573152013367","2615243.0"
"1573152013422","2615736.0"
"1573152013471","2607227.0"
"1573152013515","2614158.0"
"1573152013564","2616291.0"
"1573152013619","2645839.0"
"1573152013662","2681480.0"
"1573152013715","2698957.0"
"1573152013759","2683993.0"
"1573152013808","2659581.0"
"1573152013858","2644565.0"
"1573152013911","2639130.0"
"1573152013958","2636229.0"
"1573152014007","2627126.0"
"1573152014057","2610202.0"
"1573152014099","2612089.0"
"1573152014156","2638648.0"
"1573152014204","2677605.0"
"1573152014251","2662556.0"
"1573152014298","2647058.0"
"1573152014344","2642497.0"
"1573152014398","2630875.0"
"1573152014448","2624920.0"
"1573152014498","2605895.0"
"1573152014540","2594291.0"
"1573152014588","2613323.0"
"1573152014639","2653305.0"
"1573152014692","2671018.0"
"1573152014743","2681681.0"
"1573152014785","2673330.0"
"1573152014838","2658553.0"
"1573152014887","2649358.0"
"1573152014938","2650278.0"
"1573152014980","2645944.0"
"1573152015029","2642364.0"
"1573152015077","2638017.0"
"1573152015132","2643758.0"
"1573152015179","2660049.0"
"1573152015229","2691122.0"
"1573152015280","2696096.0"
"1573152015321","2689995.0"
"1573152015377","2673099.0"
"1573152015424","2656493.0"
"1573152015474","2644258.0"
"1573152015517","2635276.0"
"1573152015566","2632094.0"
"1573152015622","2640877.0"
"1573152015669","2665516.0"
"1573152015723","2677566.0"
"1573152015762","2681226.0"
"1573152015810","2679998.0"
"1573152015863","2673164.0"
"1573152015913","2663649.0"
"1573152015960","2655993.0"
"1573152016011","2649191.0"
"1573152016057","2637669.0"
"1573152016106","2637949.0"
"1573152016157","2653647.0"
"1573152016205","2668296.0"
"1573152016249","2670230.0"
"1573152016298","2665662.0"
"1573152016347","2666069.0"
"1573152016399","2663176.0"
"1573152016445","2658048.0"
"1573152016495","2642990.0"
"1573152016542","2632588.0"
"1573152016589","2636430.0"
"1573152016645","2655774.0"
"1573152016694","2665788.0"
"1573152016742","2675679.0"
"1573152016787","2663395.0"
"1573152016843","2656467.0"
"1573152016889","2649266.0"
"1573152016938","2644857.0"
"1573152016981","2634689.0"
"1573152017033","2613804.0"
"1573152017078","2609068.0"
"1573152017133","2628961.0"
"1573152017184","2652025.0"
"1573152017231","2659714.0"
"1573152017278","2660882.0"
"1573152017321","2657314.0"
"1573152017378","2663661.0"
"1573152017425","2667217.0"
"1573152017475","2652986.0"
"1573152017521","2635448.0"
"1573152017566","2622852.0"
"1573152017623","2635509.0"
"1573152017670","2657367.0"
"1573152017718","2662769.0"
"1573152017761","2658442.0"
"1573152017810","2650599.0"
"1573152017863","2646237.0"
"1573152017915","2643864.0"
"1573152017962","2641789.0"
"1573152018004","2628201.0"
"1573152018055","2616850.0"
"1573152018103","2616423.0"
"1573152018152","2624345.0"
"1573152018200","2636968.0"
"1573152018252","2644918.0"
"1573152018299","2643817.0"
"1573152018346","2642297.0"
"1573152018400","2647838.0"
"1573152018450","2641664.0"
"1573152018493","2621578.0"
"1573152018542","2602201.0"
"1573152018592","2606549.0"
"1573152018639","2627413.0"
"1573152018690","2640770.0"
"1573152018739","2655032.0"
"1573152018786","2662361.0"
"1573152018834","2655573.0"
"1573152018883","2652785.0"
"1573152018937","2657773.0"
"1573152018981","2652925.0"
"1573152019033","2635229.0"
"1573152019080","2616098.0"
"1573152019132","2617764.0"
"1573152019180","2644004.0"
"1573152019229","2658348.0"
"1573152019274","2660221.0"
"1573152019321","2634487.0"
"1573152019378","2630188.0"
"1573152019422","2651706.0"
"1573152019468","2689489.0"
"1573152019523","2723484.0"
"1573152019566","2703526.0"
"1573152019622","2674511.0"
"1573152019670","2677445.0"
"1573152019718","2689009.0"
"1573152019762","2696636.0"
"1573152019811","2702805.0"
"1573152019864","2703112.0"
"1573152019913","2698343.0"
"1573152019962","2704719.0"
"1573152020005","2699871.0"
"1573152020055","2681927.0"
"1573152020107","2657227.0"
"1573152020158","2663868.0"
"1573152020204","2682867.0"
"1573152020250","2694670.0"
"1573152020308","2698705.0"
"1573152020359","2698892.0"
"1573152020395","2695430.0"
"1573152020443","2683566.0"
"1573152020493","2673657.0"
"1573152020541","2667816.0"
"1573152020591","2664356.0"
"1573152020643","2666142.0"
"1573152020687","2673178.0"
"1573152020736","2682981.0"
"1573152020784","2689208.0"
"1573152020835","2684086.0"
"1573152020883","2673859.0"
"1573152020932","2674759.0"
"1573152020983","2672237.0"
"1573152021030","2667176.0"
"1573152021082","2658842.0"
"1573152021128","2662355.0"
"1573152021177","2671270.0"
"1573152021225","2674464.0"
"1573152021276","2674192.0"
"1573152021322","2672824.0"
"1573152021374","2672237.0"
"1573152021422","2664488.0"
"1573152021469","2657247.0"
"1573152021522","2658033.0"
"1573152021569","2669151.0"
"1573152021618","2686795.0"
"1573152021667","2701051.0"
"1573152021716","2699170.0"
"1573152021765","2691462.0"
"1573152021814","2682500.0"
"1573152021862","2676372.0"
"1573152021912","2673538.0"
"1573152021960","2674458.0"
"1573152022008","2674952.0"
"1573152022055","2668970.0"
"1573152022106","2672538.0"
"1573152022156","2677465.0"
"1573152022202","2684580.0"
"1573152022253","2688168.0"
"1573152022304","2672918.0"
"1573152022350","2665642.0"
"1573152022399","2666290.0"
"1573152022448","2660449.0"
"1573152022496","2650871.0"
"1573152022545","2638323.0"
"1573152022594","2638949.0"
"1573152022650","2669557.0"
"1573152022696","2680799.0"
"1573152022745","2689129.0"
"1573152022794","2683341.0"
"1573152022842","2677172.0"
"1573152022889","2663003.0"
"1573152022940","2655853.0"
"1573152022989","2641550.0"
"1573152023038","2630560.0"
"1573152023085","2640130.0"
"1573152023132","2653819.0"
"1573152023181","2671398.0"
"1573152023230","2680326.0"
"1573152023278","2683379.0"
"1573152023331","2682833.0"
"1573152023380","2684013.0"
"1573152023426","2679379.0"
"1573152023477","2661835.0"
"1573152023525","2637730.0"
"1573152023575","2631562.0"
"1573152023623","2651207.0"
"1573152023668","2670998.0"
"1573152023717","2674958.0"
"1573152023766","2668584.0"
"1573152023815","2656461.0"
"1573152023865","2650158.0"
"1573152023913","2650839.0"
"1573152023961","2651198.0"
"1573152024011","2639355.0"
"1573152024059","2628941.0"
"1573152024108","2625227.0"
"1573152024158","2644664.0"
"1573152024206","2672284.0"
"1573152024256","2679753.0"
"1573152024306","2664582.0"
"1573152024352","2655607.0"
"1573152024401","2646272.0"
"1573152024450","2637383.0"
"1573152024499","2629447.0"
"1573152024547","2628727.0"
"1573152024597","2632701.0"
"1573152024652","2640457.0"
"1573152024698","2645018.0"
"1573152024740","2656680.0"
"1573152024794","2667515.0"
"1573152024844","2669271.0"
"1573152024891","2661481.0"
"1573152024942","2666717.0"
"1573152024990","2669850.0"
"1573152025040","2663836.0"
"1573152025093","2655266.0"
"1573152025136","2649419.0"
"1573152025185","2648945.0"
"1573152025235","2658708.0"
"1573152025277","2666957.0"
"1573152025326","2660049.0"
"1573152025376","2663263.0"
"1573152025426","2660829.0"
"1573152025473","2650453.0"
"1573152025521","2641897.0"
"1573152025572","2646099.0"
"1573152025622","2659269.0"
"1573152025670","2679052.0"
"1573152025719","2676939.0"
"1573152025766","2667503.0"
"1573152025817","2653352.0"
"1573152025871","2640071.0"
"1573152025919","2636202.0"
"1573152025967","2636476.0"
"1573152026018","2630855.0"
"1573152026061","2624193.0"
"1573152026115","2619526.0"
"1573152026163","2628593.0"
"1573152026208","2636155.0"
"1573152026260","2623772.0"
"1573152026308","2615318.0"
"1573152026355","2606955.0"
"1573152026401","2601400.0"
"1573152026455","2596073.0"
"1573152026504","2589431.0"
"1573152026547","2575993.0"
"1573152026603","2578734.0"
"1573152026654","2599107.0"
"1573152026699","2621265.0"
"1573152026748","2634682.0"
"1573152026798","2625172.0"
"1573152026845","2609089.0"
"1573152026890","2596512.0"
"1573152026938","2598859.0"
"1573152026993","2596272.0"
"1573152027041","2583424.0"
"1573152027089","2569226.0"
"1573152027139","2572592.0"
"1573152027186","2588923.0"
"1573152027238","2601033.0"
"1573152027285","2603440.0"
"1573152027328","2582857.0"
"1573152027382","2575555.0"
"1573152027435","2568431.0"
"1573152027476","2555749.0"
"1573152027528","2541226.0"
"1573152027578","2544680.0"
"1573152027625","2563937.0"
"1573152027671","2583856.0"
"1573152027724","2595439.0"
"1573152027770","2597146.0"
"1573152027822","2588517.0"
"1573152027870","2567332.0"
"1573152027919","2552742.0"
"1573152027968","2549148.0"
"1573152028017","2541519.0"
"1573152028061","2537585.0"
"1573152028108","2539473.0"
"1573152028162","2560871.0"
"1573152028213","2586910.0"
"1573152028260","2601220.0"
"1573152028309","2588856.0"
"1573152028354","2579029.0"
"1573152028401","2560711.0"
"1573152028459","2547041.0"
"1573152028504","2540586.0"
"1573152028551","2533770.0"
"1573152028603","2555270.0"
"1573152028651","2588450.0"
"1573152028700","2612530.0"
"1573152028742","2609208.0"
"1573152028797","2598960.0"
"1573152028841","2588710.0"
"1573152028895","2581089.0"
"1573152028938","2575835.0"
"1573152028997","2565006.0"
"1573152029042","2555670.0"
"1573152029090","2546060.0"
"1573152029139","2560103.0"
"1573152029187","2569211.0"
"1573152029237","2585122.0"
"1573152029285","2599600.0"
"1573152029334","2595907.0"
"1573152029383","2594078.0"
"1573152029432","2599586.0"
"1573152029482","2594866.0"
"1573152029529","2568673.0"
"1573152029579","2583210.0"
"1573152029629","2643797.0"
"1573152029672","2691155.0"
"1573152029725","2709081.0"
"1573152029775","2700151.0"
"1573152029822","2693589.0"
"1573152029872","2689361.0"
"1573152029921","2687154.0"
"1573152029969","2682961.0"
"1573152030018","2673452.0"
"1573152030062","2651686.0"
"1573152030115","2635843.0"
"1573152030159","2635229.0"
"1573152030214","2650812.0"
"1573152030260","2646078.0"
"1573152030310","2633362.0"
"1573152030356","2625726.0"
"1573152030402","2622693.0"
"1573152030459","2623380.0"
"1573152030505","2618819.0"
"1573152030553","2609763.0"
"1573152030604","2614897.0"
"1573152030653","2622264.0"
"1573152030696","2638695.0"
"1573152030744","2640483.0"
"1573152030801","2635296.0"
"1573152030847","2631734.0"
"1573152030900","2629587.0"
"1573152030945","2629847.0"
"1573152030995","2622372.0"
"1573152031043","2618237.0"
"1573152031091","2613337.0"
"1573152031141","2624359.0"
"1573152031189","2638262.0"
"1573152031237","2633876.0"
"1573152031285","2634721.0"
"1573152031338","2625200.0"
"1573152031385","2618819.0"
"1573152031434","2605941.0"
"1573152031479","2602715.0"
"1573152031527","2590665.0"
"1573152031577","2590258.0"
"1573152031624","2616192.0"
"1573152031677","2636649.0"
"1573152031726","2644024.0"
"1573152031776","2650313.0"
"1573152031824","2639949.0"
"1573152031872","2632894.0"
"1573152031922","2629241.0"
"1573152031969","2626706.0"
"1573152032015","2613629.0"
"1573152032063","2600653.0"
"1573152032114","2603534.0"
"1573152032165","2621960.0"
"1573152032214","2634955.0"
"1573152032264","2645465.0"
"1573152032312","2651058.0"
"1573152032357","2638297.0"
"1573152032404","2624560.0"
"1573152032461","2607715.0"
"1573152032506","2595478.0"
"1573152032552","2589958.0"
"1573152032603","2605620.0"
"1573152032654","2621452.0"
"1573152032701","2624560.0"
"1573152032751","2620218.0"
"1573152032803","2616104.0"
"1573152032849","2612656.0"
"1573152032901","2609109.0"
"1573152032946","2604328.0"
"1573152032995","2589470.0"
"1573152033042","2575581.0"
"1573152033093","2558177.0"
"1573152033137","2563978.0"
"1573152033190","2584189.0"
"1573152033243","2596486.0"
"1573152033288","2601614.0"
"1573152033337","2598306.0"
"1573152033386","2589064.0"
"1573152033434","2586951.0"
"1573152033482","2577887.0"
"1573152033532","2561611.0"
"1573152033578","2561397.0"
"1573152033630","2579728.0"
"1573152033681","2595779.0"
"1573152033727","2609009.0"
"1573152033776","2617144.0"
"1573152033820","2607294.0"
"1573152033874","2596979.0"
"1573152033916","2596112.0"
"1573152033967","2597313.0"
"1573152034019","2588111.0"
"1573152034064","2571467.0"
"1573152034122","2562265.0"
"1573152034166","2584289.0"
"1573152034216","2611789.0"
"1573152034264","2615491.0"
"1573152034313","2610322.0"
"1573152034357","2606435.0"
"1573152034405","2595340.0"
"1573152034461","2584435.0"
"1573152034503","2574553.0"
"1573152034553","2577942.0"
"1573152034605","2588290.0"
"1573152034654","2598139.0"
"1573152034697","2602593.0"
"1573152034752","2615470.0"
"1573152034803","2615923.0"
"1573152034849","2612343.0"
"1573152034903","2606195.0"
"1573152034947","2611102.0"
"1573152034997","2610716.0"
"1573152035043","2605862.0"
"1573152035089","2600433.0"
"1573152035141","2607101.0"
"1573152035192","2622106.0"
"1573152035243","2619038.0"
"1573152035283","2617910.0"
"1573152035332","2608101.0"
"1573152035380","2608221.0"
"1573152035431","2606134.0"
"1573152035484","2597166.0"
"1573152035534","2584064.0"
"1573152035578","2591258.0"
"1573152035626","2607022.0"
"1573152035678","2615037.0"
"1573152035725","2617323.0"
"1573152035775","2608469.0"
"1573152035822","2603855.0"
"1573152035869","2601053.0"
"1573152035925","2602087.0"
"1573152035973","2598721.0"
"1573152036020","2583430.0"
"1573152036066","2592705.0"
"1573152036119","2631442.0"
"1573152036164","2676673.0"
"1573152036218","2686488.0"
"1573152036266","2673684.0"
"1573152036317","2657267.0"
"1573152036364","2661969.0"
"1573152036408","2660748.0"
"1573152036463","2652893.0"
"1573152036507","2643370.0"
"1573152036556","2635454.0"
"1573152036605","2641056.0"
"1573152036654","2658375.0"
"1573152036700","2685521.0"
"1573152036756","2717795.0"
"1573152036802","2713008.0"
"1573152036852","2704239.0"
"1573152036905","2698530.0"
"1573152036949","2694690.0"
"1573152037000","2691403.0"
"1573152037047","2695476.0"
"1573152037093","2695403.0"
"1573152037139","2718657.0"
"1573152037195","2738661.0"
"1573152037244","2740587.0"
"1573152037292","2730626.0"
"1573152037341","2721950.0"
"1573152037390","2715656.0"
"1573152037438","2708660.0"
"1573152037485","2696143.0"
"1573152037538","2687420.0"
"1573152037581","2689436.0"
"1573152037634","2700745.0"
"1573152037686","2713020.0"
"1573152037731","2721582.0"
"1573152037781","2718075.0"
"1573152037824","2708033.0"
"1573152037878","2698971.0"
"1573152037925","2691888.0"
"1573152037971","2687309.0"
"1573152038018","2685600.0"
"1573152038070","2680413.0"
"1573152038121","2692528.0"
"1573152038166","2709093.0"
"1573152038219","2719268.0"
"1573152038263","2711848.0"
"1573152038318","2714361.0"
"1573152038361","2711740.0"
"1573152038411","2700184.0"
"1573152038465","2683408.0"
"1573152038512","2670811.0"
"1573152038558","2673972.0"
"1573152038610","2694337.0"
"1573152038659","2714408.0"
"1573152038701","2724524.0"
"1573152038759","2720349.0"
"1573152038803","2711580.0"
"1573152038851","2704073.0"
"1573152038907","2703786.0"
"1573152038952","2683893.0"
"1573152039001","2640170.0"
"1573152039051","2627553.0"
"1573152039094","2646584.0"
"1573152039148","2676518.0"
"1573152039196","2702559.0"
"1573152039247","2701370.0"
"1573152039294","2664789.0"
"1573152039346","2643069.0"
"1573152039388","2642090.0"
"1573152039442","2641523.0"
"1573152039491","2630668.0"
"1573152039539","2617817.0"
"1573152039586","2617612.0"
"1573152039638","2632248.0"
"1573152039688","2688861.0"
"1573152039735","2708266.0"
"1573152039777","2697431.0"
"1573152039828","2694330.0"
"1573152039877","2709260.0"
"1573152039923","2712427.0"
"1573152039976","2705347.0"
"1573152040024","2708280.0"
"1573152040076","2718715.0"
"1573152040125","2718969.0"
"1573152040174","2725103.0"
"1573152040223","2720796.0"
"1573152040271","2710627.0"
"1573152040319","2705806.0"
"1573152040369","2699158.0"
"1573152040413","2686474.0"
"1573152040462","2675265.0"
"1573152040516","2662696.0"
"1573152040560","2667477.0"
"1573152040613","2678133.0"
"1573152040661","2671197.0"
"1573152040704","2661449.0"
"1573152040760","2655941.0"
"1573152040805","2653620.0"
"1573152040856","2649652.0"
"1573152040908","2643984.0"
"1573152040950","2637155.0"
"1573152041004","2623611.0"
"1573152041052","2624113.0"
"1573152041097","2647385.0"
"1573152041148","2650091.0"
"1573152041201","2648939.0"
"1573152041248","2637555.0"
"1573152041297","2628526.0"
"1573152041351","2626133.0"
"1573152041394","2624085.0"
"1573152041443","2609716.0"
"1573152041487","2599206.0"
"1573152041542","2612410.0"
"1573152041583","2628506.0"
"1573152041640","2638043.0"
"1573152041691","2644352.0"
"1573152041737","2640404.0"
"1573152041784","2632027.0"
"1573152041834","2615263.0"
"1573152041882","2603381.0"
"1573152041931","2595813.0"
"1573152041981","2585530.0"
"1573152042024","2578588.0"
"1573152042078","2598339.0"
"1573152042129","2621872.0"
"1573152042176","2641284.0"
"1573152042224","2655727.0"
"1573152042274","2645225.0"
"1573152042321","2637722.0"
"1573152042371","2615283.0"
"1573152042414","2599241.0"
"1573152042464","2590405.0"
"1573152042511","2596325.0"
"1573152042562","2606262.0"
"1573152042611","2622872.0"
"1573152042664","2635463.0"
"1573152042712","2649199.0"
"1573152042762","2646572.0"
"1573152042804","2640489.0"
"1573152042860","2637015.0"
"1573152042912","2633195.0"
"1573152042957","2620899.0"
"1573152043006","2607274.0"
"1573152043052","2603767.0"
"1573152043098","2626714.0"
"1573152043152","2643636.0"
"1573152043201","2652966.0"
"1573152043250","2646824.0"
"1573152043293","2645331.0"
"1573152043348","2640436.0"
"1573152043397","2637210.0"
"1573152043445","2632175.0"
"1573152043489","2621925.0"
"1573152043543","2621679.0"
"1573152043587","2648452.0"
"1573152043641","2672658.0"
"1573152043694","2685889.0"
"1573152043734","2692089.0"
"1573152043787","2689042.0"
"1573152043838","2681673.0"
"1573152043884","2681126.0"
"1573152043935","2677879.0"
"1573152043982","2675978.0"
"1573152044026","2674145.0"
"1573152044081","2670145.0"
"1573152044132","2677959.0"
"1573152044178","2698863.0"
"1573152044227","2691669.0"
"1573152044277","2680513.0"
"1573152044319","2672544.0"
"1573152044374","2668009.0"
"1573152044417","2661115.0"
"1573152044467","2650292.0"
"1573152044513","2647659.0"
"1573152044562","2669303.0"
"1573152044612","2700032.0"
"1573152044661","2719510.0"
"1573152044712","2723837.0"
"1573152044757","2708912.0"
"1573152044808","2697331.0"
"1573152044858","2693349.0"
"1573152044908","2686327.0"
"1573152044955","2681067.0"
"1573152045004","2679846.0"
"1573152045053","2683127.0"
"1573152045101","2700777.0"
"1573152045152","2713274.0"
"1573152045200","2730185.0"
"1573152045250","2722736.0"
"1573152045296","2715814.0"
"1573152045348","2701098.0"
"1573152045396","2684180.0"
"1573152045444","2657688.0"
"1573152045494","2659742.0"
"1573152045542","2679460.0"
"1573152045596","2697423.0"
"1573152045644","2711253.0"
"1573152045691","2725717.0"
"1573152045742","2728630.0"
"1573152045793","2718602.0"
"1573152045833","2702258.0"
"1573152045888","2700204.0"
"1573152045938","2696064.0"
"1573152045985","2674306.0"
"1573152046036","2645892.0"
"1573152046083","2675346.0"
"1573152046133","2714642.0"
"1573152046182","2746215.0"
"1573152046235","2759066.0"
"1573152046280","2772315.0"
"1573152046328","2772289.0"
"1573152046377","2769869.0"
"1573152046420","2745622.0"
"1573152046476","2717468.0"
"1573152046523","2684300.0"
"1573152046569","2671416.0"
"1573152046617","2672845.0"
"1573152046667","2686161.0"
"1573152046717","2696911.0"
"1573152046763","2696897.0"
"1573152046818","2704473.0"
"1573152046865","2727704.0"
"1573152046911","2749297.0"
"1573152046963","2768987.0"
"1573152047015","2784211.0"
"1573152047058","2799209.0"
"1573152047109","2848820.0"
"1573152047159","2934954.0"
"1573152047208","2918085.0"
"1573152047251","2898639.0"
"1573152047305","2887383.0"
"1573152047349","2881515.0"
"1573152047403","2875920.0"
"1573152047450","2854822.0"
"1573152047497","2841138.0"
"1573152047550","2832670.0"
"1573152047599","2830929.0"
"1573152047646","2838292.0"
"1573152047695","2842187.0"
"1573152047745","2827822.0"
"1573152047795","2822588.0"
"1573152047843","2826554.0"
"1573152047892","2835685.0"
"1573152047942","2822367.0"
"1573152047984","2808358.0"
"1573152048033","2797214.0"
"1573152048088","2787533.0"
"1573152048135","2789180.0"
"1573152048185","2794920.0"
"1573152048232","2785505.0"
"1573152048283","2764353.0"
"1573152048333","2761427.0"
"1573152048381","2767741.0"
"1573152048428","2769536.0"
"1573152048480","2757898.0"
"1573152048523","2752237.0"
"1573152048575","2733746.0"
"1573152048625","2739041.0"
"1573152048675","2747936.0"
"1573152048723","2757152.0"
"1573152048772","2759566.0"
"1573152048822","2750224.0"
"1573152048871","2738366.0"
"1573152048920","2732838.0"
"1573152048968","2723937.0"
"1573152049016","2712167.0"
"1573152049060","2707573.0"
"1573152049112","2717409.0"
"1573152049163","2731318.0"
"1573152049212","2730258.0"
"1573152049255","2720910.0"
"1573152049311","2708520.0"
"1573152049354","2703945.0"
"1573152049402","2693048.0"
"1573152049455","2676305.0"
"1573152049506","2671744.0"
"1573152049552","2679098.0"
"1573152049598","2704032.0"
"1573152049653","2753017.0"
"1573152049695","2771988.0"
"1573152049749","2775736.0"
"1573152049795","2766780.0"
"1573152049846","2757313.0"
"1573152049896","2754718.0"
"1573152049944","2753237.0"
"1573152049994","2744856.0"
"1573152050042","2727771.0"
"1573152050091","2722590.0"
"1573152050136","2733852.0"
"1573152050189","2742194.0"
"1573152050235","2739848.0"
"1573152050285","2747623.0"
"1573152050335","2785125.0"
"1573152050379","2801156.0"
"1573152050429","2802316.0"
"1573152050478","2802336.0"
"1573152050526","2802482.0"
"1573152050578","2788199.0"
"1573152050628","2774729.0"
"1573152050675","2764174.0"
"1573152050721","2767721.0"
"1573152050776","2760007.0"
"1573152050824","2749903.0"
"1573152050873","2740482.0"
"1573152050920","2734112.0"
"1573152050970","2728259.0"
"1573152051021","2721330.0"
"1573152051063","2718628.0"
"1573152051116","2729258.0"
"1573152051166","2750876.0"
"1573152051215","2751471.0"
"1573152051257","2743401.0"
"1573152051312","2731499.0"
"1573152051356","2717009.0"
"1573152051403","2709560.0"
"1573152051456","2692855.0"
"1573152051499","2685874.0"
"1573152051554","2700271.0"
"1573152051606","2716342.0"
"1573152051654","2731745.0"
"1573152051699","2738653.0"
"1573152051752","2730345.0"
"1573152051802","2715028.0"
"1573152051849","2701557.0"
"1573152051901","2696116.0"
"1573152051946","2694629.0"
"1573152051996","2689682.0"
"1573152052039","2679852.0"
"1573152052094","2689308.0"
"1573152052136","2737093.0"
"1573152052191","2791673.0"
"1573152052240","2797628.0"
"1573152052288","2796267.0"
"1573152052341","2822834.0"
"1573152052385","2837459.0"
"1573152052433","2924586.0"
"1573152052482","2956647.0"
"1573152052533","2940023.0"
"1573152052579","2941750.0"
"1573152052630","2916811.0"
"1573152052683","2889537.0"
"1573152052728","2873807.0"
"1573152052777","2852589.0"
"1573152052824","2829368.0"
"1573152052870","2809831.0"
"1573152052919","2795855.0"
"1573152052972","2782344.0"
"1573152053017","2759598.0"
"1573152053065","2738941.0"
"1573152053120","2739094.0"
"1573152053168","2751770.0"
"1573152053217","2754785.0"
"1573152053261","2748850.0"
"1573152053316","2734559.0"
"1573152053363","2720223.0"
"1573152053406","2714262.0"
"1573152053460","2702992.0"
"1573152053505","2690182.0"
"1573152053558","2681447.0"
"1573152053604","2697990.0"
"1573152053657","2717848.0"
"1573152053705","2725471.0"
"1573152053756","2727665.0"
"1573152053804","2731178.0"
"1573152053854","2719142.0"
"1573152053896","2717789.0"
"1573152053947","2708480.0"
"1573152054003","2711881.0"
"1573152054049","2719715.0"
"1573152054099","2736993.0"
"1573152054147","2753217.0"
"1573152054197","2770976.0"
"1573152054245","2775856.0"
"1573152054293","2764881.0"
"1573152054339","2771783.0"
"1573152054391","2790879.0"
"1573152054438","2840939.0"
"1573152054488","2852549.0"
"1573152054532","2821367.0"
"1573152054581","2801009.0"
"1573152054630","2787752.0"
"1573152054677","2776443.0"
"1573152054730","2768828.0"
"1573152054779","2765393.0"
"1573152054827","2756933.0"
"1573152054877","2752424.0"
"1573152054929","2742869.0"
"1573152054977","2733206.0"
"1573152055025","2745721.0"
"1573152055074","2849060.0"
"1573152055118","2930427.0"
"1573152055172","2927961.0"
"1573152055223","2893372.0"
"1573152055265","2855289.0"
"1573152055319","2830823.0"
"1573152055361","2804236.0"
"1573152055413","2799422.0"
"1573152055460","2786960.0"
"1573152055509","2768329.0"
"1573152055559","2757833.0"
"1573152055612","2754332.0"
"1573152055661","2762146.0"
"1573152055711","2754759.0"
"1573152055754","2756278.0"
"1573152055808","2759206.0"
"1573152055856","2749163.0"
"1573152055898","2747310.0"
"1573152055954","2745289.0"
"1573152056003","2740221.0"
"1573152056046","2733980.0"
"1573152056101","2731725.0"
"1573152056149","2695044.0"
"1573152056198","2698044.0"
"1573152056240","2702205.0"
"1573152056296","2701385.0"
"1573152056343","2697837.0"
"1573152056386","2680947.0"
"1573152056440","2676992.0"
"1573152056484","2664915.0"
"1573152056540","2657607.0"
"1573152056583","2661755.0"
"1573152056632","2665122.0"
"1573152056679","2676372.0"
"1573152056736","2686722.0"
"1573152056786","2699144.0"
"1573152056832","2704073.0"
"1573152056881","2706358.0"
"1573152056930","2702732.0"
"1573152056979","2685600.0"
"1573152057028","2667223.0"
"1573152057077","2662068.0"
"1573152057122","2673284.0"
"1573152057169","2685442.0"
"1573152057225","2694383.0"
"1573152057271","2700137.0"
"1573152057321","2705466.0"
"1573152057369","2702512.0"
"1573152057418","2686614.0"
"1573152057465","2676071.0"
"1573152057517","2662129.0"
"1573152057561","2662135.0"
"1573152057614","2669937.0"
"1573152057662","2689556.0"
"1573152057711","2700117.0"
"1573152057760","2701671.0"
"1573152057807","2696143.0"
"1573152057858","2694377.0"
"1573152057904","2698118.0"
"1573152057955","2692221.0"
"1573152058005","2679560.0"
"1573152058052","2663482.0"
"1573152058102","2670583.0"
"1573152058152","2685407.0"
"1573152058199","2695298.0"
"1573152058244","2705519.0"
"1573152058298","2700172.0"
"1573152058343","2689129.0"
"1573152058389","2676246.0"
"1573152058447","2663316.0"
"1573152058492","2658480.0"
"1573152058542","2665595.0"
"1573152058588","2671250.0"
"1573152058641","2691789.0"
"1573152058684","2696370.0"
"1573152058738","2691275.0"
"1573152058786","2690816.0"
"1573152058835","2690681.0"
"1573152058887","2684726.0"
"1573152058933","2671410.0"
"1573152058981","2644931.0"
"1573152059030","2634183.0"
"1573152059080","2638537.0"
"1573152059124","2651672.0"
"1573152059178","2667463.0"
"1573152059228","2669996.0"
"1573152059274","2660122.0"
"1573152059322","2652546.0"
"1573152059372","2656101.0"
"1573152059422","2661642.0"
"1573152059470","2650999.0"
"1573152059520","2644530.0"
"1573152059564","2643063.0"
"1573152059616","2649831.0"
"1573152059666","2658787.0"
"1573152059716","2681366.0"
"1573152059763","2696517.0"
"1573152059812","2695677.0"
"1573152059856","2691456.0"
"1573152059906","2686380.0"
"1573152059959","2664283.0"
"1573152060012","2644837.0"
"1573152060055","2639104.0"
"1573152060107","2655821.0"
"1573152060155","2679606.0"
"1573152060203","2688501.0"
"1573152060246","2698877.0"
"1573152060294","2699438.0"
"1573152060343","2700704.0"
"1573152060393","2696630.0"
"1573152060443","2684188.0"
"1573152060492","2667497.0"
"1573152060541","2671071.0"
"1573152060588","2675913.0"
"1573152060643","2687622.0"
"1573152060692","2696710.0"
"1573152060741","2701826.0"
"1573152060785","2711720.0"
"1573152060839","2716541.0"
"1573152060890","2715381.0"
"1573152060936","2710966.0"
"1573152060985","2690541.0"
"1573152061034","2660748.0"
"1573152061082","2657922.0"
"1573152061128","2687616.0"
"1573152061182","2709739.0"
"1573152061226","2725658.0"
"1573152061280","2724270.0"
"1573152061332","2723911.0"
"1573152061376","2726771.0"
"1573152061424","2713681.0"
"1573152061470","2701539.0"
"1573152061523","2688388.0"
"1573152061568","2683808.0"
"1573152061622","2697730.0"
"1573152061668","2727365.0"
"1573152061719","2737361.0"
"1573152061769","2736073.0"
"1573152061816","2735246.0"
"1573152061865","2734839.0"
"1573152061914","2726765.0"
"1573152061963","2705265.0"
"1573152062007","2676711.0"
"1573152062056","2662668.0"
"1573152062109","2666016.0"
"1573152062158","2690216.0"
"1573152062206","2723484.0"
"1573152062256","2723210.0"
"1573152062304","2718029.0"
"1573152062349","2718996.0"
"1573152062402","2717716.0"
"1573152062446","2709061.0"
"1573152062501","2694836.0"
"1573152062546","2698103.0"
"1573152062596","2697504.0"
"1573152062646","2703219.0"
"1573152062690","2714695.0"
"1573152062743","2729805.0"
"1573152062791","2735681.0"
"1573152062842","2734892.0"
"1573152062892","2735514.0"
"1573152062938","2722336.0"
"1573152062987","2700391.0"
"1573152063037","2696671.0"
"1573152063081","2708807.0"
"1573152063130","2714002.0"
"1573152063182","2722490.0"
"1573152063229","2727870.0"
"1573152063280","2722417.0"
"1573152063333","2728706.0"
"1573152063379","2735485.0"
"1573152063421","2726643.0"
"1573152063476","2712795.0"
"1573152063520","2710280.0"
"1573152063574","2721903.0"
"1573152063618","2757237.0"
"1573152063669","2778363.0"
"1573152063721","2774877.0"
"1573152063771","2761205.0"
"1573152063819","2754163.0"
"1573152063867","2749710.0"
"1573152063917","2753844.0"
"1573152063959","2748275.0"
"1573152064013","2725904.0"
"1573152064059","2730991.0"
"1573152064111","2755344.0"
"1573152064160","2787451.0"
"1573152064209","2806903.0"
"1573152064261","2804270.0"
"1573152064307","2791168.0"
"1573152064353","2779024.0"
"1573152064404","2770775.0"
"1573152064455","2760220.0"
"1573152064502","2743015.0"
"1573152064549","2733366.0"
"1573152064600","2735774.0"
"1573152064649","2747662.0"
"1573152064694","2762026.0"
"1573152064746","2763973.0"
"1573152064795","2757766.0"
"1573152064844","2750782.0"
"1573152064890","2736046.0"
"1573152064942","2725343.0"
"1573152064995","2721009.0"
"1573152065033","2714496.0"
"1573152065083","2731479.0"
"1573152065133","2750291.0"
"1573152065185","2751869.0"
"1573152065233","2759133.0"
"1573152065278","2753231.0"
"1573152065336","2750317.0"
"1573152065381","2751618.0"
"1573152065430","2747209.0"
"1573152065475","2727684.0"
"1573152065521","2711740.0"
"1573152065573","2708532.0"
"1573152065621","2714782.0"
"1573152065671","2718762.0"
"1573152065716","2720316.0"
"1573152065772","2719876.0"
"1573152065817","2712187.0"
"1573152065866","2707813.0"
"1573152065916","2706779.0"
"1573152065964","2706533.0"
"1573152066013","2682660.0"
"1573152066061","2665110.0"
"1573152066111","2669551.0"
"1573152066159","2683814.0"
"1573152066210","2693636.0"
"1573152066257","2698451.0"
"1573152066305","2654500.0"
"1573152066354","2663810.0"
"1573152066403","2666162.0"
"1573152066454","2666770.0"
"1573152066501","2661136.0"
"1573152066549","2661422.0"
"1573152066603","2666343.0"
"1573152066651","2664962.0"
"1573152066697","2665409.0"
"1573152066743","2685047.0"
"1573152066796","2706887.0"
"1573152066842","2714735.0"
"1573152066894","2714461.0"
"1573152066945","2712421.0"
"1573152066995","2700637.0"
"1573152067043","2699438.0"
"1573152067092","2700350.0"
"1573152067136","2718768.0"
"1573152067188","2717415.0"
"1573152067236","2724165.0"
"1573152067286","2719788.0"
"1573152067337","2714174.0"
"1573152067384","2714601.0"
"1573152067434","2724378.0"
"1573152067482","2713362.0"
"1573152067532","2704278.0"
"1573152067580","2708234.0"
"1573152067628","2721097.0"
"1573152067675","2740868.0"
"1573152067726","2750858.0"
"1573152067773","2748783.0"
"1573152067823","2741914.0"
"1573152067873","2731859.0"
"1573152067923","2732399.0"
"1573152067968","2731999.0"
"1573152068021","2714142.0"
"1573152068063","2685708.0"
"1573152068113","2681199.0"
"1573152068165","2700672.0"
"1573152068216","2732139.0"
"1573152068261","2745809.0"
"1573152068312","2740701.0"
"1573152068360","2731572.0"
"1573152068408","2730365.0"
"1573152068455","2723844.0"
"1573152068500","2712766.0"
"1573152068554","2708912.0"
"1573152068604","2705586.0"
"1573152068654","2718075.0"
"1573152068702","2727090.0"
"1573152068750","2734086.0"
"1573152068800","2731826.0"
"1573152068848","2725410.0"
"1573152068894","2709313.0"
"1573152068945","2704046.0"
"1573152068995","2697677.0"
"1573152069043","2688075.0"
"1573152069092","2665650.0"
"1573152069137","2705347.0"
"1573152069190","2738208.0"
"1573152069238","2751124.0"
"1573152069287","2754937.0"
"1573152069339","2746869.0"
"1573152069386","2737180.0"
"1573152069430","2723449.0"
"1573152069483","2710987.0"
"1573152069532","2701557.0"
"1573152069578","2702171.0"
"1573152069629","2708280.0"
"1573152069677","2728364.0"
"1573152069728","2748097.0"
"1573152069778","2756158.0"
"1573152069820","2752518.0"
"1573152069874","2745929.0"
"1573152069916","2745856.0"
"1573152069971","2741069.0"
"1573152070015","2730424.0"
"1573152070064","2719709.0"
"1573152070121","2726158.0"
"1573152070166","2735526.0"
"1573152070217","2757713.0"
"1573152070258","2769194.0"
"1573152070313","2755825.0"
"1573152070362","2754391.0"
"1573152070410","2756898.0"
"1573152070459","2757518.0"
"1573152070507","2742521.0"
"1573152070557","2726144.0"
"1573152070605","2732960.0"
"1573152070651","2752711.0"
"1573152070699","2761687.0"
"1573152070754","2770021.0"
"1573152070795","2768688.0"
"1573152070850","2763733.0"
"1573152070902","2756664.0"
"1573152070947","2755925.0"
"1573152071001","2750624.0"
"1573152071045","2744602.0"
"1573152071096","2731251.0"
"1573152071139","2733352.0"
"1573152071188","2748529.0"
"1573152071236","2760492.0"
"1573152071291","2762207.0"
"1573152071341","2759139.0"
"1573152071388","2756179.0"
"1573152071442","2737340.0"
"1573152071485","2727491.0"
"1573152071535","2725331.0"
"1573152071584","2735412.0"
"1573152071633","2736341.0"
"1573152071676","2747223.0"
"1573152071731","2758465.0"
"1573152071782","2768940.0"
"1573152071829","2772996.0"
"1573152071877","2760399.0"
"1573152071926","2756492.0"
"1573152071976","2753523.0"
"1573152072022","2739000.0"
"1573152072071","2729652.0"
"1573152072117","2739240.0"
"1573152072170","2752816.0"
"1573152072220","2766514.0"
"1573152072268","2766067.0"
"1573152072316","2760366.0"
"1573152072365","2759259.0"
"1573152072414","2756106.0"
"1573152072463","2752217.0"
"1573152072511","2738653.0"
"1573152072557","2737206.0"
"1573152072609","2750657.0"
"1573152072658","2771189.0"
"1573152072706","2776137.0"
"1573152072758","2770362.0"
"1573152072804","2757772.0"
"1573152072853","2749864.0"
"1573152072900","2746183.0"
"1573152072950","2745622.0"
"1573152073001","2755612.0"
"1573152073048","2790460.0"
"1573152073097","2796068.0"
"1573152073141","2802836.0"
"1573152073192","2808704.0"
"1573152073239","2802129.0"
"1573152073287","2784146.0"
"1573152073339","2781224.0"
"1573152073385","2773995.0"
"1573152073435","2770141.0"
"1573152073484","2761705.0"
"1573152073536","2750457.0"
"1573152073584","2746729.0"
"1573152073635","2760559.0"
"1573152073681","2782045.0"
"1573152073733","2789993.0"
"1573152073784","2785391.0"
"1573152073822","2773288.0"
"1573152073872","2761573.0"
"1573152073922","2763133.0"
"1573152073971","2763020.0"
"1573152074021","2757012.0"
"1573152074068","2753391.0"
"1573152074123","2753838.0"
"1573152074171","2772349.0"
"1573152074219","2790893.0"
"1573152074268","2778916.0"
"1573152074313","2764273.0"
"1573152074365","2745014.0"
"1573152074411","2739401.0"
"1573152074460","2734652.0"
"1573152074512","2730459.0"
"1573152074560","2717368.0"
"1573152074609","2719370.0"
"1573152074660","2747483.0"
"1573152074705","2775722.0"
"1573152074756","2800828.0"
"1573152074801","2807058.0"
"1573152074854","2796848.0"
"1573152074903","2793654.0"
"1573152074946","2793961.0"
"1573152075000","2785659.0"
"1573152075048","2768414.0"
"1573152075099","2771149.0"
"1573152075142","2797409.0"
"1573152075196","2817852.0"
"1573152075246","2829137.0"
"1573152075293","2818753.0"
"1573152075346","2798216.0"
"1573152075390","2795887.0"
"1573152075439","2780812.0"
"1573152075488","2779003.0"
"1573152075537","2783351.0"
"1573152075581","2792960.0"
"1573152075637","2799043.0"
"1573152075686","2815485.0"
"1573152075735","2847234.0"
"1573152075782","2848400.0"
"1573152075830","2845147.0"
"1573152075879","2827948.0"
"1573152075926","2817633.0"
"1573152075977","2815353.0"
"1573152076024","2807844.0"
"1573152076072","2810892.0"
"1573152076124","2817747.0"
"1573152076171","2834291.0"
"1573152076220","2849347.0"
"1573152076267","2863717.0"
"1573152076318","2866925.0"
"1573152076367","2854456.0"
"1573152076416","2844814.0"
"1573152076466","2832229.0"
"1573152076509","2829596.0"
"1573152076558","2828503.0"
"1573152076605","2837871.0"
"1573152076661","2859790.0"
"1573152076706","2868658.0"
"1573152076758","2871405.0"
"1573152076804","2864812.0"
"1573152076854","2860710.0"
"1573152076905","2864719.0"
"1573152076951","2853174.0"
"1573152077001","2851354.0"
"1573152077048","2894165.0"
"1573152077100","2909415.0"
"1573152077142","2924700.0"
"1573152077196","2927433.0"
"1573152077245","2920025.0"
"1573152077288","2908995.0"
"1573152077342","2909856.0"
"1573152077386","2908988.0"
"1573152077440","2904862.0"
"1573152077485","2893519.0"
"1573152077540","2874240.0"
"1573152077587","2867972.0"
"1573152077637","2874073.0"
"1573152077688","2899866.0"
"1573152077735","2925813.0"
"1573152077782","2931401.0"
"1573152077831","2912924.0"
"1573152077879","2906095.0"
"1573152077929","2903927.0"
"1573152077979","2905608.0"
"1573152078028","2899000.0"
"1573152078075","2887184.0"
"1573152078122","2879802.0"
"1573152078165","2883236.0"
"1573152078220","2904214.0"
"1573152078270","2905327.0"
"1573152078314","2896292.0"
"1573152078365","2895286.0"
"1573152078411","2896426.0"
"1573152078463","2886704.0"
"1573152078511","2870753.0"
"1573152078558","2862764.0"
"1573152078608","2861917.0"
"1573152078656","2855710.0"
"1573152078704","2856169.0"
"1573152078758","2856368.0"
"1573152078807","2848835.0"
"1573152078858","2842400.0"
"1573152078905","2836697.0"
"1573152078953","2835805.0"
"1573152079001","2833917.0"
"1573152079047","2828909.0"
"1573152079100","2826063.0"
"1573152079147","2832471.0"
"1573152079197","2838999.0"
"1573152079241","2840978.0"
"1573152079294","2825748.0"
"1573152079343","2819041.0"
"1573152079392","2817753.0"
"1573152079434","2806371.0"
"1573152079488","2789386.0"
"1573152079536","2782592.0"
"1573152079586","2778898.0"
"1573152079634","2788000.0"
"1573152079685","2804843.0"
"1573152079731","2803636.0"
"1573152079782","2793587.0"
"1573152079827","2781931.0"
"1573152079881","2775210.0"
"1573152079929","2775675.0"
"1573152079978","2776055.0"
"1573152080031","2766035.0"
"1573152080076","2756918.0"
"1573152080123","2757719.0"
"1573152080174","2768715.0"
"1573152080221","2784065.0"
"1573152080270","2783331.0"
"1573152080321","2772975.0"
"1573152080365","2760819.0"
"1573152080418","2747737.0"
"1573152080465","2739074.0"
"1573152080516","2729597.0"
"1573152080559","2725390.0"
"1573152080614","2739561.0"
"1573152080663","2754897.0"
"1573152080704","2755598.0"
"1573152080759","2760492.0"
"1573152080809","2755785.0"
"1573152080856","2748842.0"
"1573152080901","2737314.0"
"1573152080955","2727084.0"
"1573152081002","2721550.0"
"1573152081048","2716948.0"
"1573152081101","2713368.0"
"1573152081151","2734100.0"
"1573152081198","2749517.0"
"1573152081247","2757479.0"
"1573152081296","2745835.0"
"1573152081344","2743614.0"
"1573152081394","2746315.0"
"1573152081442","2743482.0"
"1573152081486","2726345.0"
"1573152081534","2726477.0"
"1573152081591","2758198.0"
"1573152081637","2788906.0"
"1573152081685","2800883.0"
"1573152081736","2800442.0"
"1573152081785","2799922.0"
"1573152081831","2797322.0"
"1573152081882","2793228.0"
"1573152081932","2790593.0"
"1573152081980","2788874.0"
"1573152082027","2781592.0"
"1573152082077","2771789.0"
"1573152082125","2785651.0"
"1573152082169","3010287.0"
"1573152082222","3302511.0"
"1573152082269","3426775.0"
"1573152082321","3550466.0"
"1573152082371","3646589.0"
"1573152082419","3724921.0"
"1573152082460","3782909.0"
"1573152082516","3762117.0"
"1573152082559","3732670.0"
"1573152082611","3732096.0"
"1573152082657","3738290.0"
"1573152082711","3778708.0"
"1573152082760","3801199.0"
"1573152082807","3767358.0"
"1573152082857","3676202.0"
"1573152082905","3617808.0"
"1573152082956","3557034.0"
"1573152082998","3492071.0"
"1573152083051","3443746.0"
"1573152083100","3451534.0"
"1573152083154","3461843.0"
"1573152083199","3437704.0"
"1573152083247","3382152.0"
"1573152083297","3345930.0"
"1573152083345","3322130.0"
"1573152083388","3302731.0"
"1573152083442","3281086.0"
"1573152083495","3255474.0"
"1573152083535","3228887.0"
"1573152083589","3210621.0"
"1573152083638","3194465.0"
"1573152083686","3189491.0"
"1573152083738","3194172.0"
"1573152083783","3179562.0"
"1573152083832","3163792.0"
"1573152083881","3145474.0"
"1573152083924","3138706.0"
"1573152083974","3131863.0"
"1573152084024","3117053.0"
"1573152084073","3105330.0"
"1573152084120","3106184.0"
"1573152084170","3117726.0"
"1573152084223","3124262.0"
"1573152084273","3120881.0"
"1573152084321","3108618.0"
"1573152084371","3095801.0"
"1573152084418","3069696.0"
"1573152084462","3044534.0"
"1573152084513","3020769.0"
"1573152084560","3014034.0"
"1573152084608","3015342.0"
"1573152084656","3018636.0"
"1573152084711","3041481.0"
"1573152084759","3040314.0"
"1573152084808","3028132.0"
"1573152084858","3020208.0"
"1573152084906","3017435.0"
"1573152084958","3017502.0"
"1573152085004","3007485.0"
"1573152085051","2991075.0"
"1573152085101","2982966.0"
"1573152085151","2986300.0"
"1573152085199","3006872.0"
"1573152085249","3007453.0"
"1573152085295","2992609.0"
"1573152085346","2992048.0"
"1573152085392","2982154.0"
"1573152085443","2973925.0"
"1573152085495","2963149.0"
"1573152085542","2954447.0"
"1573152085590","2950566.0"
"1573152085639","2955914.0"
"1573152085686","2957553.0"
"1573152085735","2953699.0"
"1573152085778","2945672.0"
"1573152085832","2935389.0"
"1573152085877","2928727.0"
"1573152085928","2925086.0"
"1573152085977","2915998.0"
"1573152086026","2908956.0"
"1573152086080","2904141.0"
"1573152086127","2912916.0"
"1573152086174","2917697.0"
"1573152086225","2916063.0"
"1573152086275","2905975.0"
"1573152086322","2905301.0"
"1573152086372","2903314.0"
"1573152086422","2893966.0"
"1573152086464","2878862.0"
"1573152086517","2863083.0"
"1573152086562","2856529.0"
"1573152086615","2874713.0"
"1573152086663","2884490.0"
"1573152086714","2887590.0"
"1573152086759","2859696.0"
"1573152086805","2838926.0"
"1573152086859","2826422.0"
"1573152086908","2823369.0"
"1573152086958","2820035.0"
"1573152087006","2808145.0"
"1573152087054","2797748.0"
"1573152087103","2797821.0"
"1573152087152","2811158.0"
"1573152087201","2823302.0"
"1573152087249","2822901.0"
"1573152087298","2818293.0"
"1573152087343","2810392.0"
"1573152087393","2787665.0"
"1573152087445","2775956.0"
"1573152087495","2766541.0"
"1573152087544","2763753.0"
"1573152087592","2780263.0"
"1573152087641","2813112.0"
"1573152087689","2823889.0"
"1573152087736","2820128.0"
"1573152087788","2810158.0"
"1573152087838","2804189.0"
"1573152087883","2801328.0"
"1573152087935","2790907.0"
"1573152087983","2778831.0"
"1573152088031","2768174.0"
"1573152088076","2765754.0"
"1573152088129","2799721.0"
"1573152088175","2884577.0"
"1573152088226","2983127.0"
"1573152088279","3096582.0"
"1573152088324","3185109.0"
"1573152088373","3151095.0"
"1573152088416","3074041.0"
"1573152088464","3009592.0"
"1573152088518","2954193.0"
"1573152088565","2925626.0"
"1573152088621","2922138.0"
"1573152088665","2966656.0"
"1573152088717","2972531.0"
"1573152088758","2952220.0"
"1573152088813","2927073.0"
"1573152088856","2903074.0"
"1573152088911","2891450.0"
"1573152088958","2884610.0"
"1573152089008","2875987.0"
"1573152089057","2863971.0"
"1573152089100","2860403.0"
"1573152089154","2863191.0"
"1573152089196","2874099.0"
"1573152089252","2872901.0"
"1573152089295","2865978.0"
"1573152089349","2861590.0"
"1573152089397","2854410.0"
"1573152089447","2839511.0"
"1573152089495","2823249.0"
"1573152089540","2832889.0"
"1573152089588","2864318.0"
"1573152089640","2864518.0"
"1573152089688","2854448.0"
"1573152089736","2836138.0"
"1573152089785","2828655.0"
"1573152089840","2821894.0"
"1573152089887","2825228.0"
"1573152089937","2816680.0"
"1573152089985","2785972.0"
"1573152090035","2772341.0"
"1573152090077","2791019.0"
"1573152090131","2817840.0"
"1573152090179","2831290.0"
"1573152090228","2826315.0"
"1573152090281","2814340.0"
"1573152090326","2809098.0"
"1573152090376","2807044.0"
"1573152090424","2799922.0"
"1573152090467","2783118.0"
"1573152090516","2777256.0"
"1573152090566","2795580.0"
"1573152090621","2812806.0"
"1573152090667","2812838.0"
"1573152090717","2811392.0"
"1573152090765","2797775.0"
"1573152090814","2782744.0"
"1573152090861","2775810.0"
"1573152090911","2772662.0"
"1573152090957","2763800.0"
"1573152091009","2756264.0"
"1573152091055","2754785.0"
"1573152091106","2766187.0"
"1573152091156","2775023.0"
"1573152091200","2779290.0"
"1573152091254","2775690.0"
"1573152091296","2774036.0"
"1573152091351","2766354.0"
"1573152091401","2752056.0"
"1573152091448","2735053.0"
"1573152091497","2725810.0"
"1573152091545","2738413.0"
"1573152091591","2758400.0"
"1573152091639","2767613.0"
"1573152091689","2762207.0"
"1573152091737","2756551.0"
"1573152091783","2752050.0"
"1573152091833","2751910.0"
"1573152091881","2751457.0"
"1573152091932","2738988.0"
"1573152091985","2723823.0"
"1573152092033","2714309.0"
"1573152092076","2719095.0"
"1573152092131","2744348.0"
"1573152092183","2766354.0"
"1573152092229","2739693.0"
"1573152092279","2735867.0"
"1573152092326","2754864.0"
"1573152092378","2755525.0"
"1573152092419","2737454.0"
"1573152092469","2739141.0"
"1573152092522","2737381.0"
"1573152092566","2723049.0"
"1573152092620","2735067.0"
"1573152092668","2752284.0"
"1573152092717","2756112.0"
"1573152092761","2751104.0"
"1573152092814","2746776.0"
"1573152092861","2748202.0"
"1573152092912","2745862.0"
"1573152092964","2744982.0"
"1573152093009","2759639.0"
"1573152093055","2807430.0"
"1573152093107","2852902.0"
"1573152093155","2863425.0"
"1573152093198","2859264.0"
"1573152093254","2852116.0"
"1573152093299","2844566.0"
"1573152093346","2842272.0"
"1573152093402","2817540.0"
"1573152093449","2717783.0"
"1573152093499","2693670.0"
"1573152093541","2706639.0"
"1573152093596","2726932.0"
"1573152093638","2731845.0"
"1573152093694","2735941.0"
"1573152093745","2748456.0"
"1573152093790","2753152.0"
"1573152093834","2755504.0"
"1573152093888","2765334.0"
"1573152093937","2766360.0"
"1573152093981","2770836.0"
"1573152094036","2809918.0"
"1573152094084","2853528.0"
"1573152094131","2880162.0"
"1573152094181","2889484.0"
"1573152094229","2882503.0"
"1573152094278","2866344.0"
"1573152094325","2851640.0"
"1573152094376","2836037.0"
"1573152094422","2820780.0"
"1573152094469","2798941.0"
"1573152094526","2790666.0"
"1573152094568","2790393.0"
"1573152094620","2790546.0"
"1573152094669","2801682.0"
"1573152094719","2812131.0"
"1573152094763","2806030.0"
"1573152094817","2796068.0"
"1573152094865","2781379.0"
"1573152094913","2772922.0"
"1573152094966","2766401.0"
"1573152095006","2761319.0"
"1573152095056","2756673.0"
"1573152095103","2758578.0"
"1573152095158","2766941.0"
"1573152095207","2775936.0"
"1573152095257","2775436.0"
"1573152095300","2770822.0"
"1573152095349","2774916.0"
"1573152095398","2769408.0"
"1573152095446","2750890.0"
"1573152095494","2731286.0"
"1573152095543","2721462.0"
"1573152095599","2725898.0"
"1573152095641","2743521.0"
"1573152095695","2754698.0"
"1573152095745","2747629.0"
"1573152095792","2740213.0"
"1573152095842","2732040.0"
"1573152095885","2730398.0"
"1573152095933","2731186.0"
"1573152095983","2729291.0"
"1573152096033","2711174.0"
"1573152096083","2704032.0"
"1573152096131","2708380.0"
"1573152096182","2722669.0"
"1573152096231","2717909.0"
"1573152096280","2716082.0"
"1573152096329","2717143.0"
"1573152096379","2712541.0"
"1573152096426","2708293.0"
"1573152096472","2700578.0"
"1573152096522","2693916.0"
"1573152096572","2686041.0"
"1573152096622","2693577.0"
"1573152096667","2699003.0"
"1573152096714","2699225.0"
"1573152096765","2689895.0"
"1573152096815","2684881.0"
"1573152096865","2679466.0"
"1573152096912","2678105.0"
"1573152096964","2670671.0"
"1573152097013","2664482.0"
"1573152097057","2665856.0"
"1573152097111","2680994.0"
"1573152097160","2686214.0"
"1573152097207","2682900.0"
"1573152097258","2680679.0"
"1573152097307","2679925.0"
"1573152097351","2679852.0"
"1573152097403","2673017.0"
"1573152097452","2661875.0"
"1573152097504","2656487.0"
"1573152097548","2666709.0"
"1573152097599","2694991.0"
"1573152097645","2718502.0"
"1573152097696","2728752.0"
"1573152097746","2706992.0"
"1573152097793","2694135.0"
"1573152097842","2686281.0"
"1573152097892","2691449.0"
"1573152097941","2689282.0"
"1573152097983","2682426.0"
"1573152098039","2676766.0"
"1573152098090","2672751.0"
"1573152098135","2681059.0"
"1573152098184","2696376.0"
"1573152098234","2700718.0"
"1573152098282","2695529.0"
"1573152098329","2689229.0"
"1573152098380","2684027.0"
"1573152098427","2676906.0"
"1573152098473","2668836.0"
"1573152098525","2663562.0"
"1573152098574","2674925.0"
"1573152098623","2680059.0"
"1573152098673","2685155.0"
"1573152098722","2689968.0"
"1573152098765","2683814.0"
"1573152098818","2671723.0"
"1573152098871","2665803.0"
"1573152098915","2659921.0"
"1573152098964","2654921.0"
"1573152099014","2648265.0"
"1573152099058","2649766.0"
"1573152099111","2653574.0"
"1573152099160","2661542.0"
"1573152099206","2668804.0"
"1573152099254","2666343.0"
"1573152099305","2666095.0"
"1573152099351","2666957.0"
"1573152099404","2657373.0"
"1573152099454","2645197.0"
"1573152099502","2634522.0"
"1573152099547","2654114.0"
"1573152099600","2681213.0"
"1573152099650","2693755.0"
"1573152099696","2696651.0"
"1573152099741","2692776.0"
"1573152099789","2686581.0"
"1573152099843","2682540.0"
"1573152099888","2683507.0"
"1573152099941","2672818.0"
"1573152099990","2658255.0"
"1573152100039","2644898.0"
"1573152100087","2657794.0"
"1573152100136","2682654.0"
"1573152100184","2699710.0"
"1573152100229","2696090.0"
"1573152100283","2691628.0"
"1573152100333","2690655.0"
"1573152100380","2687327.0"
"1573152100432","2681719.0"
"1573152100474","2671057.0"
"1573152100525","2663816.0"
"1573152100576","2674078.0"
"1573152100624","2688902.0"
"1573152100671","2695137.0"
"1573152100722","2707153.0"
"1573152100770","2700338.0"
"1573152100820","2687949.0"
"1573152100867","2682707.0"
"1573152100917","2683014.0"
"1573152100965","2681774.0"
"1573152101016","2677012.0"
"1573152101059","2670264.0"
"1573152101107","2676573.0"
"1573152101161","2692382.0"
"1573152101210","2697037.0"
"1573152101259","2694597.0"
"1573152101307","2694477.0"
"1573152101352","2694690.0"
"1573152101404","2691736.0"
"1573152101453","2686035.0"
"1573152101503","2678072.0"
"1573152101547","2679239.0"
"1573152101601","2701805.0"
"1573152101653","2716956.0"
"1573152101699","2718508.0"
"1573152101751","2716129.0"
"1573152101798","2708161.0"
"1573152101838","2700292.0"
"1573152101897","2701578.0"
"1573152101938","2700990.0"
"1573152101987","2693829.0"
"1573152102037","2691628.0"
"1573152102088","2694296.0"
"1573152102139","2709473.0"
"1573152102188","2713362.0"
"1573152102238","2712634.0"
"1573152102284","2711320.0"
"1573152102336","2712927.0"
"1573152102382","2707766.0"
"1573152102432","2705019.0"
"1573152102476","2694003.0"
"1573152102534","2684867.0"
"1573152102579","2691563.0"
"1573152102627","2714028.0"
"1573152102677","2727972.0"
"1573152102726","2741955.0"
"1573152102777","2720589.0"
"1573152102823","2707299.0"
"1573152102874","2704705.0"
"1573152102921","2707033.0"
"1573152102972","2705046.0"
"1573152103019","2700192.0"
"1573152103064","2691976.0"
"1573152103113","2699617.0"
"1573152103166","2710408.0"
"1573152103217","2715414.0"
"1573152103264","2710580.0"
"1573152103310","2708067.0"
"1573152103357","2706460.0"
"1573152103411","2699877.0"
"1573152103460","2692490.0"
"1573152103508","2682619.0"
"1573152103554","2681226.0"
"1573152103605","2702486.0"
"1573152103651","2722736.0"
"1573152103703","2734279.0"
"1573152103756","2730246.0"
"1573152103801","2715995.0"
"1573152103851","2705225.0"
"1573152103900","2701186.0"
"1573152103948","2698983.0"
"1573152103997","2691762.0"
"1573152104044","2686307.0"
"1573152104092","2690755.0"
"1573152104143","2701665.0"
"1573152104193","2708666.0"
"1573152104241","2720536.0"
"1573152104290","2721850.0"
"1573152104339","2722809.0"
"1573152104382","2712921.0"
"1573152104434","2704178.0"
"1573152104479","2688796.0"
"1573152104534","2678625.0"
"1573152104581","2687928.0"
"1573152104631","2716229.0"
"1573152104679","2731552.0"
"1573152104728","2731005.0"
"1573152104774","2720290.0"
"1573152104819","2712561.0"
"1573152104875","2714548.0"
"1573152104918","2717088.0"
"1573152104969","2702679.0"
"1573152105017","2685433.0"
"1573152105066","2672018.0"
"1573152105113","2688662.0"
"1573152105161","2724331.0"
"1573152105215","2736073.0"
"1573152105265","2735093.0"
"1573152105313","2733106.0"
"1573152105363","2730945.0"
"1573152105411","2729618.0"
"1573152105462","2725623.0"
"1573152105510","2708053.0"
"1573152105555","2694456.0"
"1573152105606","2696750.0"
"1573152105653","2712246.0"
"1573152105699","2723390.0"
"1573152105756","2732279.0"
"1573152105803","2723049.0"
"1573152105850","2714181.0"
"1573152105900","2709961.0"
"1573152105948","2709333.0"
"1573152105995","2708626.0"
"1573152106044","2701084.0"
"1573152106095","2694316.0"
"1573152106143","2695929.0"
"1573152106192","2709587.0"
"1573152106236","2720036.0"
"1573152106289","2721915.0"
"1573152106337","2720477.0"
"1573152106388","2718589.0"
"1573152106436","2713301.0"
"1573152106480","2708093.0"
"1573152106534","2695389.0"
"1573152106582","2692835.0"
"1573152106632","2703599.0"
"1573152106682","2702778.0"
"1573152106728","2698831.0"
"1573152106775","2697524.0"
"1573152106826","2694757.0"
"1573152106881","2685754.0"
"1573152106919","2683194.0"
"1573152106965","2685395.0"
"1573152107018","2680620.0"
"1573152107066","2675165.0"
"1573152107114","2679998.0"
"1573152107164","2697971.0"
"1573152107218","2697443.0"
"1573152107265","2702331.0"
"1573152107310","2706039.0"
"1573152107361","2707206.0"
"1573152107412","2707267.0"
"1573152107457","2702986.0"
"1573152107508","2690082.0"
"1573152107556","2678312.0"
"1573152107606","2680533.0"
"1573152107656","2701931.0"
"1573152107704","2714221.0"
"1573152107754","2724577.0"
"1573152107797","2718035.0"
"1573152107846","2706639.0"
"1573152107895","2694877.0"
"1573152107948","2693936.0"
"1573152108000","2692370.0"
"1573152108045","2688107.0"
"1573152108095","2680387.0"
"1573152108141","2691002.0"
"1573152108193","2691976.0"
"1573152108242","2696917.0"
"1573152108289","2710507.0"
"1573152108342","2710519.0"
"1573152108387","2707006.0"
"1573152108433","2696470.0"
"1573152108480","2693422.0"
"1573152108533","2686681.0"
"1573152108581","2674484.0"
"1573152108631","2682406.0"
"1573152108676","2706480.0"
"1573152108729","2708520.0"
"1573152108782","2707252.0"
"1573152108827","2696756.0"
"1573152108876","2692396.0"
"1573152108924","2686047.0"
"1573152108973","2679814.0"
"1573152109022","2671431.0"
"1573152109068","2662974.0"
"1573152109117","2656581.0"
"1573152109168","2675571.0"
"1573152109218","2702197.0"
"1573152109265","2702898.0"
"1573152109314","2698924.0"
"1573152109363","2694316.0"
"1573152109413","2696057.0"
"1573152109458","2692636.0"
"1573152109510","2682207.0"
"1573152109557","2660055.0"
"1573152109608","2649498.0"
"1573152109657","2667650.0"
"1573152109705","2690675.0"
"1573152109755","2695730.0"
"1573152109802","2696876.0"
"1573152109851","2686088.0"
"1573152109901","2682613.0"
"1573152109949","2681894.0"
"1573152109999","2674604.0"
"1573152110047","2666717.0"
"1573152110096","2651645.0"
"1573152110144","2649153.0"
"1573152110194","2668023.0"
"1573152110236","2683715.0"
"1573152110291","2682386.0"
"1573152110342","2673458.0"
"1573152110387","2673905.0"
"1573152110438","2665750.0"
"1573152110481","2661528.0"
"1573152110536","2654646.0"
"1573152110577","2646932.0"
"1573152110632","2648486.0"
"1573152110683","2656274.0"
"1573152110729","2664876.0"
"1573152110781","2673219.0"
"1573152110821","2683674.0"
"1573152110870","2674891.0"
"1573152110921","2662089.0"
"1573152110970","2655748.0"
"1573152111021","2650532.0"
"1573152111066","2641231.0"
"1573152111118","2636476.0"
"1573152111164","2647724.0"
"1573152111218","2663383.0"
"1573152111267","2668649.0"
"1573152111316","2663094.0"
"1573152111364","2663088.0"
"1573152111413","2659854.0"
"1573152111463","2654433.0"
"1573152111511","2651186.0"
"1573152111556","2634154.0"
"1573152111608","2637395.0"
"1573152111653","2662621.0"
"1573152111700","2686214.0"
"1573152111757","2678259.0"
"1573152111800","2677879.0"
"1573152111852","2682926.0"
"1573152111903","2672804.0"
"1573152111949","2660189.0"
"1573152111999","2649266.0"
"1573152112047","2643551.0"
"1573152112096","2637517.0"
"1573152112138","2640763.0"
"1573152112189","2652586.0"
"1573152112241","2653045.0"
"1573152112291","2651046.0"
"1573152112340","2644224.0"
"1573152112389","2641103.0"
"1573152112438","2636602.0"
"1573152112481","2637862.0"
"1573152112536","2624672.0"
"1573152112581","2647525.0"
"1573152112634","2693790.0"
"1573152112686","2712515.0"
"1573152112724","2712401.0"
"1573152112781","2699838.0"
"1573152112827","2679367.0"
"1573152112877","2672398.0"
"1573152112921","2664470.0"
"1573152112974","2662036.0"
"1573152113025","2656640.0"
"1573152113070","2650146.0"
"1573152113120","2646432.0"
"1573152113169","2657113.0"
"1573152113218","2678867.0"
"1573152113262","2684141.0"
"1573152113316","2692016.0"
"1573152113361","2694302.0"
"1573152113414","2689968.0"
"1573152113465","2683127.0"
"1573152113510","2679893.0"
"1573152113556","2663868.0"
"1573152113608","2655187.0"
"1573152113657","2668590.0"
"1573152113701","2688709.0"
"1573152113754","2709820.0"
"1573152113805","2733693.0"
"1573152113852","2725384.0"
"1573152113900","2706066.0"
"1573152113949","2684261.0"
"1573152113998","2674344.0"
"1573152114043","2667357.0"
"1573152114098","2663102.0"
"1573152114142","2661054.0"
"1573152114194","2667897.0"
"1573152114236","2678712.0"
"1573152114291","2692528.0"
"1573152114340","2695836.0"
"1573152114384","2695076.0"
"1573152114439","2694851.0"
"1573152114483","2681941.0"
"1573152114538","2667576.0"
"1573152114587","2659555.0"
"1573152114633","2671077.0"
"1573152114681","2682053.0"
"1573152114730","2685915.0"
"1573152114781","2692323.0"
"1573152114826","2692502.0"
"1573152114872","2689842.0"
"1573152114924","2686468.0"
"1573152114968","2682607.0"
"1573152115018","2677806.0"
"1573152115067","2671097.0"
"1573152115117","2664990.0"
"1573152115165","2666536.0"
"1573152115214","2684160.0"
"1573152115266","2689722.0"
"1573152115315","2689842.0"
"1573152115362","2688928.0"
"1573152115413","2690342.0"
"1573152115455","2687628.0"
"1573152115511","2689322.0"
"1573152115555","2682827.0"
"1573152115604","2671790.0"
"1573152115659","2674891.0"
"1573152115707","2679933.0"
"1573152115755","2684420.0"
"1573152115803","2683773.0"
"1573152115845","2682461.0"
"1573152115894","2675624.0"
"1573152115942","2665216.0"
"1573152115995","2658889.0"
"1573152116042","2653279.0"
"1573152116093","2648478.0"
"1573152116148","2650640.0"
"1573152116194","2668157.0"
"1573152116242","2682114.0"
"1573152116291","2686055.0"
"1573152116339","2682034.0"
"1573152116388","2679580.0"
"1573152116437","2674771.0"
"1573152116484","2663883.0"
"1573152116536","2659380.0"
"1573152116582","2649033.0"
"1573152116633","2648653.0"
"1573152116681","2667331.0"
"1573152116731","2691736.0"
"1573152116781","2697638.0"
"1573152116827","2687488.0"
"1573152116876","2673978.0"
"1573152116924","2667337.0"
"1573152116977","2665589.0"
"1573152117022","2665323.0"
"1573152117066","2659468.0"
"1573152117120","2649266.0"
"1573152117163","2647677.0"
"1573152117219","2652285.0"
"1573152117267","2674125.0"
"1573152117316","2682999.0"
"1573152117365","2677286.0"
"1573152117413","2665362.0"
"1573152117461","2661221.0"
"1573152117510","2652025.0"
"1573152117556","2644185.0"
"1573152117608","2634028.0"
"1573152117653","2635121.0"
"1573152117705","2650798.0"
"1573152117757","2675653.0"
"1573152117803","2707974.0"
"1573152117852","2724843.0"
"1573152117902","2700804.0"
"1573152117944","2677120.0"
"1573152117999","2665770.0"
"1573152118049","2663915.0"
"1573152118096","2656314.0"
"1573152118144","2650213.0"
"1573152118188","2648939.0"
"1573152118240","2656060.0"
"1573152118285","2671676.0"
"1573152118339","2679899.0"
"1573152118392","2672745.0"
"1573152118437","2674017.0"
"1573152118481","2661028.0"
"1573152118536","2651952.0"
"1573152118584","2642151.0"
"1573152118634","2633102.0"
"1573152118682","2630393.0"
"1573152118731","2649413.0"
"1573152118782","2655374.0"
"1573152118832","2660975.0"
"1573152118877","2669257.0"
"1573152118925","2661414.0"
"1573152118975","2651867.0"
"1573152119023","2648718.0"
"1573152119073","2637322.0"
"1573152119122","2622813.0"
"1573152119172","2632421.0"
"1573152119218","2640190.0"
"1573152119262","2652233.0"
"1573152119316","2662956.0"
"1573152119364","2662314.0"
"1573152119415","2655114.0"
"1573152119462","2655906.0"
"1573152119512","2653186.0"
"1573152119556","2649465.0"
"1573152119611","2634014.0"
"1573152119658","2622232.0"
"1573152119707","2633575.0"
"1573152119758","2650705.0"
"1573152119804","2662562.0"
"1573152119847","2672184.0"
"1573152119902","2663409.0"
"1573152119951","2653714.0"
"1573152119994","2647677.0"
"1573152120042","2642931.0"
"1573152120093","2636708.0"
"1573152120145","2625785.0"
"1573152120196","2626373.0"
"1573152120238","2636722.0"
"1573152120287","2649719.0"
"1573152120341","2658915.0"
"1573152120395","2649553.0"
"1573152120433","2649092.0"
"1573152120480","2636775.0"
"1573152120530","2627439.0"
"1573152120581","2630721.0"
"1573152120629","2631968.0"
"1573152120679","2636109.0"
"1573152120730","2650172.0"
"1573152120780","2661414.0"
"1573152120829","2658094.0"
"1573152120874","2653907.0"
"1573152120925","2647411.0"
"1573152120973","2638908.0"
"1573152121020","2637088.0"
"1573152121073","2631527.0"
"1573152121117","2622571.0"
"1573152121169","2618298.0"
"1573152121219","2633348.0"
"1573152121268","2650792.0"
"1573152121317","2645930.0"
"1573152121364","2640223.0"
"1573152121411","2630081.0"
"1573152121460","2630507.0"
"1573152121513","2629020.0"
"1573152121556","2621832.0"
"1573152121609","2611195.0"
"1573152121659","2601693.0"
"1573152121707","2616297.0"
"1573152121757","2638709.0"
"1573152121804","2649705.0"
"1573152121848","2658921.0"
"1573152121903","2644364.0"
"1573152121955","2627547.0"
"1573152122001","2622793.0"
"1573152122051","2621539.0"
"1573152122098","2614103.0"
"1573152122146","2607388.0"
"1573152122191","2603794.0"
"1573152122239","2621086.0"
"1573152122294","2637348.0"
"1573152122341","2642110.0"
"1573152122390","2636476.0"
"1573152122439","2625840.0"
"1573152122484","2615877.0"
"1573152122533","2616271.0"
"1573152122586","2607802.0"
"1573152122634","2593999.0"
"1573152122683","2600901.0"
"1573152122735","2622872.0"
"1573152122781","2630048.0"
"1573152122830","2630960.0"
"1573152122879","2629286.0"
"1573152122927","2622553.0"
"1573152122973","2611163.0"
"1573152123019","2602967.0"
"1573152123071","2594893.0"
"1573152123123","2590557.0"
"1573152123171","2588383.0"
"1573152123220","2596833.0"
"1573152123268","2611610.0"
"1573152123319","2623652.0"
"1573152123366","2625680.0"
"1573152123413","2625934.0"
"1573152123460","2626820.0"
"1573152123513","2622925.0"
"1573152123557","2613977.0"
"1573152123612","2600153.0"
"1573152123661","2602835.0"
"1573152123709","2627667.0"
"1573152123753","2650026.0"
"1573152123805","2656607.0"
"1573152123854","2662115.0"
"1573152123903","2645038.0"
"1573152123952","2639943.0"
"1573152124002","2636836.0"
"1573152124052","2635282.0"
"1573152124094","2620499.0"
"1573152124143","2610436.0"
"1573152124196","2611716.0"
"1573152124238","2628154.0"
"1573152124295","2637795.0"
"1573152124338","2653927.0"
"1573152124388","2664962.0"
"1573152124436","2669137.0"
"1573152124484","2673552.0"
"1573152124537","2666469.0"
"1573152124583","2659748.0"
"1573152124634","2654167.0"
"1573152124680","2644630.0"
"1573152124733","2650473.0"
"1573152124778","2679486.0"
"1573152124828","2694471.0"
"1573152124876","2695444.0"
"1573152124925","2689676.0"
"1573152124978","2681760.0"
"1573152125021","2683668.0"
"1573152125074","2682201.0"
"1573152125121","2679373.0"
"1573152125170","2685121.0"
"1573152125218","2691657.0"
"1573152125267","2691835.0"
"1573152125316","2698498.0"
"1573152125365","2706253.0"
"1573152125416","2699698.0"
"1573152125462","2695017.0"
"1573152125516","2681953.0"
"1573152125560","2673424.0"
"1573152125610","2660134.0"
"1573152125658","2658933.0"
"1573152125707","2666743.0"
"1573152125755","2695482.0"
"1573152125805","2721970.0"
"1573152125856","2728092.0"
"1573152125902","2713067.0"
"1573152125956","2710320.0"
"1573152125997","2709093.0"
"1573152126048","2708553.0"
"1573152126098","2695503.0"
"1573152126147","2683753.0"
"1573152126194","2687101.0"
"1573152126245","2701832.0"
"1573152126296","2721649.0"
"1573152126346","2737212.0"
"1573152126395","2742314.0"
"1573152126442","2736172.0"
"1573152126488","2721143.0"
"1573152126537","2711501.0"
"1573152126585","2701011.0"
"1573152126636","2706139.0"
"1573152126683","2749803.0"
"1573152126737","2814419.0"
"1573152126781","2863691.0"
"1573152126829","2880221.0"
"1573152126879","2894252.0"
"1573152126927","2883009.0"
"1573152126978","2875826.0"
"1573152127025","2875954.0"
"1573152127077","2861210.0"
"1573152127123","2843186.0"
"1573152127172","2825888.0"
"1573152127220","2820181.0"
"1573152127270","2825681.0"
"1573152127318","2827156.0"
"1573152127367","2826481.0"
"1573152127418","2818013.0"
"1573152127468","2825374.0"
"1573152127521","2832983.0"
"1573152127561","2830029.0"
"1573152127615","2813893.0"
"1573152127663","2791840.0"
"1573152127713","2781452.0"
"1573152127757","2784024.0"
"1573152127811","2795922.0"
"1573152127856","2808025.0"
"1573152127906","2803096.0"
"1573152127957","2796635.0"
"1573152128005","2788339.0"
"1573152128052","2788179.0"
"1573152128103","2778603.0"
"1573152128152","2755618.0"
"1573152128198","2747030.0"
"1573152128249","2749777.0"
"1573152128301","2761947.0"
"1573152128342","2778077.0"
"1573152128392","2781238.0"
"1573152128444","2772256.0"
"1573152128495","2760793.0"
"1573152128540","2750811.0"
"1573152128593","2743141.0"
"1573152128641","2737267.0"
"1573152128689","2734167.0"
"1573152128738","2739974.0"
"1573152128787","2748696.0"
"1573152128836","2750756.0"
"1573152128884","2747962.0"
"1573152128933","2737200.0"
"1573152128978","2729252.0"
"1573152129030","2726777.0"
"1573152129082","2727192.0"
"1573152129128","2715489.0"
"1573152129177","2709660.0"
"1573152129226","2715016.0"
"1573152129271","2721223.0"
"1573152129323","2721310.0"
"1573152129373","2722216.0"
"1573152129424","2719817.0"
"1573152129469","2711334.0"
"1573152129520","2716789.0"
"1573152129562","2719603.0"
"1573152129617","2712027.0"
"1573152129665","2700759.0"
"1573152129715","2693816.0"
"1573152129757","2705052.0"
"1573152129812","2723884.0"
"1573152129862","2733446.0"
"1573152129909","2730319.0"
"1573152129958","2714254.0"
"1573152130007","2697218.0"
"1573152130052","2689995.0"
"1573152130103","2687321.0"
"1573152130154","2682026.0"
"1573152130204","2662115.0"
"1573152130246","2651005.0"
"1573152130299","2694190.0"
"1573152130343","2749131.0"
"1573152130398","2779631.0"
"1573152130439","2767727.0"
"1573152130495","2700017.0"
"1573152130538","2667749.0"
"1573152130588","2660949.0"
"1573152130641","2654634.0"
"1573152130690","2651578.0"
"1573152130739","2660461.0"
"1573152130787","2662822.0"
"1573152130838","2663269.0"
"1573152130883","2644305.0"
"1573152130936","2669137.0"
"1573152130983","2681000.0"
"1573152131032","2689775.0"
"1573152131079","2678332.0"
"1573152131122","2672384.0"
"1573152131179","2660494.0"
"1573152131226","2645231.0"
"1573152131277","2643884.0"
"1573152131318","2654941.0"
"1573152131374","2664169.0"
"1573152131425","2679460.0"
"1573152131471","2672144.0"
"1573152131520","2672457.0"
"1573152131564","2674771.0"
"1573152131617","2660941.0"
"1573152131666","2644731.0"
"1573152131715","2628900.0"
"1573152131762","2630735.0"
"1573152131813","2639496.0"
"1573152131864","2651759.0"
"1573152131906","2665809.0"
"1573152131960","2687327.0"
"1573152132010","2692362.0"
"1573152132054","2686354.0"
"1573152132102","2683601.0"
"1573152132156","2682040.0"
"1573152132204","2665417.0"
"1573152132254","2644711.0"
"1573152132306","2637616.0"
"1573152132346","2646204.0"
"1573152132400","2662314.0"
"1573152132448","2673438.0"
"1573152132494","2664122.0"
"1573152132541","2658015.0"
"1573152132597","2652472.0"
"1573152132644","2650632.0"
"1573152132693","2642003.0"
"1573152132741","2633102.0"
"1573152132790","2631641.0"
"1573152132840","2640843.0"
"1573152132889","2652426.0"
"1573152132937","2661495.0"
"1573152132983","2668424.0"
"1573152133037","2663635.0"
"1573152133087","2655494.0"
"1573152133133","2653139.0"
"1573152133181","2653173.0"
"1573152133226","2642336.0"
"1573152133279","2630914.0"
"1573152133324","2630887.0"
"1573152133376","2641277.0"
"1573152133425","2647358.0"
"1573152133475","2641617.0"
"1573152133526","2638648.0"
"1573152133571","2628766.0"
"1573152133621","2618758.0"
"1573152133670","2617197.0"
"1573152133719","2609749.0"
"1573152133764","2610015.0"
"1573152133818","2623611.0"
"1573152133866","2637517.0"
"1573152133916","2636483.0"
"1573152133963","2634014.0"
"1573152134012","2630887.0"
"1573152134057","2629894.0"
"1573152134109","2624686.0"
"1573152134158","2624593.0"
"1573152134204","2622092.0"
"1573152134256","2732472.0"
"1573152134303","2926260.0"
"1573152134348","3186043.0"
"1573152134396","3349077.0"
"1573152134446","3341588.0"
"1573152134496","3311173.0"
"1573152134546","3276539.0"
"1573152134596","3272204.0"
"1573152134644","3226140.0"
"1573152134695","3142391.0"
"1573152134744","3090507.0"
"1573152134794","3069541.0"
"1573152134841","3076504.0"
"1573152134891","3083178.0"
"1573152134939","3045069.0"
"1573152134983","3008853.0"
"1573152135039","2972739.0"
"1573152135088","2926994.0"
"1573152135135","2900187.0"
"1573152135183","2889597.0"
"1573152135232","2878455.0"
"1573152135281","2858489.0"
"1573152135327","2847301.0"
"1573152135379","2851561.0"
"1573152135428","2842166.0"
"1573152135476","2837292.0"
"1573152135524","2813606.0"
"1573152135574","2791521.0"
"1573152135622","2773489.0"
"1573152135671","2760387.0"
"1573152135720","2743895.0"
"1573152135764","2726412.0"
"1573152135819","2715715.0"
"1573152135871","2720083.0"
"1573152135911","2732653.0"
"1573152135963","2743102.0"
"1573152136012","2735660.0"
"1573152136058","2713333.0"
"1573152136110","2683861.0"
"1573152136160","2666963.0"
"1573152136208","2655087.0"
"1573152136257","2642403.0"
"1573152136306","2639890.0"
"1573152136351","2650792.0"
"1573152136404","2658535.0"
"1573152136447","2660736.0"
"1573152136502","2658041.0"
"1573152136544","2651005.0"
"1573152136600","2642996.0"
"1573152136649","2623813.0"
"1573152136699","2605415.0"
"1573152136745","2587798.0"
"1573152136796","2590659.0"
"1573152136843","2620779.0"
"1573152136894","2643271.0"
"1573152136941","2645124.0"
"1573152136987","2639317.0"
"1573152137034","2628354.0"
"1573152137089","2616890.0"
"1573152137139","2608475.0"
"1573152137185","2589698.0"
"1573152137235","2567426.0"
"1573152137283","2555609.0"
"1573152137332","2572814.0"
"1573152137381","2598393.0"
"1573152137428","2613384.0"
"1573152137479","2612016.0"
"1573152137526","2601088.0"
"1573152137572","2638870.0"
"1573152137625","2655360.0"
"1573152137676","2633902.0"
"1573152137723","2603800.0"
"1573152137768","2575841.0"
"1573152137822","2585209.0"
