time,value
1574267654485,3664361.0
1574267654530,3672372.0
1574267654582,3681659.0
1574267654627,3687354.0
1574267654679,3688630.0
1574267654725,3692003.0
1574267654776,3690719.0
1574267654824,3692103.0
1574267654875,3694596.0
1574267654924,3699486.0
1574267654975,3697917.0
1574267655021,3698438.0
1574267655071,3697783.0
1574267655117,3700366.0
1574267655162,3698757.0
1574267655421,3703159.0
1574267655421,3703998.0
1574267655421,3705736.0
1574267655421,3708052.0
1574267655421,3711985.0
1574267655480,3712430.0
1574267655568,3715894.0
1574267655569,3715141.0
1574267655601,3708302.0
1574267655646,3703655.0
1574267655696,3702615.0
1574267655744,3703639.0
1574267655792,3705274.0
1574267655844,3703403.0
1574267655889,3704200.0
1574267655942,3704998.0
1574267655990,3704569.0
1574267656036,3705518.0
1574267656089,3705760.0
1574267656131,3708899.0
1574267656185,3709754.0
1574267656230,3712052.0
1574267656282,3716549.0
1574267656327,3716163.0
1574267656379,3706701.0
1574267656422,3697489.0
1574267656474,3695309.0
1574267656522,3694486.0
1574267656570,3697221.0
1574267656620,3694293.0
1574267656668,3695510.0
1574267656716,3694553.0
1574267656764,3695333.0
1574267656812,3694711.0
1574267656862,3695609.0
1574267656909,3696282.0
1574267656958,3700408.0
1574267657006,3700366.0
1574267657055,3702733.0
1574267657105,3705384.0
1574267657151,3703044.0
1574267657201,3692121.0
1574267657253,3685879.0
1574267657304,3688990.0
1574267657346,3687111.0
1574267657399,3689628.0
1574267657444,3687296.0
1574267657497,3687950.0
1574267657542,3685995.0
1574267657589,3688882.0
1574267657637,3690290.0
1574267657690,3693572.0
1574267657735,3694955.0
1574267657786,3697036.0
1574267657831,3701390.0
1574267657880,3705803.0
1574267657932,3705559.0
1574267657983,3696524.0
1574267658028,3690995.0
1574267658079,3690920.0
1574267658125,3691298.0
1574267658177,3691818.0
1574267658221,3694738.0
1574267658268,3694317.0
1574267658317,3694553.0
1574267658367,3696952.0
1574267658413,3700307.0
1574267658468,3704057.0
1574267658510,3707127.0
1574267658559,3708832.0
1574267658607,3710835.0
1574267658661,3714771.0
1574267658708,3709033.0
1574267658758,3699746.0
1574267658806,3696717.0
1574267658855,3697733.0
1574267658906,3697875.0
1574267658946,3697808.0
1574267658997,3696910.0
1574267659044,3696709.0
1574267659094,3698545.0
1574267659147,3700317.0
1574267659190,3701038.0
1574267659240,3702036.0
1574267659289,3704401.0
1574267659335,3707095.0
1574267659389,3710827.0
1574267659432,3704200.0
1574267659484,3688445.0
1574267659532,3681582.0
1574267659583,3680627.0
1574267659626,3677758.0
1574267659676,3678982.0
1574267659730,3678145.0
1574267659784,3673780.0
1574267659826,3672498.0
1574267659876,3671482.0
1574267659924,3672775.0
1574267659966,3674898.0
1574267660019,3676448.0
1574267660072,3677791.0
1574267660112,3681005.0
1574267660163,3674552.0
1574267660209,3650996.0
1574267660259,3638152.0
1574267660307,3632256.0
1574267660353,3632256.0
1574267660406,3630317.0
1574267660452,3628001.0
1574267660502,3618531.0
1574267660550,3614982.0
1574267660604,3612810.0
1574267660645,3613086.0
1574267660700,3614496.0
1574267660747,3613724.0
1574267660798,3616239.0
1574267660843,3618253.0
1574267660893,3610745.0
1574267660938,3581492.0
1574267660991,3563213.0
1574267661040,3558052.0
1574267661093,3552148.0
1574267661136,3550746.0
1574267661185,3547306.0
1574267661229,3540469.0
1574267661283,3536820.0
1574267661326,3535351.0
1574267661385,3535185.0
1574267661424,3537123.0
1574267661474,3538783.0
1574267661521,3541367.0
1574267661567,3546089.0
1574267661618,3548724.0
1574267661666,3525922.0
1574267661713,3499564.0
1574267661764,3489564.0
1574267661810,3484296.0
1574267661864,3484011.0
1574267661907,3482961.0
1574267661962,3479019.0
1574267662008,3473617.0
1574267662082,3473523.0
1574267662129,3470118.0
1574267662168,3474832.0
1574267662269,3498012.0
1574267662271,3511771.0
1574267662305,3531142.0
1574267662357,3540973.0
1574267662395,3552700.0
1574267662443,3560009.0
1574267662491,3557272.0
1574267662540,3551542.0
1574267662588,3543019.0
1574267662637,3534866.0
1574267662686,3528531.0
1574267662734,3527994.0
1574267662784,3551301.0
1574267662830,3581383.0
1574267662884,3616971.0
1574267662931,3645165.0
1574267662980,3656616.0
1574267663233,3680148.0
1574267663233,3687858.0
1574267663233,3693118.0
1574267663285,3692716.0
1574267663367,3691601.0
1574267663368,3693395.0
1574267663412,3699527.0
1574267663461,3725131.0
1574267663513,3699518.0
1574267663558,3704159.0
1574267663611,3719704.0
1574267663655,3746482.0
1574267663705,3729050.0
1574267663753,3735852.0
1574267663802,3745651.0
1574267663849,3754368.0
1574267663900,3761448.0
1574267663947,3770928.0
1574267663996,3775768.0
1574267664045,3780030.0
1574267664092,3782664.0
1574267664142,3785634.0
1574267664188,3788921.0
1574267664239,3790482.0
1574267664287,3792640.0
1574267664335,3794954.0
1574267664385,3798747.0
1574267664434,3802839.0
1574267664486,3802965.0
1574267664530,3804611.0
1574267664585,3805624.0
1574267664627,3809726.0
1574267664683,3811230.0
1574267664933,3814316.0
1574267664933,3816909.0
1574267664933,3817252.0
1574267664933,3819166.0
1574267664933,3819676.0
1574267665000,3824164.0
1574267665081,3827193.0
1574267665083,3833100.0
1574267665112,3837880.0
1574267665166,3840607.0
1574267665215,3845969.0
1574267665256,3850363.0
1574267665307,3856321.0
1574267665360,3861538.0
1574267665409,3869114.0
1574267665454,3880884.0
1574267665507,3894617.0
1574267665748,4001084.0
1574267665748,4018876.0
1574267665847,4026981.0
1574267665847,4025429.0
1574267665889,4014171.0
1574267665938,4004959.0
1574267665991,3996361.0
1574267666032,3992267.0
1574267666088,3989757.0
1574267666137,3989414.0
1574267666185,3986387.0
1574267666232,3982620.0
1574267666277,3979306.0
1574267666326,3976478.0
1574267666378,3977486.0
1574267666427,3974934.0
1574267666477,3974406.0
1574267666520,3969759.0
1574267666569,3968928.0
1574267666616,3967427.0
1574267666666,3966537.0
1574267666715,3964464.0
1574267666763,3962754.0
1574267666814,3962242.0
1574267667050,3966403.0
1574267667050,3966000.0
1574267667052,3967477.0
1574267667059,3968432.0
1574267667127,3970086.0
1574267667128,3970866.0
1574267667216,3972033.0
1574267667216,3975170.0
1574267667252,3977124.0
1574267667301,3977226.0
1574267667344,3978768.0
1574267667395,3982602.0
1574267667441,3982880.0
1574267667493,3985749.0
1574267667541,3985749.0
1574267667589,3991814.0
1574267667636,3994044.0
1574267667686,3996184.0
1574267667732,4000069.0
1574267667781,4003417.0
1574267667831,4004272.0
1574267667879,4008047.0
1574267667928,4011922.0
1574267667977,4014774.0
1574267668026,4016863.0
1574267668074,4021638.0
1574267668126,4021603.0
1574267668175,4024397.0
1574267668224,4028046.0
1574267668271,4028793.0
1574267668317,4033072.0
1574267668369,4034238.0
1574267668418,4035228.0
1574267668462,4040606.0
1574267668514,4043633.0
1574267668565,4044867.0
1574267668611,4048223.0
1574267668657,4049832.0
1574267668704,4053172.0
1574267668756,4055454.0
1574267668803,4058071.0
1574267668850,4061511.0
1574267668899,4064455.0
1574267668948,4064774.0
1574267668998,4066511.0
1574267669046,4069002.0
1574267669097,4071862.0
1574267669146,4075261.0
1574267669194,4078004.0
1574267669239,4081779.0
1574267669291,4085319.0
1574267669336,4086217.0
1574267669579,4102450.0
1574267669580,4111963.0
1574267669610,4125604.0
1574267669632,4138264.0
1574267669712,4149957.0
1574267669729,4166367.0
1574267669773,4181266.0
1574267669822,4197558.0
1574267669870,4222096.0
1574267669919,4262649.0
1574267669967,4290106.0
1574267670017,4307850.0
1574267670064,4313587.0
1574267670112,4312892.0
1574267670165,4308412.0
1574267670212,4301163.0
1574267670258,4296624.0
1574267670307,4292884.0
1574267670359,4292549.0
1574267670407,4292675.0
1574267670451,4295249.0
1574267670506,4293739.0
1574267670547,4294184.0
1574267670597,4297892.0
1574267670647,4294310.0
1574267670703,4294678.0
1574267670746,4291927.0
1574267670797,4295233.0
1574267670841,4292798.0
1574267670893,4295686.0
1574267670937,4295777.0
1574267670987,4296927.0
1574267671038,4299578.0
1574267671085,4299310.0
1574267671133,4299528.0
1574267671182,4299217.0
1574267671230,4301541.0
1574267671281,4304713.0
1574267671535,4305861.0
1574267671535,4307825.0
1574267671535,4306139.0
1574267671535,4306700.0
1574267671535,4307531.0
1574267671589,4310072.0
1574267671657,4311641.0
1574267671672,4310946.0
1574267671720,4316046.0
1574267671770,4316826.0
1574267671813,4319880.0
1574267671866,4323630.0
1574267671913,4323612.0
1574267671960,4327413.0
1574267672011,4329467.0
1574267672059,4334073.0
1574267672104,4334427.0
1574267672157,4336749.0
1574267672203,4339267.0
1574267672250,4342178.0
1574267672300,4345256.0
1574267672347,4349417.0
1574267672396,4351020.0
1574267672444,4356833.0
1574267672492,4357554.0
1574267672545,4361573.0
1574267672589,4362991.0
1574267672642,4368209.0
1574267672690,4370742.0
1574267672738,4375273.0
1574267672786,4375877.0
1574267672831,4376539.0
1574267672882,4376356.0
1574267672932,4381606.0
1574267672982,4382228.0
1574267673030,4382984.0
1574267673079,4386917.0
1574267673125,4385131.0
1574267673176,4387764.0
1574267673224,4389317.0
1574267673268,4391901.0
1574267673318,4391566.0
1574267673366,4396732.0
1574267673414,4395164.0
1574267673464,4392840.0
1574267673511,4393301.0
1574267673561,4391858.0
1574267673608,4392051.0
1574267673655,4391858.0
1574267673709,4392143.0
1574267673751,4392043.0
1574267673802,4392194.0
1574267673848,4390641.0
1574267673901,4391816.0
1574267673947,4394282.0
1574267673996,4396901.0
1574267674049,4399550.0
1574267674097,4401011.0
1574267674143,4401976.0
1574267674193,4401304.0
1574267674238,4396942.0
1574267674286,4402094.0
1574267674336,4403486.0
1574267674386,4403915.0
1574267674433,4405063.0
1574267674486,4408486.0
1574267674529,4412529.0
1574267674579,4417546.0
1574267674626,4421892.0
1574267674676,4424921.0
1574267674724,4430238.0
1574267674775,4436774.0
1574267674826,4443410.0
1574267674868,4445943.0
1574267674922,4450716.0
1574267674968,4454282.0
1574267675018,4460381.0
1574267675063,4465322.0
1574267675114,4473124.0
1574267675164,4480044.0
1574267675211,4485516.0
1574267675261,4491396.0
1574267675306,4499945.0
1574267675354,4503895.0
1574267675406,4507964.0
1574267675450,4512292.0
1574267675499,4522292.0
1574267675548,4524290.0
1574267675597,4525748.0
1574267675644,4527368.0
1574267675694,4532896.0
1574267675747,4534968.0
1574267675790,4536756.0
1574267675843,4537016.0
1574267675886,4533166.0
1574267675940,4531521.0
1574267675986,4530748.0
1574267676032,4531413.0
1574267676089,4532083.0
1574267676133,4532427.0
1574267676183,4549843.0
1574267676478,4573860.0
1574267676479,4567050.0
1574267676479,4541848.0
1574267676479,4480835.0
1574267676479,4933201.0
1574267676481,4927238.0
1574267676547,4839655.0
1574267676627,4768926.0
1574267676627,4707793.0
1574267676667,4695881.0
1574267676711,4637374.0
1574267676761,4648005.0
1574267676809,4700243.0
1574267676860,4765889.0
1574267676906,4834344.0
1574267676980,4813807.0
1574267677080,4734563.0
1574267677081,4695084.0
1574267677161,4648651.0
1574267677163,4631109.0
1574267677195,4621419.0
1574267677246,4615655.0
1574267677296,4577753.0
1574267677342,4523359.0
1574267677388,4514683.0
1574267677438,4470515.0
1574267677487,4449844.0
1574267677535,4447142.0
1574267677587,4409870.0
1574267677632,4373528.0
1574267677683,4361986.0
1574267677727,4342186.0
1574267677780,4270191.0
1574267677828,4332993.0
1574267677876,4330317.0
1574267677928,4375383.0
1574267677973,4391196.0
1574267678022,4365155.0
1574267678070,4333462.0
1574267678119,4312823.0
1574267678166,4290685.0
1574267678217,4271642.0
1574267678264,4228849.0
1574267678311,4189563.0
1574267678367,4160981.0
1574267678411,4135200.0
1574267678458,4116628.0
1574267678508,4093726.0
1574267678554,4057929.0
1574267678604,4028584.0
1574267678651,4004868.0
1574267678701,3993677.0
1574267678749,3981494.0
1574267678797,3949775.0
1574267678846,3919173.0
1574267678895,3888199.0
1574267678945,3853779.0
1574267678991,3824794.0
1574267679040,3798704.0
1574267679088,3772111.0
1574267679142,3746003.0
1574267679193,3714956.0
1574267679239,3692296.0
1574267679281,3678370.0
1574267679330,3666785.0
1574267679385,3666978.0
1574267679431,3684435.0
1574267679480,3685266.0
1574267679529,3680199.0
1574267679577,3652398.0
1574267679627,3589160.0
1574267679672,3542156.0
1574267679724,3530209.0
1574267679772,3535687.0
1574267679815,3532684.0
1574267679868,3517222.0
1574267679918,3492861.0
1574267679965,3472550.0
1574267680010,3470260.0
1574267680061,3475915.0
1574267680113,3469909.0
1574267680159,3472751.0
1574267680203,3477668.0
1574267680257,3476998.0
1574267680305,3444163.0
1574267680350,3423483.0
1574267680398,3387544.0
1574267680446,3347712.0
1574267680495,3324834.0
1574267680543,3338191.0
1574267680591,3339767.0
1574267680642,3367493.0
1574267680689,3394960.0
1574267680737,3422569.0
1574267680790,3442878.0
1574267680832,3468330.0
1574267680881,3485033.0
1574267680929,3508977.0
1574267680978,3527718.0
1574267681030,3464791.0
1574267681074,3421403.0
1574267681123,3442744.0
1574267681171,3437450.0
1574267681220,3422980.0
1574267681273,3416663.0
1574267681319,3446125.0
1574267681367,3425379.0
1574267681416,3442996.0
1574267681465,3437551.0
1574267681513,3441804.0
1574267681562,3442710.0
1574267681612,3438080.0
1574267681659,3442988.0
1574267681707,3437149.0
1574267681755,3435530.0
1574267681802,3429154.0
1574267681852,3437720.0
1574267681902,3440530.0
1574267681951,3447568.0
1574267681998,3442661.0
1574267682046,3448399.0
1574267682094,3441351.0
1574267682144,3428020.0
1574267682190,3422803.0
1574267682242,3422065.0
1574267682288,3424422.0
1574267682334,3433474.0
1574267682384,3437366.0
1574267682434,3427216.0
1574267682484,3423012.0
1574267682533,3419389.0
1574267682581,3408936.0
1574267682628,3409968.0
1574267682676,3417073.0
1574267682725,3419834.0
1574267682775,3451830.0
1574267682822,3531099.0
1574267682873,3576098.0
1574267682920,3607314.0
1574267682967,3673748.0
1574267683016,3754392.0
1574267683064,3756984.0
1574267683114,3720894.0
1574267683162,3685820.0
1574267683209,3651718.0
1574267683259,3614848.0
1574267683307,3587130.0
1574267683354,3593707.0
1574267683405,3590753.0
1574267683452,3593691.0
1574267683501,3594144.0
1574267683549,3584763.0
1574267683597,3606550.0
1574267683646,3626810.0
1574267683695,3630829.0
1574267683744,3633808.0
1574267683797,3644302.0
1574267683848,3653211.0
1574267683892,3655493.0
1574267683934,3609327.0
1574267683986,3555998.0
1574267684036,3537072.0
1574267684084,3528984.0
1574267684135,3568430.0
1574267684179,3594134.0
1574267684228,3622944.0
1574267684277,3665938.0
1574267684325,3706819.0
1574267684377,3702430.0
1574267684426,3686223.0
1574267684473,3661222.0
1574267684524,3632457.0
1574267684570,3605603.0
1574267684616,3587189.0
1574267684669,3587096.0
1574267684719,3588372.0
1574267684765,3573908.0
1574267684809,3597265.0
1574267684863,3623371.0
1574267684911,3630258.0
1574267684954,3639092.0
1574267685005,3650787.0
1574267685055,3646080.0
1574267685101,3624336.0
1574267685149,3607582.0
1574267685197,3598019.0
1574267685246,3602868.0
1574267685294,3592978.0
1574267685344,3599831.0
1574267685391,3592919.0
1574267685445,3578112.0
1574267685492,3558229.0
1574267685541,3543172.0
1574267685593,3522173.0
1574267685641,3499505.0
1574267685687,3478272.0
1574267685735,3457206.0
1574267685784,3431747.0
1574267685828,3414901.0
1574267685874,3397343.0
1574267685929,3384726.0
1574267685981,3373433.0
1574267686027,3362677.0
1574267686074,3340229.0
1574267686125,3364356.0
1574267686172,3386034.0
1574267686216,3420017.0
1574267686268,3495773.0
1574267686318,3579806.0
1574267686366,3633017.0
1574267686416,3729570.0
1574267686463,3745030.0
1574267686511,3799342.0
1574267686555,3761038.0
1574267686606,3726155.0
1574267686651,3701020.0
1574267686702,3686735.0
1574267686749,3680199.0
1574267686800,3676625.0
1574267686847,3670225.0
1574267686897,3670761.0
1574267686944,3662077.0
1574267686992,3650501.0
1574267687042,3645779.0
1574267687093,3633422.0
1574267687137,3638178.0
1574267687190,3630376.0
1574267687238,3640031.0
1574267687283,3740434.0
1574267687332,3796733.0
1574267687386,3849701.0
1574267687434,3863090.0
1574267687479,3872487.0
1574267687531,3871262.0
1574267687578,3847537.0
1574267687628,3844736.0
1574267687675,3855575.0
1574267687727,3864273.0
1574267687773,3867973.0
1574267687820,3869600.0
1574267687867,3870289.0
1574267687913,3861085.0
1574267687962,3861682.0
1574267688012,3862637.0
1574267688063,3855422.0
1574267688109,3834886.0
1574267688157,3814501.0
1574267688206,3790709.0
1574267688255,3776776.0
1574267688308,3775055.0
1574267688350,3777162.0
1574267688400,3773789.0
1574267688453,3775114.0
1574267688500,3774963.0
1574267688552,3778143.0
1574267688602,3781784.0
1574267688644,3780811.0
1574267688691,3772481.0
1574267688744,3768009.0
1574267688792,3765130.0
1574267688843,3769341.0
1574267688890,3777757.0
1574267688938,3782899.0
1574267688988,3791053.0
1574267689035,3794811.0
1574267689080,3800324.0
1574267689128,3802388.0
1574267689181,3810482.0
1574267689230,3806917.0
1574267689277,3799988.0
1574267689325,3790876.0
1574267689370,3786833.0
1574267689422,3789752.0
1574267689467,3793964.0
1574267689516,3798302.0
1574267689564,3800399.0
1574267689613,3808369.0
1574267689663,3817856.0
1574267689709,3825263.0
1574267689762,3837529.0
1574267689807,3847612.0
1574267689860,3846078.0
1574267689909,3860230.0
1574267689957,3876573.0
1574267690002,3893057.0
1574267690053,3906178.0
1574267690102,3917771.0
1574267690151,3933795.0
1574267690200,3943426.0
1574267690244,3945027.0
1574267690291,3948147.0
1574267690343,3963064.0
1574267690388,3971143.0
1574267690441,3965437.0
1574267690490,3963786.0
1574267690532,3983106.0
1574267690585,3974381.0
1574267690631,3954297.0
1574267690683,3890775.0
1574267690728,3877109.0
1574267690776,3882689.0
1574267690826,3871622.0
1574267690873,3856664.0
1574267690924,3844878.0
1574267690969,3840288.0
1574267691022,3823234.0
1574267691071,3779039.0
1574267691119,3767781.0
1574267691164,3802093.0
1574267691215,3821590.0
1574267691265,3809987.0
1574267691314,3816984.0
1574267691362,3827856.0
1574267691405,3854685.0
1574267691458,3863165.0
1574267691508,3797857.0
1574267691556,3822008.0
1574267691605,3828553.0
1574267691646,3904400.0
1574267691698,4942346.0
1574267691745,4079095.0
1574267691794,4026528.0
1574267691845,3981269.0
1574267691891,3980631.0
1574267691941,3981974.0
1574267691988,3983055.0
1574267692036,3987191.0
1574267692086,3980521.0
1574267692134,3974473.0
1574267692186,3965976.0
1574267692230,3960437.0
1574267692277,3951512.0
1574267692328,3956957.0
1574267692380,4005286.0
1574267692425,4051124.0
1574267692471,4117491.0
1574267692526,4157383.0
1574267692573,3894180.0
1574267692625,3965748.0
1574267692671,3954927.0
1574267692720,3976084.0
1574267692764,4001889.0
1574267692815,3982711.0
1574267692870,4024086.0
1574267692913,3972979.0
1574267692963,3982602.0
1574267693008,3967091.0
1574267693060,3956504.0
1574267693107,3951890.0
1574267693157,3946302.0
1574267693202,3932680.0
1574267693253,3924492.0
1574267693304,3895515.0
1574267693347,3986033.0
1574267693400,4059194.0
1574267693448,4533601.0
1574267693497,4259955.0
1574267693546,4445742.0
1574267693593,4131811.0
1574267693644,3952308.0
1574267693689,4158313.0
1574267693740,3893250.0
1574267693790,4281961.0
1574267693833,5320049.0
1574267693882,4746333.0
1574267693933,4900979.0
1574267693983,4551621.0
1574267694028,4842390.0
1574267694075,4596335.0
1574267694127,4555194.0
1574267694171,4571085.0
1574267694222,4822221.0
1574267694269,4668860.0
1574267694317,4566219.0
1574267694364,4578785.0
1574267694414,4631873.0
1574267694464,4951003.0
1574267694511,5093544.0
1574267694561,5127468.0
1574267694608,5012482.0
1574267694657,4762839.0
1574267694706,4574843.0
1574267694754,4390467.0
1574267694803,4431837.0
1574267694851,4418950.0
1574267694900,4342952.0
1574267694948,4252074.0
1574267694997,4290488.0
1574267695047,4260100.0
1574267695094,4260473.0
1574267695143,4321426.0
1574267695191,3876553.0
1574267695242,3581440.0
1574267695289,3487093.0
1574267695337,3517984.0
1574267695387,3648188.0
1574267695434,3742553.0
1574267695484,3779464.0
1574267695535,3802705.0
1574267695583,3863011.0
1574267695629,3906787.0
1574267695678,3898977.0
1574267695728,3897608.0
1574267695774,3905796.0
1574267695823,3908165.0
1574267695871,3933864.0
1574267695922,3956412.0
1574267695970,3976783.0
1574267696017,3986531.0
1574267696072,3965582.0
1574267696117,3940634.0
1574267696163,3924463.0
1574267696213,3912827.0
1574267696263,3910314.0
1574267696310,3911411.0
1574267696360,3922797.0
1574267696408,3927371.0
1574267696456,3930550.0
1574267696506,3926842.0
1574267696550,3922478.0
1574267696604,3927265.0
1574267696652,3932371.0
1574267696700,3932476.0
1574267696749,3932121.0
1574267696797,3925367.0
1574267696844,3928364.0
1574267696887,3930193.0
1574267696943,3929856.0
1574267696992,3933535.0
1574267697039,3936887.0
1574267697086,3940412.0
1574267697135,3940404.0
1574267697186,3945238.0
1574267697234,3944612.0
1574267697277,3926920.0
1574267697326,3933131.0
1574267697372,3915467.0
1574267697421,4007846.0
1574267697471,4133438.0
1574267697525,4203221.0
1574267697575,4187771.0
1574267697621,4140710.0
1574267697670,4080327.0
1574267697714,4034671.0
1574267697763,4005892.0
1574267697809,3984893.0
1574267697858,4101981.0
1574267697907,4140440.0
1574267697956,4169943.0
1574267698005,4154666.0
1574267698053,4100161.0
1574267698102,4050970.0
1574267698152,4048995.0
1574267698203,4053831.0
1574267698250,4064694.0
1574267698295,4079114.0
1574267698347,4087974.0
1574267698392,4092781.0
1574267698445,4081714.0
1574267698492,4052492.0
1574267698543,4030626.0
1574267698590,4003088.0
1574267698634,3997165.0
1574267698688,4005199.0
1574267698733,3979981.0
1574267698785,3959291.0
1574267698828,3966264.0
1574267698881,3978912.0
1574267698925,3992580.0
1574267698972,4003569.0
1574267699023,3965080.0
1574267699073,3885309.0
1574267699119,3935829.0
1574267699168,3936060.0
1574267699216,3898235.0
1574267699265,3898351.0
1574267699314,3914107.0
1574267699366,3902010.0
1574267699414,3975271.0
1574267699463,4145468.0
1574267699511,4261697.0
1574267699560,4324305.0
1574267699610,4323592.0
1574267699652,4245130.0
1574267699706,4197867.0
1574267699753,4149341.0
1574267699798,4124682.0
1574267699850,4116331.0
1574267699897,4159223.0
1574267699948,4174441.0
1574267699996,4179575.0
1574267700040,4243512.0
1574267700086,4236027.0
1574267700137,4244610.0
1574267700186,4299869.0
1574267700236,4431124.0
1574267700282,5045278.0
1574267700335,5938885.0
1574267700379,6391984.0
1574267700428,6571284.0
1574267700476,6987305.0
1574267700525,6962419.0
1574267700576,6599390.0
1574267700622,6012012.0
1574267700674,5633069.0
1574267700723,5233820.0
1574267700769,5195998.0
1574267700817,5582104.0
1574267700869,6120073.0
1574267700918,6288900.0
1574267700964,6183259.0
1574267701009,5926651.0
1574267701062,5684588.0
1574267701111,5026043.0
1574267701156,4836934.0
1574267701208,4775296.0
1574267701257,4708281.0
1574267701305,4665474.0
1574267701353,4652355.0
1574267701401,4647865.0
1574267701450,4659050.0
1574267701493,4667314.0
1574267701548,4673241.0
1574267701595,4687408.0
1574267701646,4656227.0
1574267701691,4606362.0
1574267701739,4586483.0
1574267701789,4556618.0
1574267701841,4520382.0
1574267701887,4519107.0
1574267701934,4531955.0
1574267701983,4560019.0
1574267702028,4572278.0
1574267702076,4585220.0
1574267702125,4581873.0
1574267702176,4606468.0
1574267702223,4635341.0
1574267702270,4688524.0
1574267702320,4756653.0
1574267702368,4798992.0
1574267702417,4822996.0
1574267702465,4833936.0
1574267702516,4862135.0
1574267702563,4898130.0
1574267702610,4873909.0
1574267702658,4851369.0
1574267702707,4834770.0
1574267702757,4807728.0
1574267702805,4763145.0
1574267702858,4735338.0
1574267702906,4710822.0
1574267702954,4713107.0
1574267703003,4707489.0
1574267703051,4680124.0
1574267703099,4669572.0
1574267703148,4643096.0
1574267703196,4660970.0
1574267703241,4670635.0
1574267703292,4695460.0
1574267703341,4712006.0
1574267703390,4740620.0
1574267703442,4817714.0
1574267703487,4866584.0
1574267703535,4925843.0
1574267703585,4958893.0
1574267703632,4937254.0
1574267703679,4918544.0
1574267703730,4911246.0
1574267703780,4873143.0
1574267703824,4832082.0
1574267703870,4820376.0
1574267703919,4830898.0
1574267703968,4828413.0
1574267704019,4844017.0
1574267704065,4870281.0
1574267704113,4904633.0
1574267704162,4909056.0
1574267704210,4910695.0
1574267704260,4932885.0
1574267704307,4947885.0
1574267704358,4928678.0
1574267704404,4920158.0
1574267704453,4915736.0
1574267704501,4915038.0
1574267704549,4917873.0
1574267704597,4932376.0
1574267704650,4939136.0
1574267704699,4946569.0
1574267704748,4957268.0
1574267704796,4978504.0
1574267704851,4993690.0
1574267704887,5011340.0
1574267704939,5006002.0
1574267704986,4986486.0
1574267705032,4953894.0
1574267705082,4948424.0
1574267705131,4950223.0
1574267705184,4942845.0
1574267705228,4941971.0
1574267705280,4945171.0
1574267705325,4942374.0
1574267705372,4955210.0
1574267705423,4977683.0
1574267705471,4991164.0
1574267705524,5008664.0
1574267705567,5024886.0
1574267705616,5033568.0
1574267705664,5054012.0
1574267705713,5039321.0
1574267705763,5035196.0
1574267705810,5038220.0
1574267705859,5044470.0
1574267705907,5050974.0
1574267705956,5054147.0
1574267706005,5040142.0
1574267706052,5036983.0
1574267706103,5058972.0
1574267706149,5063395.0
1574267706200,5071497.0
1574267706246,5079523.0
1574267706294,5087009.0
1574267706344,5082640.0
1574267706392,5041982.0
1574267706444,5016501.0
1574267706488,5010289.0
1574267706538,5004336.0
1574267706586,5006244.0
1574267706634,5001230.0
1574267706685,5010277.0
1574267706731,5000505.0
1574267706783,4979726.0
1574267706828,4977898.0
1574267706879,4996822.0
1574267706926,5010813.0
1574267706978,5019928.0
1574267707025,4991620.0
1574267707075,4938732.0
1574267707125,4899876.0
1574267707172,4874836.0
1574267707221,4869083.0
1574267707271,4859594.0
1574267707314,4841438.0
1574267707362,4798439.0
1574267707410,4744571.0
1574267707463,4743858.0
1574267707507,4761561.0
1574267707557,4788547.0
1574267707606,4823723.0
1574267707652,4858761.0
1574267707704,4852646.0
1574267707751,4836598.0
1574267707799,4837054.0
1574267707847,4833521.0
1574267707896,4834905.0
1574267707946,4840699.0
1574267707993,4835482.0
1574267708043,4832997.0
1574267708089,4828884.0
1574267708139,4835335.0
1574267708187,4836100.0
1574267708235,4840443.0
1574267708287,4847995.0
1574267708332,4845295.0
1574267708386,4807916.0
1574267708429,4752031.0
1574267708478,4704169.0
1574267708526,4676240.0
1574267708575,4667396.0
1574267708626,4661711.0
1574267708671,4648819.0
1574267708726,4628352.0
1574267708772,4626188.0
1574267708817,4621683.0
1574267708864,4622410.0
1574267708918,4622746.0
1574267708966,4625837.0
1574267709011,4628149.0
1574267709061,4629871.0
1574267709108,4608270.0
1574267709157,4568998.0
1574267709206,4541942.0
1574267709254,4532627.0
1574267709305,4533018.0
1574267709536,4533569.0
1574267709537,4528272.0
1574267709543,4523435.0
1574267709545,4518622.0
1574267709617,4523341.0
1574267709617,4529630.0
1574267709704,4533433.0
1574267709705,4539684.0
1574267709757,4551257.0
1574267709819,4567774.0
1574267709866,4576026.0
1574267710146,4555329.0
1574267710147,4524766.0
1574267710148,4513434.0
1574267710149,4508729.0
1574267710152,4507817.0
1574267710156,4517238.0
1574267710233,4518380.0
1574267710247,4520491.0
1574267710311,4524899.0
1574267710327,4530625.0
1574267710372,4541377.0
1574267710422,4554375.0
1574267710465,4561900.0
1574267710518,4570005.0
1574267710571,4574763.0
1574267710611,4581738.0
1574267710661,4584399.0
1574267710914,4565112.0
1574267710916,4565745.0
1574267710916,4563325.0
1574267710918,4553271.0
1574267710918,4539145.0
1574267710976,4520155.0
1574267711312,4553877.0
1574267711312,4570394.0
1574267711312,4588688.0
1574267711312,4601537.0
1574267711367,4622369.0
1574267711433,4624077.0
1574267711450,4616269.0
1574267711485,4593647.0
1574267711537,4578823.0
1574267711585,4573029.0
1574267711633,4569952.0
1574267711676,4569387.0
1574267711732,4567706.0
1574267711778,4569092.0
1574267711824,4568406.0
1574267711870,4569899.0
1574267711919,4572089.0
1574267711966,4578460.0
1574267712014,4578661.0
1574267712067,4578956.0
1574267712111,4583083.0
1574267712161,4590623.0
1574267712208,4572169.0
1574267712259,4550839.0
1574267712307,4539872.0
1574267712355,4543434.0
1574267712403,4552452.0
1574267712452,4558152.0
1574267712500,4545342.0
1574267712549,4539454.0
1574267712599,4554858.0
1574267712646,4577613.0
1574267712695,4599923.0
1574267712744,4622451.0
1574267712792,4635285.0
1574267712841,4634923.0
1574267712889,4617653.0
1574267712938,4596859.0
1574267712988,4579830.0
1574267713034,4577357.0
1574267713084,4598566.0
1574267713131,4624736.0
1574267713181,4632126.0
1574267713230,4628042.0
1574267713276,4630554.0
1574267713325,4641253.0
1574267713374,4670756.0
1574267713423,4704169.0
1574267713470,4748024.0
1574267713521,4798925.0
1574267713569,4833062.0
1574267713616,4834758.0
1574267713665,4827150.0
1574267713713,4826505.0
1574267713762,4840201.0
1574267713810,4859730.0
1574267713860,4869392.0
1574267713910,4875940.0
1574267713956,4880763.0
1574267714005,4887283.0
1574267714053,4889674.0
1574267714102,4886409.0
1574267714150,4870805.0
1574267714200,4858655.0
1574267714250,4836827.0
1574267714296,4772917.0
1574267714344,4699894.0
1574267714392,4677504.0
1574267714440,4703094.0
1574267714491,4779744.0
1574267714536,4821733.0
1574267714591,4879688.0
1574267714637,4925386.0
1574267714685,4917175.0
1574267714731,4920938.0
1574267714786,4937334.0
1574267714831,4958490.0
1574267714877,4986459.0
1574267714923,4996137.0
1574267714972,4963651.0
1574267715021,4948006.0
1574267715072,4929956.0
1574267715121,4935090.0
1574267715167,4939983.0
1574267715216,4928557.0
1574267715265,4909150.0
1574267715313,4910051.0
1574267715362,4904904.0
1574267715411,4887672.0
1574267715459,4872646.0
1574267715507,4869581.0
1574267715555,4840522.0
1574267715605,4784867.0
1574267715651,4736036.0
1574267715701,4703268.0
1574267715752,4686495.0
1574267715797,4671495.0
1574267715846,4660649.0
1574267715895,4648068.0
1574267715944,4641589.0
1574267715991,4639157.0
1574267716041,4631967.0
1574267716088,4636604.0
1574267716137,4636672.0
1574267716186,4607558.0
1574267716234,4560193.0
1574267716282,4539307.0
1574267716333,4546873.0
1574267716381,4553365.0
1574267716428,4553500.0
1574267716477,4543756.0
1574267716534,4531835.0
1574267716574,4532615.0
1574267716621,4537102.0
1574267716673,4545651.0
1574267716719,4543623.0
1574267716767,4538730.0
1574267716815,4540181.0
1574267716865,4521203.0
1574267716915,4504322.0
1574267716962,4503568.0
1574267717009,4524227.0
1574267717058,4542263.0
1574267717106,4542572.0
1574267717155,4537049.0
1574267717204,4534564.0
1574267717254,4542963.0
1574267717301,4549603.0
1574267717346,4560260.0
1574267717395,4561497.0
1574267717446,4556686.0
1574267717495,4523635.0
1574267717543,4510773.0
1574267717594,4510840.0
1574267717641,4517668.0
1574267717688,4529589.0
1574267717734,4529562.0
1574267717784,4523085.0
1574267717832,4535745.0
1574267717883,4542357.0
1574267717930,4553406.0
1574267717980,4559132.0
1574267718027,4560301.0
1574267718076,4543850.0
1574267718125,4528313.0
1574267718175,4511929.0
1574267718219,4509792.0
1574267718267,4513985.0
1574267718318,4528272.0
1574267718366,4528596.0
1574267718417,4532668.0
1574267718465,4542009.0
1574267718517,4553930.0
1574267718561,4559830.0
1574267718609,4568822.0
1574267718659,4561040.0
1574267718707,4537520.0
1574267718756,4531499.0
1574267718804,4533636.0
1574267718855,4540408.0
1574267718900,4547842.0
1574267718949,4549455.0
1574267718998,4553044.0
1574267719047,4557036.0
1574267719094,4564803.0
1574267719144,4573862.0
1574267719191,4589843.0
1574267719241,4600409.0
1574267719288,4595018.0
1574267719337,4570167.0
1574267719386,4563743.0
1574267719435,4566590.0
1574267719483,4571041.0
1574267719531,4580798.0
1574267719580,4593755.0
1574267719628,4595098.0
1574267719678,4602276.0
1574267719725,4613540.0
1574267719781,4619937.0
1574267719822,4631832.0
1574267719870,4640367.0
1574267719920,4644426.0
1574267719965,4617665.0
1574267720018,4605205.0
1574267720064,4605031.0
1574267720113,4609009.0
1574267720162,4615353.0
1574267720209,4618000.0
1574267720259,4625325.0
1574267720307,4629897.0
1574267720560,4637490.0
1574267720560,4639937.0
1574267720560,4648687.0
1574267720560,4659250.0
1574267720560,4665003.0
1574267720694,4674089.0
1574267720696,4662436.0
1574267720728,4643714.0
1574267720746,4634655.0
1574267720790,4634855.0
1574267720840,4645984.0
1574267720889,4655541.0
1574267720938,4661603.0
1574267720990,4658040.0
1574267721037,4663068.0
1574267721087,4671294.0
1574267721135,4680633.0
1574267721186,4687369.0
1574267721232,4695015.0
1574267721278,4702220.0
1574267721326,4706453.0
1574267721378,4707286.0
1574267721428,4686401.0
1574267721474,4667986.0
1574267721525,4660393.0
1574267721571,4667020.0
1574267721619,4669654.0
1574267721669,4678028.0
1574267721716,4674518.0
1574267721767,4672128.0
1574267721815,4673026.0
1574267721857,4683875.0
1574267721906,4691400.0
1574267721954,4697556.0
1574267722004,4703415.0
1574267722052,4715041.0
1574267722104,4716884.0
1574267722149,4692960.0
1574267722200,4673550.0
1574267722244,4669089.0
1574267722292,4671442.0
1574267722341,4676803.0
1574267722389,4685070.0
1574267722442,4678095.0
1574267722486,4681293.0
1574267722540,4684599.0
1574267722586,4689842.0
1574267722634,4695822.0
1574267722683,4698860.0
1574267722728,4702770.0
1574267722781,4716104.0
1574267723107,4723859.0
1574267723107,4715727.0
1574267723107,4690028.0
1574267723114,4668592.0
1574267723114,4597532.0
1574267723121,4575799.0
1574267723185,4614441.0
1574267723185,4650003.0
1574267723273,4651321.0
1574267723273,4656173.0
1574267723311,4684787.0
1574267723364,4710513.0
1574267723409,4728390.0
1574267723463,4757757.0
1574267723507,4799985.0
1574267723556,4836141.0
1574267723606,4859247.0
1574267723650,4869675.0
1574267723703,4851666.0
1574267723748,4827029.0
1574267723798,4820885.0
1574267723846,4816021.0
1574267723896,4819555.0
1574267723946,4815686.0
1574267723992,4814637.0
1574267724044,4811208.0
1574267724089,4807218.0
1574267724137,4807177.0
1574267724185,4805658.0
1574267724234,4805726.0
1574267724285,4826665.0
1574267724331,4803883.0
1574267724385,4787634.0
1574267724426,4776276.0
1574267724477,4766104.0
1574267724526,4751640.0
1574267724574,4749505.0
1574267724623,4752770.0
1574267724670,4742569.0
1574267724724,4731022.0
1574267724767,4710486.0
1574267724817,4691468.0
1574267724866,4681266.0
1574267724913,4671159.0
1574267724965,4668833.0
1574267725010,4667705.0
1574267725060,4664155.0
1574267725108,4661308.0
1574267725156,4661240.0
1574267725205,4637664.0
1574267725252,4588647.0
1574267725304,4555435.0
1574267725349,4537102.0
1574267725398,4526592.0
1574267725446,4519885.0
1574267725495,4509724.0
1574267725545,4493488.0
1574267725592,4479256.0
1574267725645,4470909.0
1574267725687,4473609.0
1574267725739,4472534.0
1574267725786,4470721.0
1574267725834,4471177.0
1574267725883,4469617.0
1574267725932,4476285.0
1574267725981,4466702.0
1574267726239,4417482.0
1574267726239,4376274.0
1574267726240,4359324.0
1574267726240,4344542.0
1574267726240,4338318.0
1574267726294,4124434.0
1574267726433,4081598.0
1574267726433,4066688.0
1574267726435,4057317.0
1574267726471,4056295.0
1574267726515,4058404.0
1574267726565,4061064.0
1574267726611,4062153.0
1574267726661,4064743.0
1574267726708,4068788.0
1574267726758,4070444.0
1574267726805,4074404.0
1574267726853,4077015.0
1574267726909,4080973.0
1574267726952,4083208.0
1574267726999,4088082.0
1574267727049,4094996.0
1574267727098,4098791.0
1574267727145,4103954.0
1574267727198,4110543.0
1574267727247,4109783.0
1574267727295,4071312.0
1574267727344,4032475.0
1574267727388,4018730.0
1574267727435,4015668.0
1574267727484,4016343.0
1574267727534,4017015.0
1574267727584,4002637.0
1574267727630,3991529.0
1574267727681,3989248.0
1574267727727,3992600.0
1574267727777,3992695.0
1574267727825,3997184.0
1574267727871,4001566.0
1574267727926,4005959.0
1574267727974,4013866.0
1574267728024,4016333.0
1574267728067,4025772.0
1574267728120,4029740.0
1574267728170,4038178.0
1574267728214,4042877.0
1574267728267,4049572.0
1574267728314,4055206.0
1574267728359,4055198.0
1574267728408,4019732.0
1574267728455,3993226.0
1574267728506,3984721.0
1574267728552,3980936.0
1574267728602,3981446.0
1574267728649,3982563.0
1574267728698,3978518.0
1574267728745,3967951.0
1574267728794,3961171.0
1574267728844,3964377.0
1574267728892,3970773.0
1574267728941,3974076.0
1574267728992,3977593.0
1574267729042,3977756.0
1574267729089,3985424.0
1574267729138,3990903.0
1574267729187,3994766.0
1574267729230,3999689.0
1574267729280,4009061.0
1574267729329,4012200.0
1574267729382,4023517.0
1574267729430,4031097.0
1574267729478,4037195.0
1574267729554,4014973.0
1574267729575,3985491.0
1574267729624,3976571.0
1574267729669,3974375.0
1574267729720,3978796.0
1574267729769,3977728.0
1574267729814,3974269.0
1574267729862,3962662.0
1574267729910,3961902.0
1574267729959,3964753.0
1574267730007,3965842.0
1574267730056,3971957.0
1574267730105,3975840.0
1574267730153,3982476.0
1574267730202,3986366.0
1574267730250,3988668.0
1574267730300,3992907.0
1574267730348,3997956.0
1574267730395,4004120.0
1574267730444,4008626.0
1574267730492,4015648.0
1574267730542,4021910.0
1574267730589,4015427.0
1574267730638,3978951.0
1574267730686,3960651.0
1574267730734,3958261.0
1574267730784,3958058.0
1574267730831,3960391.0
1574267730881,3958328.0
1574267730933,3946615.0
1574267730977,3941906.0
1574267731030,3941751.0
1574267731077,3946693.0
1574267731127,3951672.0
1574267731171,3953426.0
1574267731227,3962538.0
1574267731273,3964840.0
1574267731317,3968605.0
1574267731369,3975377.0
1574267731418,3980897.0
1574267731466,3985509.0
1574267731509,3990538.0
1574267731564,3996115.0
1574267731610,3999246.0
1574267731662,3984402.0
1574267731708,3948206.0
1574267731757,3928143.0
1574267731802,3926206.0
1574267731851,3925002.0
1574267731900,3922903.0
1574267731948,3917537.0
1574267731996,3911316.0
1574267732045,3905623.0
1574267732093,3908744.0
1574267732143,3913281.0
1574267732191,3916103.0
1574267732238,3922218.0
1574267732284,3929665.0
1574267732333,3933941.0
1574267732384,3939884.0
1574267732434,3943986.0
1574267732482,3949872.0
1574267732532,3956711.0
1574267732579,3961161.0
1574267732630,3965592.0
1574267732678,3972786.0
1574267732724,3978237.0
1574267732778,3986377.0
1574267732821,3993591.0
1574267732873,3997647.0
1574267732922,4004908.0
1574267732970,3983766.0
1574267733018,3947406.0
1574267733062,3938872.0
1574267733113,3934163.0
1574267733165,3935510.0
1574267733212,3939720.0
1574267733260,3928710.0
1574267733308,3921005.0
1574267733354,3917604.0
1574267733404,3917633.0
1574267733452,3920668.0
1574267733501,3925329.0
1574267733547,3926590.0
1574267733596,3933123.0
1574267733645,3939441.0
1574267733693,3940327.0
1574267733742,3949226.0
1574267733793,3954399.0
1574267733839,3961864.0
1574267733887,3968577.0
1574267733935,3974867.0
1574267733984,3979404.0
1574267734038,3976378.0
1574267734085,3942974.0
1574267734133,3921621.0
1574267734183,3915745.0
1574267734230,3915379.0
1574267734275,3911728.0
1574267734324,3913559.0
1574267734376,3903859.0
1574267734426,3898707.0
1574267734473,3894777.0
1574267734517,3899237.0
1574267734571,3899881.0
1574267734617,3905334.0
1574267734670,3908589.0
1574267734718,3911797.0
1574267734763,3918047.0
1574267734812,3926544.0
1574267734863,3931812.0
1574267734910,3939267.0
1574267734955,3942869.0
1574267735008,3945652.0
1574267735057,3955429.0
1574267735105,3962162.0
1574267735152,3968885.0
1574267735198,3974066.0
1574267735246,3983565.0
1574267735296,3988091.0
1574267735344,3997819.0
1574267735392,3987504.0
1574267735441,3957414.0
1574267735488,3935857.0
1574267735537,3933903.0
1574267735586,3932139.0
1574267735636,3934287.0
1574267735687,3933084.0
1574267735734,3924077.0
1574267735781,3913453.0
1574267735828,3908994.0
1574267735879,3912356.0
1574267735929,3918145.0
1574267735980,3927363.0
1574267736027,3941656.0
1574267736074,3949332.0
1574267736124,3954929.0
1574267736171,3959350.0
1574267736217,3962355.0
1574267736268,3969993.0
1574267736315,3972864.0
1574267736362,3978227.0
1574267736407,3983140.0
1574267736459,3990239.0
1574267736507,3994814.0
1574267736554,3968182.0
1574267736604,3944275.0
1574267736653,3937235.0
1574267736702,3940711.0
1574267736749,3941223.0
1574267736798,3946309.0
1574267736850,3936455.0
1574267736897,3929211.0
1574267736948,3931879.0
1574267736995,3935049.0
1574267737045,3939218.0
1574267737092,3939892.0
1574267737137,3945961.0
1574267737190,3952260.0
1574267737236,3957867.0
1574267737283,3968123.0
1574267737332,3971602.0
1574267737385,3973961.0
1574267737431,3969570.0
1574267737716,3974030.0
1574267737716,3976417.0
1574267737716,3969050.0
1574267737716,3938515.0
1574267737717,3912557.0
1574267737762,3910467.0
1574267737774,3905536.0
1574267737848,3898099.0
1574267737869,3896636.0
1574267737917,3890761.0
1574267737966,3866603.0
1574267738014,3843342.0
1574267738059,3848082.0
1574267738107,3867239.0
1574267738155,3878932.0
1574267738205,3885531.0
1574267738252,3880551.0
1574267738302,3874127.0
1574267738348,3879877.0
1574267738397,3895316.0
1574267738445,3909774.0
1574267738495,3906480.0
1574267738543,3897860.0
1574267738592,3898812.0
1574267738643,3914475.0
1574267738879,3929971.0
1574267738880,3909802.0
1574267738880,3889393.0
1574267738880,3879712.0
1574267738919,3880955.0
1574267739005,3884952.0
1574267739005,3890403.0
1574267739069,3889017.0
1574267739092,3884383.0
1574267739382,3926206.0
1574267739382,3941337.0
1574267739382,3954881.0
1574267739384,3965399.0
1574267739432,3970832.0
1574267739509,3981917.0
1574267739522,3997387.0
1574267739564,3983575.0
1574267739610,3946327.0
1574267739661,3921044.0
1574267739710,3914810.0
1574267739761,3914262.0
1574267739806,3918896.0
1574267739857,3921649.0
1574267739905,3920928.0
1574267739953,3910150.0
1574267740004,3908715.0
1574267740051,3910034.0
1574267740098,3915091.0
1574267740147,3921775.0
1574267740196,3933450.0
1574267740244,3947686.0
1574267740288,3954822.0
1574267740341,3947954.0
1574267740390,3913020.0
1574267740438,3895326.0
1574267740482,3885655.0
1574267740530,3883528.0
1574267740585,3881437.0
1574267740628,3875840.0
1574267740677,3862018.0
1574267740725,3846743.0
1574267740774,3833209.0
1574267740827,3819830.0
1574267741061,3815757.0
1574267741061,3822845.0
1574267741061,3833786.0
1574267741064,3844333.0
1574267741099,3859909.0
1574267741233,3881648.0
1574267741233,3880271.0
1574267741233,3838949.0
1574267741273,3805700.0
1574267741556,3816921.0
1574267741556,3820822.0
1574267741556,3817528.0
1574267741556,3813339.0
1574267741613,3814879.0
1574267741689,3819261.0
1574267741696,3823616.0
1574267741743,3834971.0
1574267741796,3843630.0
1574267741849,3856528.0
1574267741892,3861613.0
1574267741941,3867471.0
1574267741986,3889113.0
1574267742034,3909967.0
1574267742085,3941666.0
1574267742131,3981956.0
1574267742181,4017257.0
1574267742228,4042118.0
1574267742275,4068075.0
1574267742326,4085528.0
1574267742376,4093147.0
1574267742426,4104494.0
1574267742475,4109204.0
1574267742524,4123690.0
1574267742572,4135769.0
1574267742621,4141356.0
1574267742664,4141027.0
1574267742718,4140334.0
1574267742765,4140970.0
1574267742810,4143475.0
1574267742863,4124210.0
1574267742909,4102828.0
1574267742962,4100083.0
1574267743007,4098446.0
1574267743058,4103348.0
1574267743110,4109531.0
1574267743154,4105890.0
1574267743204,4093523.0
1574267743250,4093850.0
1574267743301,4107981.0
1574267743346,4116043.0
1574267743393,4114570.0
1574267743443,4107625.0
1574267743490,4102653.0
1574267743541,4102625.0
1574267743587,4098407.0
1574267743636,4071850.0
1574267743684,4059936.0
1574267743733,4049688.0
1574267743783,4041819.0
1574267743830,4038842.0
1574267743882,4034056.0
1574267743926,4035596.0
1574267743975,4035153.0
1574267744026,4038997.0
1574267744071,4043264.0
1574267744121,4045681.0
1574267744168,4045730.0
1574267744223,4054042.0
1574267744266,4053839.0
1574267744499,4043129.0
1574267744499,4022698.0
1574267744499,4017113.0
1574267744500,4014453.0
1574267744572,4015861.0
1574267744706,4013114.0
1574267744706,4011536.0
1574267744706,4009175.0
1574267744771,4011623.0
1574267744800,4015416.0
1574267744848,4024771.0
1574267744897,4029403.0
1574267744945,4031311.0
1574267744994,4031772.0
1574267745048,4015630.0
1574267745095,4000258.0
1574267745143,3996501.0
1574267745188,3997878.0
1574267745241,4000276.0
1574267745292,4001105.0
1574267745334,4001298.0
1574267745387,4002173.0
1574267745434,4004764.0
1574267745483,4010573.0
1574267745527,4015331.0
1574267745581,4020821.0
1574267745630,4027948.0
1574267745681,4036280.0
1574267745722,4042550.0
1574267745773,4027217.0
1574267745820,4003878.0
1574267745869,3995883.0
1574267745919,3994959.0
1574267745969,3992291.0
1574267746016,3995324.0
1574267746066,3996568.0
1574267746113,3993795.0
1574267746162,3996779.0
1574267746208,3999833.0
1574267746260,4007740.0
1574267746308,4011585.0
1574267746356,4013452.0
1574267746405,4020339.0
1574267746453,4025039.0
1574267746503,4029557.0
1574267746548,4034816.0
1574267746600,4038544.0
1574267746643,4040297.0
1574267746691,4042676.0
1574267746741,4046809.0
1574267746794,4025224.0
1574267747120,4004957.0
1574267747120,3981917.0
1574267747120,3963329.0
1574267747120,3951278.0
1574267747120,3981060.0
1574267747120,4011430.0
1574267747171,4032794.0
1574267747202,4039198.0
1574267747260,4034277.0
1574267747275,4007982.0
1574267747324,3981667.0
1574267747375,3979924.0
1574267747425,3991799.0
1574267747468,3981348.0
1574267747523,3972266.0
1574267747570,3974954.0
1574267747619,3989044.0
1574267747663,4042040.0
1574267747710,4096692.0
1574267747761,4131069.0
1574267747810,4182369.0
1574267747858,4224914.0
1574267747906,4238321.0
1574267747954,4228102.0
1574267748004,4238782.0
1574267748051,4251690.0
1574267748106,4263962.0
1574267748155,4268440.0
1574267748200,4252411.0
1574267748249,4232976.0
1574267748297,4222785.0
1574267748347,4216216.0
1574267748393,4212266.0
1574267748443,4200785.0
1574267748495,4194708.0
1574267748542,4194803.0
1574267748589,4201585.0
1574267748638,4214241.0
1574267748683,4222640.0
1574267748730,4233813.0
1574267748784,4237675.0
1574267748831,4241818.0
1574267748881,4239140.0
1574267748925,4226618.0
1574267748974,4210129.0
1574267749023,4200728.0
1574267749070,4204397.0
1574267749121,4203442.0
1574267749168,4205783.0
1574267749216,4195738.0
1574267749266,4189563.0
1574267749314,4183466.0
1574267749368,4181820.0
1574267749415,4181723.0
1574267749464,4177263.0
1574267749511,4169472.0
1574267749561,4162161.0
1574267749609,4133294.0
1574267749654,4108251.0
1574267749702,4093880.0
1574267749755,4078738.0
1574267749800,4070223.0
1574267749851,4058365.0
1574267749901,4045334.0
1574267749947,4031097.0
1574267749993,4014031.0
1574267750047,4014522.0
1574267750097,4009455.0
1574267750139,4002405.0
1574267750187,3986320.0
1574267750235,3954129.0
1574267750283,3918124.0
1574267750332,3894093.0
1574267750382,3880320.0
1574267750429,3864108.0
1574267750478,3854669.0
1574267750526,3839613.0
1574267750579,3824107.0
1574267750628,3810198.0
1574267750675,3808002.0
1574267750724,3810381.0
1574267750773,3808369.0
1574267750818,3793621.0
1574267750870,3760806.0
1574267750915,3734308.0
1574267750963,3712241.0
1574267751018,3698757.0
1574267751065,3698468.0
1574267751111,3692602.0
1574267751162,3687844.0
1574267751209,3678413.0
1574267751253,3674398.0
1574267751307,3676806.0
1574267751355,3678577.0
1574267751404,3678809.0
1574267751452,3680830.0
1574267751501,3662214.0
1574267751549,3656423.0
1574267751595,3656009.0
1574267751643,3659593.0
1574267751691,3677007.0
1574267751740,3690790.0
1574267751787,3696329.0
1574267751837,3700654.0
1574267751885,3707012.0
1574267751936,3710189.0
1574267751986,3715159.0
1574267752034,3714688.0
1574267752085,3710112.0
1574267752131,3688517.0
1574267752177,3670198.0
1574267752228,3666779.0
1574267752278,3663841.0
1574267752322,3665785.0
1574267752370,3676777.0
1574267752425,3672287.0
1574267752471,3667665.0
1574267752517,3670428.0
1574267752567,3677259.0
1574267752616,3680215.0
1574267752666,3687515.0
1574267752708,3690376.0
1574267752763,3677923.0
1574267752807,3672529.0
1574267752855,3671190.0
1574267752904,3676891.0
1574267752952,3684935.0
1574267753000,3697861.0
1574267753049,3709177.0
1574267753098,3716902.0
1574267753147,3724253.0
1574267753197,3734288.0
1574267753242,3748563.0
1574267753296,3761749.0
1574267753538,3774935.0
1574267753538,3772393.0
1574267753538,3771064.0
1574267753545,3770630.0
1574267753571,3776544.0
1574267753596,3782737.0
1574267753715,3793178.0
1574267753715,3801376.0
1574267753743,3812232.0
1574267754022,3850201.0
1574267754023,3866526.0
1574267754024,3877323.0
1574267754028,3892254.0
1574267754098,3901462.0
1574267754177,3895923.0
1574267754177,3893881.0
1574267754214,3892754.0
1574267754263,3897945.0
1574267754311,3899603.0
1574267754361,3908270.0
1574267754408,3910765.0
1574267754456,3915737.0
1574267754508,3918338.0
1574267754557,3924839.0
1574267754607,3932708.0
1574267754654,3942215.0
1574267754894,3948832.0
1574267754896,3959619.0
1574267754897,3964696.0
1574267754899,3969280.0
1574267754953,3978016.0
1574267754954,3983256.0
1574267755095,3990028.0
1574267755096,3999776.0
1574267755097,4003330.0
1574267755158,4011392.0
1574267755183,4021176.0
1574267755232,4025088.0
1574267755282,4031888.0
1574267755329,4030829.0
1574267755379,4020205.0
1574267755426,4010851.0
1574267755475,4008165.0
1574267755523,4011554.0
1574267755572,4007519.0
1574267755626,4011901.0
1574267755672,4005593.0
1574267755724,4004311.0
1574267755770,4005969.0
1574267755814,4007432.0
1574267755864,4013954.0
1574267755916,4016150.0
1574267755961,4022054.0
1574267756012,4027554.0
1574267756060,4031473.0
1574267756110,4035539.0
1574267756159,4042290.0
1574267756207,4048205.0
1574267756255,4050584.0
1574267756304,4057981.0
1574267756348,4058030.0
1574267756398,4067632.0
1574267756445,4069020.0
1574267756494,4051055.0
1574267756545,4028046.0
1574267756591,4017131.0
1574267756644,4010408.0
1574267756687,4004128.0
1574267756736,3999987.0
1574267756789,3996403.0
1574267756834,3989093.0
1574267756883,3984952.0
1574267756933,3979664.0
1574267756981,3977169.0
1574267757032,3979326.0
1574267757079,3975781.0
1574267757130,3978065.0
1574267757177,3978402.0
1574267757221,3980771.0
1574267757273,3979182.0
1574267757321,3982254.0
1574267757370,3986878.0
1574267757420,3989209.0
1574267757462,3990749.0
1574267757512,3997021.0
1574267757564,3998177.0
1574267757609,3985125.0
1574267757659,3954167.0
1574267757705,3928411.0
1574267757755,3923336.0
1574267757806,3918384.0
1574267757852,3917980.0
1574267757905,3914244.0
1574267757948,3902270.0
1574267758002,3894237.0
1574267758044,3892234.0
1574267758097,3892851.0
1574267758148,3895846.0
1574267758203,3898908.0
1574267758246,3904034.0
1574267758286,3903254.0
1574267758341,3906903.0
1574267758383,3911614.0
1574267758437,3914697.0
1574267758484,3918539.0
1574267758535,3919030.0
1574267758583,3921458.0
1574267758631,3898264.0
1574267758680,3855459.0
1574267758723,3837698.0
1574267758777,3830022.0
1574267758825,3826996.0
1574267758873,3827815.0
1574267758919,3823636.0
1574267758966,3813532.0
1574267759016,3798523.0
1574267759065,3790654.0
1574267759113,3792534.0
1574267759164,3797619.0
1574267759207,3796685.0
1574267759259,3801510.0
1574267759307,3805710.0
1574267759359,3807550.0
1574267759403,3813185.0
1574267759456,3812376.0
1574267759500,3822709.0
1574267759549,3829174.0
1574267759598,3831812.0
1574267759646,3835357.0
1574267759695,3840635.0
1574267759747,3842119.0
1574267759795,3806297.0
1574267759845,3777893.0
1574267759892,3759225.0
1574267759943,3758754.0
1574267759986,3755430.0
1574267760032,3756702.0
1574267760084,3750942.0
1574267760128,3736072.0
1574267760180,3730157.0
1574267760227,3731581.0
1574267760277,3733538.0
1574267760325,3736821.0
1574267760373,3737207.0
1574267760423,3739471.0
1574267760470,3748246.0
1574267760520,3754063.0
1574267760567,3760853.0
1574267760616,3764668.0
1574267760667,3774368.0
1574267760712,3775707.0
1574267760766,3754727.0
1574267760809,3724454.0
1574267760862,3713147.0
1574267760909,3710055.0
1574267760959,3712097.0
1574267761007,3716248.0
1574267761056,3714167.0
1574267761104,3705469.0
1574267761153,3706270.0
1574267761203,3707800.0
1574267761249,3717018.0
1574267761298,3722152.0
1574267761351,3726612.0
1574267761391,3730610.0
1574267761442,3737977.0
1574267761489,3746868.0
1574267761538,3751684.0
1574267761588,3729405.0
1574267761635,3700163.0
1574267761686,3687708.0
1574267761732,3683586.0
1574267761781,3683500.0
1574267761829,3686629.0
1574267761881,3689317.0
1574267761926,3683325.0
1574267761978,3679339.0
1574267762028,3683287.0
1574267762075,3691609.0
1574267762123,3698708.0
1574267762171,3702637.0
1574267762219,3708812.0
1574267762267,3717028.0
1574267762314,3719899.0
1574267762363,3696406.0
1574267762415,3669071.0
1574267762463,3653408.0
1574267762506,3655017.0
1574267762562,3657435.0
1574267762608,3656915.0
1574267762657,3654469.0
1574267762707,3646793.0
1574267762754,3647534.0
1574267762806,3651260.0
1574267762850,3654932.0
1574267762896,3661037.0
1574267762945,3667260.0
1574267762993,3672279.0
1574267763042,3679108.0
1574267763090,3686369.0
1574267763139,3659044.0
1574267763188,3630455.0
1574267763236,3623464.0
1574267763283,3623627.0
1574267763332,3622221.0
1574267763385,3631081.0
1574267763431,3623194.0
1574267763483,3616692.0
1574267763528,3621373.0
1574267763579,3626516.0
1574267763628,3634704.0
1574267763676,3643190.0
1574267763720,3649316.0
1574267763768,3657417.0
1574267763819,3664438.0
1574267763871,3672500.0
1574267763919,3679041.0
1574267763967,3690550.0
1574267764016,3691792.0
1574267764059,3659005.0
1574267764110,3631717.0
1574267764156,3624291.0
1574267764206,3620073.0
1574267764253,3621912.0
1574267764303,3626006.0
1574267764349,3623135.0
1574267764399,3620169.0
1574267764449,3621276.0
1574267764497,3626747.0
1574267764545,3635811.0
1574267764593,3641437.0
1574267764642,3646396.0
1574267764691,3657945.0
1574267764739,3670044.0
1574267764794,3677267.0
1574267764841,3684608.0
1574267764889,3690154.0
1574267765167,3696637.0
1574267765167,3703716.0
1574267765167,3708505.0
1574267765167,3724145.0
1574267765167,3733999.0
1574267765220,3744046.0
1574267765238,3751462.0
1574267765312,3761566.0
1574267765327,3762434.0
1574267765372,3725698.0
1574267765423,3695693.0
1574267765470,3694441.0
1574267765516,3692273.0
1574267765565,3695394.0
1574267765613,3702387.0
1574267765662,3693151.0
1574267765712,3687170.0
1574267765759,3684443.0
1574267765807,3682941.0
1574267765855,3689644.0
1574267765903,3693305.0
1574267765950,3696532.0
1574267766006,3700528.0
1574267766057,3705469.0
1574267766103,3709033.0
1574267766150,3718020.0
1574267766198,3727806.0
1574267766247,3729050.0
1574267766292,3696898.0
1574267766344,3669359.0
1574267766392,3659005.0
1574267766441,3651366.0
1574267766490,3646512.0
1574267766538,3651415.0
1574267766587,3653408.0
1574267766632,3644499.0
1574267766684,3641947.0
1574267766728,3645722.0
1574267766782,3647650.0
1574267767030,3657146.0
1574267767030,3659515.0
1574267767030,3665149.0
1574267767030,3663427.0
1574267767030,3632806.0
1574267767084,3607330.0
1574267767221,3599546.0
1574267767222,3592025.0
1574267767222,3590099.0
1574267767286,3596966.0
1574267767312,3594741.0
1574267767360,3586929.0
1574267767406,3589896.0
1574267767457,3595897.0
1574267767506,3598998.0
1574267767554,3606578.0
1574267767607,3609805.0
1574267767653,3610701.0
1574267767704,3588480.0
1574267767752,3550415.0
1574267767797,3536207.0
1574267767850,3533452.0
1574267767897,3536266.0
1574267767946,3544153.0
1574267767993,3544269.0
1574267768044,3541447.0
1574267768091,3548883.0
1574267768138,3553139.0
1574267768189,3563186.0
1574267768236,3572307.0
1574267768282,3582913.0
1574267768330,3597832.0
1574267768380,3597525.0
1574267768427,3568262.0
1574267768476,3544181.0
1574267768525,3534791.0
1574267768574,3533519.0
1574267768622,3537854.0
1574267768670,3546437.0
1574267768717,3549123.0
1574267768767,3552688.0
1574267768816,3560730.0
1574267768864,3568475.0
1574267768915,3581419.0
1574267768964,3592968.0
1574267769012,3600741.0
1574267769058,3614949.0
1574267769110,3623907.0
1574267769154,3638576.0
1574267769206,3628308.0
1574267769256,3600241.0
1574267769305,3584280.0
1574267769352,3577297.0
1574267769396,3571565.0
1574267769450,3577673.0
1574267769498,3593912.0
1574267769546,3600087.0
1574267769589,3599981.0
1574267769639,3609573.0
1574267769688,3618675.0
1574267769737,3631882.0
1574267769784,3642457.0
1574267769837,3653562.0
1574267769883,3666846.0
1574267769930,3647833.0
1574267769980,3646417.0
1574267770220,3618850.0
1574267770220,3559602.0
1574267770220,3531064.0
1574267770223,3516076.0
1574267770271,3482961.0
1574267770281,3474332.0
1574267770389,3476286.0
1574267770389,3484598.0
1574267770448,3519939.0
1574267770469,3555596.0
1574267770517,3592921.0
1574267770565,3597852.0
1574267770613,3562743.0
1574267770661,3561482.0
1574267770711,3543509.0
1574267770761,3563611.0
1574267770804,3560864.0
1574267770852,3543759.0
1574267770901,3545636.0
1574267770949,3577142.0
1574267771000,3596099.0
1574267771046,3605412.0
1574267771098,3620766.0
1574267771144,3643526.0
1574267771192,3674918.0
1574267771243,3702387.0
1574267771288,3715323.0
1574267771340,3718666.0
1574267771390,3716673.0
1574267771438,3712260.0
1574267771487,3721266.0
1574267771535,3726372.0
1574267771583,3726390.0
1574267771630,3735078.0
1574267771680,3728172.0
1574267771725,3728345.0
1574267771779,3733317.0
1574267771823,3732575.0
1574267771868,3735426.0
1574267771921,3734846.0
1574267771965,3736417.0
1574267772018,3744123.0
1574267772063,3750046.0
1574267772113,3755912.0
1574267772162,3762895.0
1574267772208,3765583.0
1574267772262,3762616.0
1574267772307,3774888.0
1574267772359,3790646.0
1574267772404,3803379.0
1574267772453,3813916.0
1574267772504,3820852.0
1574267772550,3819599.0
1574267772603,3815342.0
1574267772647,3811191.0
1574267772696,3805045.0
1574267772744,3800807.0
1574267772793,3792390.0
1574267772844,3797349.0
1574267772890,3801530.0
1574267772941,3809737.0
1574267772986,3825369.0
1574267773034,3835887.0
1574267773082,3843612.0
1574267773132,3839874.0
1574267773183,3820072.0
1574267773421,3811894.0
1574267773422,3806982.0
1574267773425,3805661.0
1574267773425,3805228.0
1574267773496,3800344.0
1574267773496,3799661.0
1574267773526,3796512.0
1574267773775,3799584.0
1574267773776,3803389.0
1574267773776,3810690.0
1574267773825,3809178.0
1574267773911,3798909.0
1574267773913,3778115.0
1574267773956,3771747.0
1574267774004,3766054.0
1574267774052,3772797.0
1574267774102,3774984.0
1574267774151,3774791.0
1574267774204,3765920.0
1574267774248,3768819.0
1574267774297,3774435.0
1574267774345,3784722.0
1574267774391,3789681.0
1574267774445,3806971.0
1574267774490,3812433.0
1574267774545,3790868.0
1574267774587,3769301.0
1574267774635,3755402.0
1574267774682,3745481.0
1574267774733,3740269.0
1574267774783,3734664.0
1574267774830,3726882.0
1574267774880,3722422.0
1574267774926,3737699.0
1574267774976,3761625.0
1574267775024,3789076.0
1574267775072,3802213.0
1574267775125,3802435.0
1574267775169,3792717.0
1574267775219,3791272.0
1574267775266,3793873.0
1574267775315,3798410.0
1574267775363,3805084.0
1574267775412,3805460.0
1574267775464,3811132.0
1574267775508,3812289.0
1574267775556,3822084.0
1574267775603,3827488.0
1574267775651,3835117.0
1574267775702,3842726.0
1574267775749,3849179.0
1574267775800,3854476.0
1574267775847,3854669.0
1574267775897,3866691.0
1574267775945,3885377.0
1574267775993,3904668.0
1574267776045,3923258.0
1574267776090,3938795.0
1574267776141,3963125.0
1574267776187,3986925.0
1574267776235,4010756.0
1574267776283,4016794.0
1574267776332,4026128.0
1574267776384,4032379.0
1574267776429,4026686.0
1574267776479,4021766.0
1574267776526,4016987.0
1574267776575,4016168.0
1574267776625,4011834.0
1574267776672,4010591.0
1574267776722,4015032.0
1574267776768,4016284.0
1574267776817,4016111.0
1574267776864,4019067.0
1574267776912,4017170.0
1574267776965,4020715.0
1574267777010,4019974.0
1574267777060,4013925.0
1574267777108,4008598.0
1574267777403,4011497.0
1574267777403,4010804.0
1574267777403,4009138.0
1574267777403,4012259.0
1574267777404,4008502.0
1574267777405,4011324.0
1574267777507,4010794.0
1574267777507,4014358.0
1574267777633,4015890.0
1574267777633,4014821.0
1574267777647,4016284.0
1574267777694,4015831.0
1574267777746,4009388.0
1574267777790,4004138.0
1574267777841,3999804.0
1574267777889,4002145.0
1574267777937,3998697.0
1574267777986,3993746.0
1574267778034,3993370.0
1574267778082,3991511.0
1574267778130,3994323.0
1574267778176,3990826.0
1574267778225,3988939.0
1574267778272,3990759.0
1574267778322,3994449.0
1574267778369,3985828.0
1574267778419,3975956.0
1574267778467,3956719.0
1574267778515,3952097.0
1574267778563,3945606.0
1574267778611,3939884.0
1574267778665,3934248.0
1574267778711,3922759.0
1574267778762,3916844.0
1574267778806,3913502.0
1574267778858,3914898.0
1574267778907,3914888.0
1574267778955,3917431.0
1574267779000,3922488.0
1574267779048,3921206.0
1574267779100,3917143.0
1574267779150,3908002.0
1574267779196,3893004.0
1574267779242,3882410.0
1574267779294,3875002.0
1574267779344,3868684.0
1574267779389,3861296.0
1574267779436,3855276.0
1574267779484,3845510.0
1574267779532,3840231.0
1574267779582,3834489.0
1574267779629,3830503.0
1574267779679,3828258.0
1574267779726,3826314.0
1574267779775,3823636.0
1574267779823,3824146.0
1574267779871,3822142.0
1574267779918,3812356.0
1574267779966,3792109.0
1574267780018,3773722.0
1574267780068,3761702.0
1574267780111,3752899.0
1574267780161,3746974.0
1574267780208,3738940.0
1574267780261,3724310.0
1574267780306,3721979.0
1574267780379,3712367.0
1574267780405,3709188.0
1574267780453,3707985.0
1574267780502,3708928.0
1574267780551,3702714.0
1574267780600,3703842.0
1574267780648,3705807.0
1574267780699,3701888.0
1574267780744,3678683.0
1574267780792,3651963.0
1574267780841,3639673.0
1574267780891,3628732.0
1574267780938,3624850.0
1574267780986,3622125.0
1574267781034,3612877.0
1574267781082,3604951.0
1574267781131,3605587.0
1574267781183,3602551.0
1574267781228,3604701.0
1574267781276,3609189.0
1574267781325,3609632.0
1574267781373,3606135.0
1574267781423,3613147.0
1574267781469,3618935.0
1574267781523,3620006.0
1574267781571,3619061.0
1574267781619,3593719.0
1574267781665,3566750.0
1574267781712,3555029.0
1574267781766,3546821.0
1574267781808,3543344.0
1574267781858,3536235.0
1574267781906,3531255.0
1574267781955,3521970.0
1574267782004,3516153.0
1574267782052,3512098.0
1574267782102,3514833.0
1574267782150,3515528.0
1574267782198,3515595.0
1574267782246,3515209.0
1574267782298,3515113.0
1574267782346,3516094.0
1574267782391,3519987.0
1574267782443,3521489.0
1574267782490,3517830.0
1574267782537,3491139.0
1574267782589,3470161.0
1574267782638,3463188.0
1574267782686,3458612.0
1574267782732,3458881.0
1574267782785,3461983.0
1574267782827,3446678.0
1574267782878,3436092.0
1574267782925,3422917.0
1574267782973,3416443.0
1574267783023,3407908.0
1574267783071,3406203.0
1574267783118,3407148.0
1574267783166,3413447.0
1574267783215,3415046.0
1574267783264,3416001.0
1574267783313,3423156.0
1574267783364,3424591.0
1574267783412,3404499.0
1574267783462,3392700.0
1574267783510,3386699.0
1574267783559,3383251.0
1574267783607,3385283.0
1574267783652,3389464.0
1574267783702,3385679.0
1574267783754,3382615.0
1574267783796,3384541.0
1574267783847,3386420.0
1574267783897,3389811.0
1574267783947,3395378.0
1574267783995,3398402.0
1574267784044,3402091.0
1574267784091,3408621.0
1574267784136,3410856.0
1574267784188,3396215.0
1574267784233,3377684.0
1574267784282,3371326.0
1574267784329,3369323.0
1574267784379,3370634.0
1574267784426,3369939.0
1574267784475,3370845.0
1574267784524,3362340.0
1574267784573,3365914.0
1574267784621,3368196.0
1574267784669,3371769.0
1574267784718,3377666.0
1574267784770,3384638.0
1574267784815,3390821.0
1574267784867,3394608.0
1574267784916,3376904.0
1574267784964,3361897.0
1574267785012,3356714.0
1574267785062,3358295.0
1574267785110,3359104.0
1574267785153,3365443.0
1574267785208,3361405.0
1574267785256,3360731.0
1574267785304,3359132.0
1574267785348,3367243.0
1574267785402,3371885.0
1574267785450,3377491.0
1574267785495,3384649.0
1574267785546,3388192.0
1574267785591,3394310.0
1574267785640,3403266.0
1574267785688,3390669.0
1574267785736,3370711.0
1574267785785,3364902.0
1574267785835,3360731.0
1574267785882,3362744.0
1574267785930,3363882.0
1574267785984,3363409.0
1574267786031,3357862.0
1574267786080,3356011.0
1574267786127,3357082.0
1574267786175,3360875.0
1574267786227,3365201.0
1574267786273,3368708.0
1574267786317,3371481.0
1574267786365,3378194.0
1574267786413,3379996.0
1574267786462,3375729.0
1574267786513,3354240.0
1574267786562,3346342.0
1574267786613,3340263.0
1574267786661,3341265.0
1574267786711,3348152.0
1574267786759,3346698.0
1574267786804,3342864.0
1574267786851,3343548.0
1574267786900,3348662.0
1574267786949,3355231.0
1574267786997,3361127.0
1574267787046,3368023.0
1574267787098,3373533.0
1574267787143,3380266.0
1574267787191,3384801.0
1574267787243,3386189.0
1574267787292,3365211.0
1574267787344,3357620.0
1574267787388,3354528.0
1574267787438,3352218.0
1574267787487,3358092.0
1574267787535,3358006.0
1574267787584,3355627.0
1574267787631,3355030.0
1574267787676,3362551.0
1574267787729,3365605.0
1574267787778,3371857.0
1574267787822,3378253.0
1574267787874,3386026.0
1574267787919,3392075.0
1574267787970,3401870.0
1574267788018,3407244.0
1574267788062,3413109.0
1574267788112,3423166.0
1574267788161,3430343.0
1574267788209,3430477.0
1574267788259,3413274.0
1574267788306,3403335.0
1574267788355,3397709.0
1574267788403,3396303.0
1574267788451,3396573.0
1574267788503,3396148.0
1574267788553,3393664.0
1574267788601,3389667.0
1574267788649,3388539.0
1574267788698,3381757.0
1574267788742,3378966.0
1574267788795,3380313.0
1574267788841,3383356.0
1574267788892,3391101.0
1574267788942,3401600.0
1574267788989,3413640.0
1574267789038,3421799.0
1574267789086,3428203.0
1574267789134,3437460.0
1574267789183,3447873.0
1574267789230,3463986.0
1574267789276,3475718.0
1574267789325,3490647.0
1574267789372,3502128.0
1574267789422,3517531.0
1574267789470,3529543.0
1574267789522,3540599.0
1574267789566,3532143.0
1574267789616,3512647.0
1574267789666,3509343.0
1574267789716,3508622.0
1574267789762,3510903.0
1574267789809,3509073.0
1574267789863,3501744.0
1574267789910,3497467.0
1574267789959,3495637.0
1574267790008,3494347.0
1574267790056,3499133.0
1574267790100,3502216.0
1574267790152,3505326.0
1574267790200,3507244.0
1574267790249,3512734.0
1574267790299,3512108.0
1574267790349,3512937.0
1574267790395,3514382.0
1574267790442,3512706.0
1574267790488,3515469.0
1574267790538,3514053.0
1574267790585,3509526.0
1574267790635,3486640.0
1574267790685,3465681.0
1574267790731,3453401.0
1574267790784,3446909.0
1574267790828,3442161.0
1574267790877,3438971.0
1574267790930,3430361.0
1574267790977,3418640.0
1574267791025,3414901.0
1574267791071,3420025.0
1574267791121,3426133.0
1574267791171,3433569.0
1574267791220,3441621.0
1574267791263,3451349.0
1574267791313,3462040.0
1574267791365,3463399.0
1574267791413,3466558.0
1574267791463,3470228.0
1574267791509,3472048.0
1574267791559,3461674.0
1574267791602,3444183.0
1574267791656,3436103.0
1574267791704,3437084.0
1574267791748,3438732.0
1574267791803,3443065.0
1574267791848,3437056.0
1574267791895,3427212.0
1574267791946,3422242.0
1574267791991,3417762.0
1574267792044,3413235.0
1574267792088,3410501.0
1574267792137,3405405.0
1574267792185,3408314.0
1574267792234,3420460.0
1574267792283,3425806.0
1574267792331,3417262.0
1574267792383,3395579.0
1574267792432,3384706.0
1574267792480,3388771.0
1574267792527,3394289.0
1574267792573,3400088.0
1574267792624,3403603.0
1574267792673,3397670.0
1574267792720,3394366.0
1574267792772,3394935.0
1574267792816,3395059.0
1574267792863,3399403.0
1574267792914,3402380.0
1574267792967,3412658.0
1574267793013,3418995.0
1574267793063,3428983.0
1574267793111,3418802.0
1574267793155,3393702.0
1574267793203,3376461.0
1574267793252,3368533.0
1574267793301,3368785.0
1574267793348,3369274.0
1574267793398,3371491.0
1574267793447,3375603.0
1574267793494,3374486.0
1574267793544,3379785.0
1574267793594,3386150.0
1574267793644,3394588.0
1574267793691,3421915.0
1574267793738,3435418.0
1574267793786,3445589.0
1574267793834,3452294.0
1574267793884,3444636.0
1574267793933,3433858.0
1574267793980,3408979.0
1574267794027,3396120.0
1574267794076,3402632.0
1574267794124,3413485.0
1574267794172,3422366.0
1574267794222,3416029.0
1574267794269,3410143.0
1574267794319,3408757.0
1574267794366,3415635.0
1574267794419,3419719.0
1574267794469,3422376.0
1574267794515,3432653.0
1574267794565,3445166.0
1574267794612,3460924.0
1574267794662,3475651.0
1574267794706,3478117.0
1574267794752,3473475.0
1574267794807,3460961.0
1574267794855,3454163.0
1574267794903,3456965.0
1574267794952,3460152.0
1574267795000,3463948.0
1574267795050,3468060.0
1574267795097,3469043.0
1574267795147,3469746.0
1574267795193,3470354.0
1574267795245,3476547.0
1574267795291,3483144.0
1574267795340,3491313.0
1574267795386,3504729.0
1574267795432,3514843.0
1574267795481,3527828.0
1574267795529,3540406.0
1574267795578,3552503.0
1574267795626,3559468.0
1574267795675,3540648.0
1574267795723,3526682.0
1574267795771,3526950.0
1574267795820,3526613.0
1574267795866,3523860.0
1574267795921,3529090.0
1574267795966,3525111.0
1574267796017,3514207.0
1574267796067,3515152.0
1574267796114,3511982.0
1574267796240,3514544.0
1574267796240,3511377.0
1574267796476,3530697.0
1574267796543,3532846.0
1574267796562,3537170.0
1574267796600,3530717.0
1574267796644,3523523.0
1574267796692,3527375.0
1574267796741,3536794.0
1574267796791,3544153.0
1574267796838,3552707.0
1574267797146,3561222.0
1574267797147,3563591.0
1574267797148,3572935.0
1574267797148,3580168.0
1574267797152,3589906.0
1574267797152,3596418.0
1574267797214,3604248.0
1574267797234,3610788.0
1574267797346,3614728.0
1574267797346,3619600.0
1574267797371,3626256.0
1574267797423,3632863.0
1574267797470,3639241.0
1574267797520,3623887.0
1574267797568,3608129.0
1574267797617,3604161.0
1574267797666,3606280.0
1574267797707,3607657.0
1574267797767,3609660.0
1574267797810,3609717.0
1574267797859,3605288.0
1574267797907,3606452.0
1574267797956,3614264.0
1574267798005,3619370.0
1574267798051,3624167.0
1574267798098,3631207.0
1574267798146,3633972.0
1574267798194,3640405.0
1574267798243,3648449.0
1574267798291,3655267.0
1574267798340,3661403.0
1574267798390,3666885.0
1574267798437,3676353.0
1574267798485,3669831.0
1574267798538,3646839.0
1574267798586,3638363.0
1574267798632,3635021.0
1574267798683,3635705.0
1574267798731,3636890.0
1574267798780,3636697.0
1574267798825,3629060.0
1574267798872,3627942.0
1574267798926,3629608.0
1574267798971,3636542.0
1574267799022,3640907.0
1574267799069,3646051.0
1574267799119,3648438.0
1574267799168,3657252.0
1574267799214,3662222.0
1574267799264,3669388.0
1574267799311,3670265.0
1574267799358,3654979.0
1574267799406,3635994.0
1574267799454,3628877.0
1574267799503,3622576.0
1574267799552,3623426.0
1574267799600,3621497.0
1574267799648,3620429.0
1574267799697,3611442.0
1574267799749,3607590.0
1574267799794,3607415.0
1574267799847,3611836.0
1574267799893,3614862.0
1574267799944,3619360.0
1574267799991,3624860.0
1574267800040,3629454.0
1574267800088,3637642.0
1574267800136,3641484.0
1574267800186,3634588.0
1574267800235,3608023.0
1574267800279,3593431.0
1574267800327,3583008.0
1574267800381,3579908.0
1574267800428,3572963.0
1574267800475,3573126.0
1574267800522,3566799.0
1574267800569,3557388.0
1574267800620,3557658.0
1574267800666,3560238.0
1574267800715,3564458.0
1574267800763,3566384.0
1574267800810,3568195.0
1574267800861,3568205.0
1574267800908,3574495.0
1574267800962,3581391.0
1574267801009,3585657.0
1574267801053,3565334.0
1574267801106,3548834.0
1574267801154,3540272.0
1574267801205,3537883.0
1574267801252,3539521.0
1574267801301,3542814.0
1574267801349,3550453.0
1574267801649,3554440.0
1574267801649,3563773.0
1574267801649,3571614.0
1574267801649,3576748.0
1574267801649,3586245.0
1574267801649,3597129.0
1574267801702,3605595.0
1574267801779,3615034.0
1574267801792,3623637.0
1574267801831,3608206.0
1574267801879,3588057.0
1574267801927,3582624.0
1574267801977,3586438.0
1574267802025,3587017.0
1574267802074,3591379.0
1574267802122,3593786.0
1574267802404,3592362.0
1574267802404,3591224.0
1574267802404,3594857.0
1574267802404,3604219.0
1574267802406,3606895.0
1574267802500,3616075.0
1574267802500,3616633.0
1574267802518,3625640.0
1574267802627,3636293.0
1574267802627,3635013.0
1574267802655,3617743.0
1574267802708,3599384.0
1574267802755,3599335.0
1574267802805,3596157.0
1574267802852,3603187.0
1574267802902,3606076.0
1574267803023,3598256.0
1574267803023,3584300.0
1574267803274,3580369.0
1574267803274,3585840.0
1574267803274,3588538.0
1574267803274,3594183.0
1574267803274,3597775.0
1574267803337,3601405.0
1574267803337,3612820.0
1574267803421,3623810.0
1574267803440,3630293.0
1574267803485,3593449.0
1574267803526,3577124.0
1574267803579,3572760.0
1574267803629,3575054.0
1574267803681,3573532.0
1574267803726,3573656.0
1574267803778,3568820.0
1574267803820,3562955.0
1574267803871,3570025.0
1574267803918,3577191.0
1574267803963,3586360.0
1574267804017,3595761.0
1574267804065,3598073.0
1574267804114,3607407.0
1574267804165,3615845.0
1574267804211,3615093.0
1574267804262,3598421.0
1574267804308,3586610.0
1574267804357,3583741.0
1574267804407,3588683.0
1574267804453,3595040.0
1574267804503,3602245.0
1574267804551,3607127.0
1574267804596,3605451.0
1574267804644,3607629.0
1574267804692,3617934.0
1574267804742,3621644.0
1574267804789,3631804.0
1574267804838,3634444.0
1574267804884,3648276.0
1574267804935,3653148.0
1574267804983,3660710.0
1574267805029,3650568.0
1574267805081,3623454.0
1574267805132,3604796.0
1574267805353,3588451.0
1574267805353,3580023.0
1574267805353,3583211.0
1574267805353,3578819.0
1574267805418,3573378.0
1574267805433,3567955.0
1574267805738,3594337.0
1574267805738,3602312.0
1574267805738,3614437.0
1574267805738,3620380.0
1574267805798,3627219.0
1574267805818,3632459.0
1574267805885,3636360.0
1574267805906,3609795.0
1574267805953,3579995.0
1574267806002,3566230.0
1574267806053,3554661.0
1574267806101,3549153.0
1574267806150,3544220.0
1574267806200,3529571.0
1574267806243,3526883.0
1574267806297,3519043.0
1574267806341,3521383.0
1574267806393,3527645.0
1574267806443,3531747.0
1574267806491,3533635.0
1574267806540,3532913.0
1574267806588,3528655.0
1574267806636,3531786.0
1574267806681,3515574.0
1574267806733,3486640.0
1574267806783,3471067.0
1574267806827,3463448.0
1574267806875,3465498.0
1574267806923,3459921.0
1574267806972,3456743.0
1574267807024,3447448.0
1574267807069,3442373.0
1574267807122,3443634.0
1574267807166,3448441.0
1574267807215,3449029.0
1574267807265,3454459.0
1574267807311,3457214.0
1574267807366,3463273.0
1574267807413,3462001.0
1574267807461,3435562.0
1574267807508,3414816.0
1574267807558,3410519.0
1574267807602,3408719.0
1574267807829,3409229.0
1574267807829,3411868.0
1574267807838,3406368.0
1574267807838,3405704.0
1574267807906,3406147.0
1574267807906,3409489.0
1574267808053,3417118.0
1574267808053,3425777.0
1574267808053,3433222.0
1574267808089,3434368.0
1574267808136,3419987.0
1574267808185,3399866.0
1574267808234,3388905.0
1574267808285,3385988.0
1574267808330,3389127.0
1574267808384,3393731.0
1574267808427,3394732.0
1574267808477,3392152.0
1574267808524,3390880.0
1574267808577,3397554.0
1574267808623,3406118.0
1574267808674,3415046.0
1574267808724,3421220.0
1574267808766,3426720.0
1574267808816,3419091.0
1574267808863,3395214.0
1574267808917,3383722.0
1574267808969,3383539.0
1574267809013,3384734.0
1574267809063,3388944.0
1574267809109,3389675.0
1574267809159,3384427.0
1574267809202,3387662.0
1574267809249,3396534.0
1574267809306,3402506.0
1574267809347,3414633.0
1574267809401,3422955.0
1574267809450,3432962.0
1574267809498,3442690.0
1574267809544,3435245.0
1574267809591,3415942.0
1574267809639,3410616.0
1574267809687,3411896.0
1574267809737,3415432.0
1574267809785,3423272.0
1574267809833,3425036.0
1574267809883,3426411.0
1574267809930,3425718.0
1574267809984,3435475.0
1574267810031,3442092.0
1574267810080,3455857.0
1574267810125,3462879.0
1574267810177,3474494.0
1574267810225,3483656.0
1574267810274,3490639.0
1574267810320,3503034.0
1574267810371,3490291.0
1574267810418,3474417.0
1574267810466,3465701.0
1574267810516,3465016.0
1574267810565,3469293.0
1574267810612,3470758.0
1574267810661,3474842.0
1574267810708,3474523.0
1574267810753,3480957.0
1574267810803,3488548.0
1574267810851,3501309.0
1574267810898,3511722.0
1574267810948,3528771.0
1574267810997,3542881.0
1574267811047,3557668.0
1574267811093,3564525.0
1574267811157,3564554.0
1574267811194,3558448.0
1574267811243,3534108.0
1574267811291,3511230.0
1574267811336,3507888.0
1574267811633,3516355.0
1574267811633,3526131.0
1574267811633,3540831.0
1574267811635,3552572.0
1574267811636,3564361.0
1574267811637,3581496.0
1574267811696,3591958.0
1574267811763,3581641.0
1574267811784,3568532.0
1574267811822,3569351.0
1574267811873,3569119.0
1574267811923,3562424.0
1574267811966,3538807.0
1574267812019,3512309.0
1574267812071,3495281.0
1574267812115,3482219.0
1574267812164,3473156.0
1574267812213,3480033.0
1574267812263,3467771.0
1574267812307,3445156.0
1574267812358,3430737.0
1574267812406,3420131.0
1574267812455,3407120.0
1574267812504,3403680.0
1574267812550,3387942.0
1574267812597,3364864.0
1574267812650,3366280.0
1574267812698,3375469.0
1574267812747,3390744.0
1574267812791,3409324.0
1574267812842,3421624.0
1574267812887,3432480.0
1574267812936,3437045.0
1574267812988,3444502.0
1574267813033,3454943.0
1574267813084,3466077.0
1574267813130,3473021.0
1574267813180,3485706.0
1574267813227,3476209.0
1574267813276,3448594.0
1574267813322,3441399.0
1574267813376,3432529.0
1574267813425,3431584.0
1574267813470,3432691.0
1574267813522,3436304.0
1574267813573,3431363.0
1574267813618,3420903.0
1574267813667,3409661.0
1574267813716,3405858.0
1574267813765,3400376.0
1574267813807,3418426.0
1574267813863,3430178.0
1574267813910,3413766.0
1574267813957,3391429.0
1574267814006,3388212.0
1574267814051,3388694.0
1574267814100,3383560.0
1574267814147,3381142.0
1574267814197,3379195.0
1574267814245,3376306.0
1574267814293,3377481.0
1574267814343,3386044.0
1574267814391,3388877.0
1574267814437,3396465.0
1574267814494,3404885.0
1574267814536,3391179.0
1574267814588,3379813.0
1574267814636,3373618.0
1574267814685,3375353.0
1574267814728,3376355.0
1574267814786,3376316.0
1574267814830,3381546.0
1574267814880,3379831.0
1574267814922,3382741.0
1574267814977,3395474.0
1574267815026,3403507.0
1574267815071,3418900.0
1574267815122,3424024.0
1574267815170,3399673.0
1574267815218,3367060.0
1574267815267,3354731.0
1574267815316,3358362.0
1574267815365,3368254.0
1574267815414,3377578.0
1574267815457,3374033.0
1574267815505,3374025.0
1574267815554,3379600.0
1574267815603,3386768.0
1574267815652,3403402.0
1574267815699,3418109.0
1574267815750,3422685.0
1574267815797,3414613.0
1574267815845,3410954.0
1574267816081,3411541.0
1574267816081,3414662.0
1574267816081,3417839.0
1574267816081,3417628.0
1574267816122,3423272.0
1574267816140,3426970.0
1574267816269,3435621.0
1574267816269,3445753.0
1574267816301,3456686.0
1574267816347,3458139.0
1574267816466,3448171.0
1574267816466,3433165.0
1574267816694,3429475.0
1574267816694,3433126.0
1574267816694,3439262.0
1574267816695,3450193.0
1574267816696,3461674.0
1574267816776,3467156.0
1574267816776,3476248.0
1574267816852,3476894.0
1574267816876,3484734.0
1574267816915,3497486.0
1574267816961,3504644.0
1574267817008,3511019.0
1574267817058,3513563.0
1574267817106,3514670.0
1574267817159,3517482.0
1574267817207,3518466.0
1574267817257,3527241.0
1574267817304,3537643.0
1574267817351,3539338.0
1574267817401,3543267.0
1574267817448,3545155.0
1574267817492,3554094.0
1574267817546,3563542.0
1574267817598,3582238.0
1574267817643,3596387.0
1574267817692,3607850.0
1574267817740,3615922.0
1574267817792,3621711.0
1574267817831,3614650.0
1574267817881,3609660.0
1574267817929,3611895.0
1574267817977,3620545.0
1574267818026,3630908.0
1574267818075,3635840.0
1574267818124,3644596.0
1574267818173,3648062.0
1574267818473,3652591.0
1574267818473,3657975.0
1574267818473,3650838.0
1574267818473,3654479.0
1574267818473,3657146.0
1574267818473,3661500.0
1574267818535,3670091.0
1574267818735,3692747.0
1574267818735,3686062.0
1574267818770,3675755.0
1574267818839,3677460.0
1574267818854,3671151.0
1574267818903,3670111.0
1574267818951,3672143.0
1574267818998,3668868.0
1574267819048,3665121.0
1574267819097,3667376.0
1574267819142,3669099.0
1574267819189,3673675.0
1574267819239,3680889.0
1574267819286,3683191.0
1574267819336,3679973.0
1574267819384,3679800.0
1574267819435,3682710.0
1574267819481,3680465.0
1574267819529,3681420.0
1574267819583,3680426.0
1574267819630,3661220.0
1574267819677,3651126.0
1574267819727,3651657.0
1574267819777,3652012.0
1574267819821,3655653.0
1574267819872,3657811.0
1574267819921,3649363.0
1574267819967,3648642.0
1574267820016,3649643.0
1574267820061,3647957.0
1574267820109,3655192.0
1574267820160,3662984.0
1574267820208,3665767.0
1574267820258,3670284.0
1574267820302,3675861.0
1574267820357,3678134.0
1574267820402,3682661.0
1574267820454,3678770.0
1574267820499,3657224.0
1574267820552,3635840.0
1574267820597,3622981.0
1574267820649,3620756.0
1574267820697,3615104.0
1574267820746,3611038.0
1574267820790,3602811.0
1574267820844,3590532.0
1574267820890,3579918.0
1574267820941,3577230.0
1574267820987,3579012.0
1574267821034,3574696.0
1574267821078,3578847.0
1574267821129,3576998.0
1574267821179,3574225.0
1574267821227,3575092.0
1574267821278,3577827.0
1574267821323,3580034.0
1574267821371,3566539.0
1574267821420,3531487.0
1574267821467,3501551.0
1574267821520,3492709.0
1574267821565,3482672.0
1574267821614,3478339.0
1574267821662,3473668.0
1574267821711,3462127.0
1574267821761,3456300.0
1574267821807,3457495.0
1574267821858,3457284.0
1574267821905,3462629.0
1574267821953,3466481.0
1574267822002,3466924.0
1574267822236,3462812.0
1574267822236,3474582.0
1574267822241,3482489.0
1574267822243,3492575.0
1574267822313,3478627.0
1574267822313,3454585.0
1574267822343,3439502.0
1574267822476,3437903.0
1574267822476,3439435.0
1574267822503,3442872.0
1574267822544,3435822.0
1574267822583,3431084.0
1574267822632,3429658.0
1574267822682,3433693.0
1574267822728,3429985.0
1574267823044,3416636.0
1574267823044,3406801.0
1574267823044,3405761.0
1574267823044,3407187.0
1574267823046,3413583.0
1574267823052,3419304.0
1574267823137,3424843.0
1574267823137,3400405.0
1574267823168,3376625.0
1574267823241,3363622.0
1574267823263,3363130.0
1574267823311,3360520.0
1574267823360,3368533.0
1574267823407,3369717.0
1574267823457,3366645.0
1574267823504,3364421.0
1574267823553,3369977.0
1574267823603,3374082.0
1574267823650,3380949.0
1574267823703,3386227.0
1574267823747,3388212.0
1574267823793,3386006.0
1574267823845,3382586.0
1574267823893,3382365.0
1574267823945,3386160.0
1574267823993,3380756.0
1574267824043,3359276.0
1574267824090,3346486.0
1574267824139,3349491.0
1574267824186,3351291.0
1574267824237,3359912.0
1574267824284,3362793.0
1574267824330,3357082.0
1574267824380,3357255.0
1574267824426,3361655.0
1574267824475,3369411.0
1574267824524,3375325.0
1574267824813,3385563.0
1574267824813,3395695.0
1574267824813,3407939.0
1574267824813,3415710.0
1574267824813,3427963.0
1574267824988,3393028.0
1574267824989,3390138.0
1574267825019,3392806.0
1574267825054,3399318.0
1574267825104,3398844.0
1574267825158,3396457.0
1574267825206,3398806.0
1574267825254,3407148.0
1574267825308,3417849.0
1574267825351,3428339.0
1574267825401,3434985.0
1574267825447,3440629.0
1574267825494,3447102.0
1574267825544,3463525.0
1574267825589,3481382.0
1574267825639,3491187.0
1574267825687,3478272.0
1574267825736,3458131.0
1574267825784,3452814.0
1574267825833,3450955.0
1574267825882,3450319.0
1574267825929,3448807.0
1574267825980,3447352.0
1574267826027,3442421.0
1574267826079,3442720.0
1574267826122,3440532.0
1574267826176,3444000.0
1574267826223,3446148.0
1574267826272,3443691.0
1574267826320,3451629.0
1574267826644,3460258.0
1574267826644,3467743.0
1574267826644,3474649.0
1574267826645,3481864.0
1574267826646,3466162.0
1574267826646,3439097.0
1574267826717,3430139.0
1574267826717,3427299.0
1574267826801,3425978.0
1574267826816,3428906.0
1574267826851,3422299.0
1574267826900,3412388.0
1574267826948,3421655.0
1574267826997,3433211.0
1574267827047,3444289.0
1574267827093,3451889.0
1574267827147,3461337.0
1574267827193,3468850.0
1574267827243,3482114.0
1574267827291,3491216.0
1574267827335,3498863.0
1574267827386,3483568.0
1574267827437,3456349.0
1574267827487,3449047.0
1574267827533,3446649.0
1574267827583,3442700.0
1574267827629,3447363.0
1574267827885,3441564.0
1574267827885,3438405.0
1574267827885,3439108.0
1574267827885,3440060.0
1574267827885,3438114.0
1574267827923,3448017.0
1574267828053,3456396.0
1574267828053,3458092.0
1574267828084,3464931.0
1574267828127,3472857.0
1574267828161,3473223.0
1574267828209,3474716.0
1574267828260,3462629.0
1574267828306,3425670.0
1574267828355,3405366.0
1574267828406,3388086.0
1574267828455,3372714.0
1574267828504,3361464.0
1574267828548,3343837.0
1574267828601,3324535.0
1574267828647,3314440.0
1574267828973,3311349.0
1574267828973,3300136.0
1574267828973,3288057.0
1574267828973,3280170.0
1574267828973,3270991.0
1574267828973,3254530.0
1574267829025,3247160.0
1574267829041,3247575.0
1574267829105,3252140.0
1574267829135,3233282.0
1574267829180,3198894.0
1574267829227,3172128.0
1574267829275,3156091.0
1574267829327,3143742.0
1574267829373,3135825.0
1574267829422,3126068.0
1574267829470,3125239.0
1574267829519,3138966.0
1574267829567,3159308.0
1574267829615,3181913.0
1574267829664,3193780.0
1574267829716,3205174.0
1574267829765,3217225.0
1574267829810,3232365.0
1574267829863,3245427.0
1574267829910,3254221.0
1574267829954,3248028.0
1574267830009,3218919.0
1574267830056,3199406.0
1574267830105,3193155.0
1574267830148,3186220.0
1574267830199,3188579.0
1574267830248,3188309.0
1574267830296,3185034.0
1574267830342,3182618.0
1574267830600,3182520.0
1574267830600,3185170.0
1574267830600,3188983.0
1574267830601,3192884.0
1574267830601,3210069.0
1574267830654,3231961.0
1574267830797,3249078.0
1574267830797,3260617.0
1574267830798,3271269.0
1574267830840,3273986.0
1574267830876,3253402.0
1574267830932,3236835.0
1574267830978,3230285.0
1574267831027,3225923.0
1574267831074,3225662.0
1574267831125,3228948.0
1574267831167,3226453.0
1574267831217,3214248.0
1574267831269,3222725.0
1574267831582,3239572.0
1574267831582,3249308.0
1574267831582,3261513.0
1574267831582,3269420.0
1574267831582,3280132.0
1574267831582,3285323.0
1574267831654,3294435.0
1574267831655,3300725.0
1574267831742,3296101.0
1574267831761,3289543.0
1574267831800,3292836.0
1574267831849,3306378.0
1574267831896,3315760.0
1574267831945,3331923.0
1574267831993,3335293.0
1574267832042,3332453.0
1574267832094,3338829.0
1574267832343,3346178.0
1574267832343,3356330.0
1574267832343,3361877.0
1574267832343,3369362.0
1574267832343,3372174.0
1574267832384,3375006.0
1574267832523,3373687.0
1574267832523,3382182.0
1574267832550,3384801.0
1574267832590,3388923.0
1574267832621,3397361.0
1574267832674,3375431.0
1574267832726,3355635.0
1574267832771,3353845.0
1574267832820,3354827.0
1574267832864,3353815.0
1574267832912,3352641.0
1574267832963,3350887.0
1574267833014,3344406.0
1574267833061,3349134.0
1574267833112,3358169.0
1574267833157,3359691.0
1574267833205,3364325.0
1574267833251,3364093.0
1574267833306,3366617.0
1574267833354,3367088.0
1574267833404,3365711.0
1574267833451,3367253.0
1574267833501,3371270.0
1574267833550,3383493.0
1574267833598,3382664.0
1574267833915,3367397.0
1574267833915,3359652.0
1574267833915,3356485.0
1574267833915,3356734.0
1574267833916,3364325.0
1574267833917,3361194.0
1574267833989,3354288.0
1574267833989,3356214.0
1574267834075,3366828.0
1574267834094,3382316.0
1574267834128,3395831.0
1574267834176,3413264.0
1574267834482,3427000.0
1574267834482,3436546.0
1574267834482,3447159.0
1574267834482,3463283.0
1574267834482,3471461.0
1574267834482,3455780.0
1574267834550,3424698.0
1574267834565,3406291.0
1574267834678,3401957.0
1574267834679,3390659.0
1574267834713,3388385.0
1574267834764,3392402.0
1574267834810,3391217.0
1574267834855,3385120.0
1574267835178,3386699.0
1574267835178,3388722.0
1574267835178,3395494.0
1574267835178,3401803.0
1574267835179,3411281.0
1574267835180,3418187.0
1574267835250,3422752.0
1574267835251,3430150.0
1574267835338,3438789.0
1574267835354,3448460.0
1574267835388,3437498.0
1574267835436,3411994.0
1574267835485,3402987.0
1574267835535,3402871.0
1574267835586,3408276.0
1574267835634,3412465.0
1574267835684,3405318.0
1574267835728,3394482.0
1574267835849,3389155.0
1574267835849,3393056.0
1574267836012,3395051.0
1574267836014,3401667.0
1574267836017,3405472.0
1574267836052,3408044.0
1574267836178,3418042.0
1574267836178,3426383.0
1574267836178,3438106.0
1574267836221,3433000.0
1574267836269,3403005.0
1574267836315,3385841.0
1574267836364,3386508.0
1574267836411,3386920.0
1574267836461,3388153.0
1574267836509,3391313.0
1574267836558,3389637.0
1574267836607,3384600.0
1574267836655,3389464.0
1574267836704,3396689.0
1574267836751,3404066.0
1574267836795,3414131.0
1574267836852,3423051.0
1574267836895,3431373.0
1574267836943,3440514.0
1574267836990,3449683.0
1574267837039,3461656.0
1574267837087,3471567.0
1574267837138,3474293.0
1574267837184,3452350.0
1574267837232,3432171.0
1574267837281,3427472.0
1574267837330,3429869.0
1574267837381,3437045.0
1574267837698,3438366.0
1574267837698,3432094.0
1574267837698,3427029.0
1574267837698,3427858.0
1574267837698,3434426.0
1574267837700,3444096.0
1574267837747,3452389.0
1574267837783,3458169.0
1574267837849,3466105.0
1574267837868,3472182.0
1574267837917,3479984.0
1574267837965,3485118.0
1574267838013,3494280.0
1574267838065,3490234.0
1574267838110,3461445.0
1574267838163,3442460.0
1574267838203,3438145.0
1574267838252,3435264.0
1574267838301,3436834.0
1574267838347,3438799.0
1574267838403,3432596.0
1574267838717,3431383.0
1574267838717,3434290.0
1574267838717,3440784.0
1574267838717,3445089.0
1574267838717,3455481.0
1574267838717,3466721.0
1574267838768,3473176.0
1574267838845,3482471.0
1574267838845,3494684.0
1574267838902,3498642.0
1574267838932,3477751.0
1574267838982,3447170.0
1574267839028,3436690.0
1574267839078,3433319.0
1574267839125,3434504.0
1574267839174,3432722.0
1574267839222,3432143.0
1574267839271,3427356.0
1574267839321,3421750.0
1574267839367,3427933.0
1574267839418,3431527.0
1574267839465,3438848.0
1574267839513,3446716.0
1574267839562,3452448.0
1574267839613,3458198.0
1574267839661,3468186.0
1574267839711,3472182.0
1574267839760,3481516.0
1574267839809,3468350.0
1574267839859,3433925.0
1574267839907,3417502.0
1574267839954,3407890.0
1574267840002,3408314.0
1574267840051,3408497.0
1574267840100,3407485.0
1574267840148,3398731.0
1574267840196,3390890.0
1574267840246,3393818.0
1574267840294,3401041.0
1574267840342,3404452.0
1574267840386,3408727.0
1574267840434,3415344.0
1574267840484,3426836.0
1574267840533,3430237.0
1574267840582,3437133.0
1574267840630,3427009.0
1574267840683,3395840.0
1574267840727,3379697.0
1574267840776,3379350.0
1574267841108,3388413.0
1574267841108,3394781.0
1574267841108,3391004.0
1574267841109,3385467.0
1574267841110,3384196.0
1574267841111,3386526.0
1574267841178,3390648.0
1574267841179,3398875.0
1574267841257,3402400.0
1574267841273,3408843.0
1574267841314,3414209.0
1574267841358,3420883.0
1574267841409,3414690.0
1574267841459,3375179.0
1574267841502,3347122.0
1574267841556,3337866.0
1574267841607,3328282.0
1574267841648,3329495.0
1574267841699,3329369.0
1574267841949,3322002.0
1574267841951,3312822.0
1574267841953,3310925.0
1574267841953,3316473.0
1574267841955,3319854.0
1574267842002,3325246.0
1574267842140,3333347.0
1574267842140,3340216.0
1574267842140,3341025.0
1574267842205,3344646.0
1574267842230,3334089.0
1574267842284,3290552.0
1574267842414,3263305.0
1574267842414,3253191.0
1574267842644,3242701.0
1574267842645,3239157.0
1574267842645,3234986.0
1574267842646,3220384.0
1574267842646,3207371.0
1574267842719,3204798.0
1574267842721,3202411.0
1574267842805,3206668.0
1574267842821,3214153.0
1574267842864,3226038.0
1574267842909,3232174.0
1574267842959,3236343.0
1574267843006,3236412.0
1574267843055,3236104.0
1574267843105,3221077.0
1574267843152,3203132.0
1574267843204,3204983.0
1574267843248,3212716.0
1574267843299,3230864.0
1574267843346,3243780.0
1574267843395,3246535.0
1574267843443,3244995.0
1574267843489,3242211.0
1574267843538,3249135.0
1574267843587,3260279.0
1574267843638,3270018.0
1574267843685,3278898.0
1574267843734,3292432.0
1574267843783,3302621.0
1574267843831,3312052.0
1574267844085,3313708.0
1574267844085,3284465.0
1574267844085,3267533.0
1574267844085,3266946.0
1574267844085,3265231.0
1574267844125,3267551.0
1574267844244,3273504.0
1574267844245,3273986.0
1574267844277,3274786.0
1574267844315,3277271.0
1574267844364,3287722.0
1574267844417,3295561.0
1574267844465,3306002.0
1574267844514,3313651.0
1574267844562,3321193.0
1574267844611,3334552.0
1574267844659,3346659.0
1574267844705,3349394.0
1574267844755,3325123.0
1574267844801,3303556.0
1574267844848,3294888.0
1574267844903,3291526.0
1574267844944,3295004.0
1574267844999,3299000.0
1574267845046,3297412.0
1574267845096,3295234.0
1574267845142,3295177.0
1574267845192,3304106.0
1574267845242,3310675.0
1574267845286,3321250.0
1574267845334,3329822.0
1574267845389,3335919.0
1574267845435,3338587.0
1574267845485,3347545.0
1574267845532,3352630.0
1574267845582,3362994.0
1574267845627,3346824.0
1574267845679,3326307.0
1574267845727,3316221.0
1574267845771,3320382.0
1574267845820,3324245.0
1574267845872,3328830.0
1574267845923,3331354.0
1574267845965,3329842.0
1574267846018,3335044.0
1574267846066,3339560.0
1574267846115,3350974.0
1574267846163,3359961.0
1574267846208,3366184.0
1574267846261,3369902.0
1574267846308,3383405.0
1574267846357,3392036.0
1574267846406,3387509.0
1574267846540,3377019.0
1574267846540,3363159.0
1574267846758,3355944.0
1574267846758,3345330.0
1574267846758,3348142.0
1574267846758,3345753.0
1574267846758,3343672.0
1574267846816,3344684.0
1574267846889,3345137.0
1574267846900,3356541.0
1574267846940,3372019.0
1574267846988,3386372.0
1574267847036,3393865.0
1574267847086,3416897.0
1574267847133,3422945.0
1574267847183,3398440.0
1574267847233,3391274.0
1574267847275,3395252.0
1574267847324,3402997.0
1574267847376,3408804.0
1574267847425,3416338.0
1574267847472,3422000.0
1574267847524,3422713.0
1574267847573,3431131.0
1574267847618,3440138.0
1574267847668,3450368.0
1574267847715,3463438.0
1574267847765,3474688.0
1574267847807,3474224.0
1574267847862,3446302.0
1574267847911,3430564.0
1574267847958,3424524.0
1574267848007,3423697.0
1574267848054,3424292.0
1574267848105,3425082.0
1574267848151,3419901.0
1574267848201,3412744.0
1574267848249,3412561.0
1574267848297,3417829.0
1574267848345,3417945.0
1574267848393,3426586.0
1574267848444,3439483.0
1574267848494,3418081.0
1574267848541,3391900.0
1574267848588,3373214.0
1574267848636,3365113.0
1574267848682,3370729.0
1574267848729,3369526.0
1574267848782,3363862.0
1574267848832,3355838.0
1574267848883,3357062.0
1574267848928,3359528.0
1574267848975,3366068.0
1574267849029,3372416.0
1574267849072,3380660.0
1574267849122,3384571.0
1574267849170,3368803.0
1574267849220,3351745.0
1574267849267,3349182.0
1574267849314,3354808.0
1574267849364,3365162.0
1574267849594,3375150.0
1574267849594,3372271.0
1574267849594,3369969.0
1574267849594,3378897.0
1574267849641,3390409.0
1574267849771,3402650.0
1574267849771,3413369.0
1574267849771,3428463.0
1574267849815,3432027.0
1574267849952,3394318.0
1574267850020,3410856.0
1574267850048,3422250.0
1574267850094,3428762.0
1574267850141,3434686.0
1574267850189,3434926.0
1574267850239,3443537.0
1574267850282,3457871.0
1574267850340,3468312.0
1574267850379,3482749.0
1574267850426,3495964.0
1574267850475,3510200.0
1574267850522,3520961.0
1574267850572,3507417.0
1574267850623,3484271.0
1574267850673,3481315.0
1574267850719,3483221.0
1574267850767,3492796.0
1574267850816,3506724.0
1574267850865,3512590.0
1574267850914,3515749.0
1574267850962,3526170.0
1574267851012,3537054.0
1574267851319,3544096.0
1574267851319,3552581.0
1574267851319,3568898.0
1574267851319,3580312.0
1574267851324,3592419.0
1574267851324,3607415.0
1574267851420,3616971.0
1574267851421,3628511.0
1574267851506,3634271.0
1574267851506,3621497.0
1574267851565,3609545.0
1574267851593,3607531.0
1574267851641,3610296.0
1574267851689,3618580.0
1574267851739,3621595.0
1574267851786,3622769.0
1574267851834,3625612.0
1574267851882,3632412.0
1574267851934,3637315.0
1574267851980,3647341.0
1574267852028,3659054.0
1574267852080,3667693.0
1574267852126,3678799.0
1574267852174,3689721.0
1574267852223,3701867.0
1574267852273,3712550.0
1574267852321,3704892.0
1574267852368,3693102.0
1574267852418,3690453.0
1574267852465,3694346.0
1574267852516,3700289.0
1574267852563,3705421.0
1574267852614,3706721.0
1574267852660,3706790.0
1574267852708,3710575.0
1574267852757,3716142.0
1574267852805,3721931.0
1574267852856,3728018.0
1574267852907,3735367.0
1574267852955,3738441.0
1574267853004,3743650.0
1574267853051,3746358.0
1574267853101,3758850.0
1574267853148,3764908.0
1574267853195,3778086.0
1574267853242,3776977.0
1574267853294,3762163.0
1574267853340,3748929.0
1574267853391,3752945.0
1574267853439,3762279.0
1574267853488,3774734.0
1574267853535,3787284.0
1574267853586,3794846.0
1574267853634,3798235.0
1574267853683,3810043.0
1574267853731,3821854.0
1574267853774,3831870.0
1574267853822,3832641.0
1574267853878,3839152.0
1574267853920,3841145.0
1574267854047,3838709.0
1574267854048,3842966.0
1574267854293,3847109.0
1574267854293,3851741.0
1574267854293,3845489.0
1574267854295,3825523.0
1574267854295,3812752.0
1574267854350,3813936.0
1574267854369,3819782.0
1574267854444,3820407.0
1574267854466,3818857.0
1574267854502,3818097.0
1574267854555,3813501.0
1574267854605,3810651.0
1574267854651,3813406.0
1574267854910,3820793.0
1574267854910,3826216.0
1574267854910,3834268.0
1574267854910,3848947.0
1574267854910,3856595.0
1574267855058,3852503.0
1574267855058,3825822.0
1574267855058,3803081.0
1574267855095,3788121.0
1574267855138,3779204.0
1574267855182,3776111.0
1574267855231,3770109.0
1574267855280,3754642.0
1574267855327,3747051.0
1574267855377,3744008.0
1574267855424,3751174.0
1574267855471,3759187.0
1574267855522,3762521.0
1574267855825,3766499.0
1574267855826,3767115.0
1574267855830,3769860.0
1574267855830,3778537.0
1574267855830,3777334.0
1574267855832,3753553.0
1574267855882,3725110.0
1574267855979,3707089.0
1574267855980,3697544.0
1574267856011,3692265.0
1574267856062,3691524.0
1574267856108,3682950.0
1574267856157,3670178.0
1574267856202,3665999.0
1574267856254,3663002.0
1574267856301,3663475.0
1574267856351,3665131.0
1574267856399,3663589.0
1574267856444,3669774.0
1574267856493,3669071.0
1574267856545,3668540.0
1574267856792,3675322.0
1574267856793,3655836.0
1574267856793,3636601.0
1574267856795,3631900.0
1574267856795,3629070.0
1574267856840,3632690.0
1574267857088,3628558.0
1574267857088,3631390.0
1574267857088,3634251.0
1574267857141,3639403.0
1574267857204,3645116.0
1574267857223,3653120.0
1574267857268,3653871.0
1574267857318,3656173.0
1574267857365,3664274.0
1574267857414,3644200.0
1574267857462,3623925.0
1574267857511,3617877.0
1574267857563,3616316.0
1574267857794,3616075.0
1574267857794,3618773.0
1574267857794,3612531.0
1574267857794,3608641.0
1574267857838,3607791.0
1574267857880,3610989.0
1574267857992,3615333.0
1574267857993,3622038.0
1574267858011,3629299.0
1574267858052,3644133.0
1574267858098,3652571.0
1574267858143,3661954.0
1574267858192,3656443.0
1574267858244,3633548.0
1574267858288,3619697.0
1574267858338,3618531.0
1574267858384,3618657.0
1574267858434,3623078.0
1574267858484,3624927.0
1574267858531,3622337.0
1574267858583,3620555.0
1574267858627,3619968.0
1574267858677,3627489.0
1574267858725,3634974.0
1574267858778,3646801.0
1574267858822,3654863.0
1574267858870,3664784.0
1574267858923,3673646.0
1574267858967,3679146.0
1574267859016,3668455.0
1574267859064,3652311.0
1574267859113,3648207.0
1574267859163,3648554.0
1574267859209,3651443.0
1574267859259,3656135.0
1574267859306,3654381.0
1574267859356,3656047.0
1574267859403,3666037.0
1574267859453,3669380.0
1574267859502,3678490.0
1574267859550,3685879.0
1574267859600,3693141.0
1574267859646,3697639.0
1574267859696,3704777.0
1574267859748,3710998.0
1574267859796,3700924.0
1574267859843,3680648.0
1574267859893,3671180.0
1574267859942,3666566.0
1574267859991,3664784.0
1574267860039,3666769.0
1574267860082,3670621.0
1574267860136,3665257.0
1574267860187,3664755.0
1574267860232,3665149.0
1574267860283,3669831.0
1574267860325,3674628.0
1574267860378,3686446.0
1574267860424,3697544.0
1574267860476,3713176.0
1574267860520,3728566.0
1574267860568,3732238.0
1574267860619,3739914.0
1574267860665,3730513.0
1574267860715,3725958.0
1574267860765,3729462.0
1574267860811,3731514.0
1574267860861,3730080.0
1574267860908,3727382.0
1574267860962,3728422.0
1574267861010,3726738.0
1574267861058,3729107.0
1574267861109,3735956.0
1574267861155,3739654.0
1574267861204,3740279.0
1574267861251,3744577.0
1574267861302,3748217.0
1574267861343,3751645.0
1574267861400,3754979.0
1574267861446,3764571.0
1574267861496,3765621.0
1574267861543,3759611.0
1574267861591,3756491.0
1574267861641,3743217.0
1574267861933,3722942.0
1574267861933,3699277.0
1574267861934,3681024.0
1574267861935,3662791.0
1574267861937,3654412.0
1574267861937,3659727.0
1574267862005,3652658.0
1574267862085,3649103.0
1574267862086,3651963.0
1574267862122,3656472.0
1574267862170,3666045.0
1574267862217,3671710.0
1574267862267,3678260.0
1574267862316,3669359.0
1574267862365,3662569.0
1574267862416,3662077.0
1574267862466,3664776.0
1574267862514,3680099.0
1574267862559,3689230.0
1574267862605,3685252.0
1574267862655,3680725.0
1574267862711,3677787.0
1574267862753,3675129.0
1574267862804,3674993.0
1574267862853,3677681.0
1574267862902,3668677.0
1574267862949,3661915.0
1574267862999,3663888.0
1574267863049,3666807.0
1574267863096,3674465.0
1574267863145,3668752.0
1574267863188,3651695.0
1574267863237,3640415.0
1574267863286,3634106.0
1574267863334,3625207.0
1574267863383,3626603.0
1574267863431,3626392.0
1574267863481,3618647.0
1574267863527,3616942.0
1574267863576,3617145.0
1574267863627,3619303.0
1574267863674,3622867.0
1574267863722,3626930.0
1574267863771,3630976.0
1574267863820,3634742.0
1574267863869,3638932.0
1574267863921,3632075.0
1574267863972,3608842.0
1574267864017,3597708.0
1574267864067,3596580.0
1574267864115,3596570.0
1574267864163,3602263.0
1574267864209,3603476.0
1574267864261,3600509.0
1574267864308,3600934.0
1574267864357,3604825.0
1574267864604,3609025.0
1574267864604,3613417.0
1574267864604,3617473.0
1574267864604,3619842.0
1574267864605,3617751.0
1574267864655,3596050.0
1574267864961,3560315.0
1574267864961,3563966.0
1574267864961,3566953.0
1574267865022,3564737.0
1574267865039,3565653.0
1574267865117,3576218.0
1574267865136,3586139.0
1574267865183,3593209.0
1574267865230,3606020.0
1574267865274,3613041.0
1574267865322,3604228.0
1574267865376,3582336.0
1574267865424,3566153.0
1574267865469,3551800.0
1574267865523,3545165.0
1574267865569,3541890.0
1574267865617,3539724.0
1574267865663,3538066.0
1574267865711,3538519.0
1574267865761,3542536.0
1574267865811,3547611.0
1574267865858,3559208.0
1574267865906,3568908.0
1574267865954,3580554.0
1574267866003,3568128.0
1574267866052,3552321.0
1574267866101,3544567.0
1574267866151,3547101.0
1574267866202,3553536.0
1574267866248,3562311.0
1574267866299,3570517.0
1574267866346,3574745.0
1574267866393,3583384.0
1574267866443,3599240.0
1574267866495,3618224.0
1574267866541,3629984.0
1574267866590,3640888.0
1574267866638,3623318.0
1574267866686,3587815.0
1574267866729,3555789.0
1574267866785,3555750.0
1574267866827,3557869.0
1574267866880,3565277.0
1574267866929,3562695.0
1574267866978,3551878.0
1574267867027,3551705.0
1574267867072,3556203.0
1574267867123,3561018.0
1574267867171,3573733.0
1574267867221,3584424.0
1574267867265,3579550.0
1574267867314,3560238.0
1574267867362,3543625.0
1574267867414,3544953.0
1574267867461,3545512.0
1574267867508,3556559.0
1574267867559,3560951.0
1574267867606,3561539.0
1574267867654,3558814.0
1574267867707,3564438.0
1574267867756,3570777.0
1574267867804,3584367.0
1574267867852,3604825.0
1574267867900,3616577.0
1574267867949,3607552.0
1574267867996,3593006.0
1574267868046,3591552.0
1574267868097,3599335.0
1574267868143,3604853.0
1574267868190,3608342.0
1574267868241,3611056.0
1574267868282,3612714.0
1574267868337,3617068.0
1574267868385,3620882.0
1574267868436,3632373.0
1574267868485,3638903.0
1574267868527,3646533.0
1574267868576,3647053.0
1574267868624,3623665.0
1574267868671,3606328.0
1574267868989,3596724.0
1574267868989,3594558.0
1574267868989,3594404.0
1574267868989,3597996.0
1574267868990,3593797.0
1574267868990,3593449.0
1574267869045,3592661.0
1574267869148,3598720.0
1574267869148,3607879.0
1574267869170,3611105.0
1574267869209,3616875.0
1574267869261,3626392.0
1574267869306,3639076.0
1574267869354,3651319.0
1574267869403,3647187.0
1574267869451,3621325.0
1574267869501,3605489.0
1574267869548,3602080.0
1574267869595,3598758.0
1574267869646,3605260.0
1574267869694,3605615.0
1574267869738,3602322.0
1574267869787,3601550.0
1574267869837,3607291.0
1574267869882,3615410.0
1574267869933,3628251.0
1574267869982,3634387.0
1574267870030,3642217.0
1574267870079,3649759.0
1574267870127,3658321.0
1574267870176,3662685.0
1574267870228,3655192.0
1574267870541,3630321.0
1574267870541,3612050.0
1574267870541,3613312.0
1574267870541,3615902.0
1574267870541,3627710.0
1574267870541,3628867.0
1574267870632,3630360.0
1574267870632,3627721.0
1574267870724,3639923.0
1574267870760,3647091.0
1574267870810,3654672.0
1574267870860,3658725.0
1574267870907,3668994.0
1574267870952,3677787.0
1574267871001,3685089.0
1574267871048,3684819.0
1574267871098,3659824.0
1574267871145,3638479.0
1574267871410,3628145.0
1574267871410,3621672.0
1574267871410,3625447.0
1574267871410,3623570.0
1574267871410,3618580.0
1574267871450,3609998.0
1574267871591,3607021.0
1574267871591,3611798.0
1574267871591,3610219.0
1574267871652,3615941.0
1574267871683,3616432.0
1574267871731,3622375.0
1574267871775,3626487.0
1574267871823,3626873.0
1574267871877,3640724.0
1574267872195,3641851.0
1574267872195,3617318.0
1574267872195,3598583.0
1574267872195,3597350.0
1574267872195,3595040.0
1574267872196,3593161.0
1574267872251,3597687.0
1574267872270,3591417.0
1574267872342,3587777.0
1574267872361,3590897.0
1574267872406,3596127.0
1574267872458,3604902.0
1574267872503,3607956.0
1574267872551,3613244.0
1574267872602,3617269.0
1574267872652,3626315.0
1574267872703,3649556.0
1574267872953,3661297.0
1574267872953,3633470.0
1574267872953,3626189.0
1574267872953,3621749.0
1574267872953,3621536.0
1574267872997,3625293.0
1574267873308,3671450.0
1574267873308,3671151.0
1574267873308,3672019.0
1574267873360,3686418.0
1574267873439,3696233.0
1574267873439,3704208.0
1574267873478,3710065.0
1574267873527,3708253.0
1574267873575,3681572.0
1574267873621,3648564.0
1574267873667,3635445.0
1574267873720,3623964.0
1574267873765,3619803.0
1574267873814,3615209.0
1574267873863,3607080.0
1574267873911,3596253.0
1574267873963,3591361.0
1574267874007,3592303.0
1574267874244,3589067.0
1574267874244,3587980.0
1574267874244,3592226.0
1574267874244,3596109.0
1574267874277,3601666.0
1574267874411,3601367.0
1574267874411,3578435.0
1574267874415,3549431.0
1574267874453,3540975.0
1574267874492,3545213.0
1574267874540,3545780.0
1574267874595,3545656.0
1574267874643,3541274.0
1574267874691,3530284.0
1574267874740,3533886.0
1574267874787,3540012.0
1574267874833,3560980.0
1574267874883,3584530.0
1574267874931,3600713.0
1574267874983,3600020.0
1574267875027,3567829.0
1574267875077,3545368.0
1574267875393,3509189.0
1574267875394,3473552.0
1574267875396,3460490.0
1574267875397,3461589.0
1574267875398,3461298.0
1574267875399,3458121.0
1574267875477,3445908.0
1574267875477,3438039.0
1574267875554,3432114.0
1574267875572,3433106.0
1574267875614,3445243.0
1574267875661,3453092.0
1574267875711,3466116.0
1574267875760,3479619.0
1574267875804,3488453.0
1574267875857,3483558.0
1574267875908,3453305.0
1574267875952,3436420.0
1574267876002,3431777.0
1574267876049,3432578.0
1574267876095,3437112.0
1574267876143,3433597.0
1574267876192,3428309.0
1574267876447,3425265.0
1574267876447,3427173.0
1574267876447,3432317.0
1574267876449,3437720.0
1574267876454,3440446.0
1574267876501,3448200.0
1574267876641,3456107.0
1574267876641,3466731.0
1574267876641,3471297.0
1574267876705,3459065.0
1574267876729,3429321.0
1574267876778,3416578.0
1574267876824,3410923.0
1574267876875,3409970.0
1574267876925,3413804.0
1574267876972,3414613.0
1574267877020,3406098.0
1574267877063,3405722.0
1574267877118,3410586.0
1574267877167,3415769.0
1574267877214,3423272.0
1574267877263,3429225.0
1574267877307,3437740.0
1574267877357,3446899.0
1574267877402,3455991.0
1574267877452,3465652.0
1574267877502,3474515.0
1574267877550,3462109.0
1574267877599,3445174.0
1574267877646,3439821.0
1574267877696,3444569.0
1574267877742,3452495.0
1574267877796,3459364.0
1574267877844,3457475.0
1574267877893,3457696.0
1574267877944,3460173.0
1574267877991,3468572.0
1574267878039,3478916.0
1574267878086,3487374.0
1574267878132,3496234.0
1574267878185,3508179.0
1574267878233,3516808.0
1574267878282,3529600.0
1574267878326,3538480.0
1574267878375,3533933.0
1574267878427,3515904.0
1574267878475,3512677.0
1574267878523,3510597.0
1574267878568,3514467.0
1574267878619,3517338.0
1574267878666,3521653.0
1574267878715,3526026.0
1574267878763,3529136.0
1574267878811,3536977.0
1574267878861,3545541.0
1574267878907,3560210.0
1574267878955,3573030.0
1574267879003,3589404.0
1574267879061,3603053.0
1574267879106,3619283.0
1574267879155,3638875.0
1574267879204,3652089.0
1574267879250,3664717.0
1574267879300,3663427.0
1574267879344,3646386.0
1574267879397,3639617.0
1574267879446,3638095.0
1574267879494,3635716.0
1574267879543,3639298.0
1574267879587,3641476.0
1574267879641,3640888.0
1574267879688,3638296.0
1574267879736,3640232.0
1574267879782,3647658.0
1574267879829,3650885.0
1574267879879,3656925.0
1574267879928,3667665.0
1574267879976,3673530.0
1574267880026,3680946.0
1574267880070,3687430.0
1574267880120,3698486.0
1574267880169,3703958.0
1574267880219,3706674.0
1574267880269,3696908.0
1574267880314,3678268.0
1574267880363,3673396.0
1574267880411,3677594.0
1574267880460,3682844.0
1574267880509,3688498.0
1574267880558,3685888.0
1574267880605,3678665.0
1574267880937,3682604.0
1574267880941,3687005.0
1574267880942,3695278.0
1574267880947,3701308.0
1574267880948,3707792.0
1574267880950,3711953.0
1574267881002,3719572.0
1574267881002,3723347.0
1574267881082,3723318.0
1574267881102,3700538.0
1574267881144,3671903.0
1574267881189,3659948.0
1574267881242,3647735.0
1574267881290,3640309.0
1574267881496,3637392.0
1574267881496,3631843.0
1574267881498,3621469.0
1574267881499,3615353.0
1574267881685,3616067.0
1574267881685,3618637.0
1574267881686,3623482.0
1574267881691,3628048.0
1574267881781,3640116.0
1574267881782,3657937.0
1574267881842,3663947.0
1574267882117,3669552.0
1574267882117,3666017.0
1574267882117,3645598.0
1574267882119,3630080.0
1574267882120,3628086.0
1574267882197,3620660.0
1574267882197,3618840.0
1574267882224,3613505.0
1574267882295,3604776.0
1574267882312,3597051.0
1574267882358,3590993.0
1574267882408,3595020.0
1574267882451,3594520.0
1574267882500,3598604.0
1574267882551,3601609.0
1574267882595,3601810.0
1574267882644,3608968.0
1574267882693,3611808.0
1574267882742,3618608.0
1574267882998,3610392.0
1574267882998,3579300.0
1574267882998,3563176.0
1574267882998,3558379.0
1574267882998,3552081.0
1574267883052,3557879.0
1574267883188,3551618.0
1574267883188,3545723.0
1574267883188,3543094.0
1574267883241,3548507.0
1574267883275,3554190.0
1574267883324,3561289.0
1574267883382,3566500.0
1574267883658,3571614.0
1574267883659,3569891.0
1574267883660,3575612.0
1574267883667,3584146.0
1574267883667,3569408.0
1574267883720,3535937.0
1574267883721,3517366.0
1574267883811,3505481.0
1574267883823,3499952.0
1574267883858,3499566.0
1574267883909,3494712.0
1574267883959,3487364.0
1574267884007,3481864.0
1574267884056,3478241.0
1574267884100,3479109.0
1574267884153,3483568.0
1574267884199,3486140.0
1574267884245,3486671.0
1574267884294,3490600.0
1574267884343,3496677.0
1574267884393,3514650.0
1574267884441,3518012.0
1574267884492,3486612.0
1574267884543,3470344.0
1574267884589,3469842.0
1574267884638,3473166.0
1574267884683,3477491.0
1574267884734,3477896.0
1574267884785,3471739.0
1574267884827,3473243.0
1574267884880,3476343.0
1574267884930,3483962.0
1574267884973,3491120.0
1574267885020,3498026.0
1574267885072,3500655.0
1574267885124,3505241.0
1574267885171,3513370.0
1574267885221,3506060.0
1574267885268,3479889.0
1574267885314,3464949.0
1574267885361,3460809.0
1574267885654,3463533.0
1574267885654,3466443.0
1574267885654,3466443.0
1574267885654,3461955.0
1574267885656,3460096.0
1574267885658,3461434.0
1574267885758,3468734.0
1574267885758,3474263.0
1574267885881,3488520.0
1574267885881,3500300.0
1574267885907,3511568.0
1574267886225,3522452.0
1574267886225,3528781.0
1574267886225,3513120.0
1574267886225,3486447.0
1574267886225,3478416.0
1574267886225,3478462.0
1574267886271,3481305.0
1574267886290,3487181.0
1574267886361,3488355.0
1574267886385,3481498.0
1574267886432,3485736.0
1574267886483,3489915.0
1574267886530,3497823.0
1574267886574,3506714.0
1574267886626,3513110.0
1574267886675,3522009.0
1574267886720,3529205.0
1574267886768,3540378.0
1574267886818,3545705.0
1574267886864,3532027.0
1574267886915,3513061.0
1574267887235,3505838.0
1574267887235,3501734.0
1574267887235,3503920.0
1574267887235,3506771.0
1574267887235,3505578.0
1574267887235,3507262.0
1574267887287,3515026.0
1574267887328,3528647.0
1574267887408,3540512.0
1574267887408,3556358.0
1574267887451,3564101.0
1574267887500,3580369.0
1574267887548,3592236.0
1574267887595,3606280.0
1574267887646,3613446.0
1574267887694,3598199.0
1574267887741,3580101.0
1574267887791,3583857.0
1574267887836,3585032.0
1574267887882,3591350.0
1574267887937,3598573.0
1574267887982,3596946.0
1574267888030,3595040.0
1574267888080,3596330.0
1574267888127,3600386.0
1574267888179,3606723.0
1574267888224,3617848.0
1574267888273,3624378.0
1574267888322,3637093.0
1574267888370,3644162.0
1574267888424,3655537.0
1574267888471,3665584.0
1574267888517,3673250.0
1574267888567,3657994.0
1574267888616,3632940.0
1574267888665,3622308.0
1574267888713,3613976.0
1574267888759,3610778.0
1574267888810,3611674.0
1574267888857,3605211.0
1574267888907,3601338.0
1574267888956,3595463.0
1574267889006,3594548.0
1574267889053,3598401.0
1574267889102,3601233.0
1574267889150,3603053.0
1574267889199,3607714.0
1574267889242,3609285.0
1574267889291,3614149.0
1574267889341,3618927.0
1574267889388,3623088.0
1574267889441,3626806.0
1574267889485,3603401.0
1574267889534,3583500.0
1574267889582,3577142.0
1574267889635,3580533.0
1574267889685,3581169.0
1574267889732,3577173.0
1574267889781,3574840.0
1574267889825,3566297.0
1574267889878,3569052.0
1574267889927,3571779.0
1574267889975,3578481.0
1574267890020,3583644.0
1574267890071,3586881.0
1574267890124,3592313.0
1574267890171,3599508.0
1574267890217,3606107.0
1574267890267,3606009.0
1574267890309,3586129.0
1574267890361,3561713.0
1574267890411,3551532.0
1574267890460,3547786.0
1574267890504,3545213.0
1574267890557,3544588.0
1574267890606,3538220.0
1574267890655,3532720.0
1574267890700,3531294.0
1574267890751,3533655.0
1574267890802,3536794.0
1574267890844,3542227.0
1574267890897,3546032.0
1574267890947,3552861.0
1574267890994,3557398.0
1574267891044,3565383.0
1574267891087,3571017.0
1574267891137,3577402.0
1574267891184,3564930.0
1574267891233,3538797.0
1574267891282,3521538.0
1574267891331,3513841.0
1574267891382,3510942.0
1574267891427,3513293.0
1574267891480,3510113.0
1574267891527,3503853.0
1574267891577,3500107.0
1574267891622,3500261.0
1574267891675,3502592.0
1574267891725,3509892.0
1574267891771,3509652.0
1574267891819,3515286.0
1574267891868,3521566.0
1574267891916,3527086.0
1574267891961,3533289.0
1574267892009,3539250.0
1574267892063,3548391.0
1574267892107,3547024.0
1574267892157,3519439.0
1574267892204,3505655.0
1574267892252,3502167.0
1574267892301,3504451.0
1574267892349,3507321.0
1574267892401,3509459.0
1574267892447,3506387.0
1574267892496,3500346.0
1574267892544,3507986.0
1574267892593,3510692.0
1574267892643,3521682.0
1574267892689,3526950.0
1574267892741,3535725.0
1574267892790,3545656.0
1574267892840,3551463.0
1574267892882,3560933.0
1574267892937,3570275.0
1574267892988,3555395.0
1574267893032,3535995.0
1574267893082,3527982.0
1574267893125,3527797.0
1574267893175,3532854.0
1574267893228,3541264.0
1574267893272,3543499.0
1574267893322,3545039.0
1574267893373,3541871.0
1574267893422,3549287.0
1574267893472,3559450.0
1574267893515,3565411.0
1574267893564,3568985.0
1574267893611,3583106.0
1574267893661,3593238.0
1574267893708,3599951.0
1574267893758,3613667.0
1574267893805,3625977.0
1574267893855,3638731.0
1574267893901,3626951.0
1574267893955,3616731.0
1574267894004,3616046.0
1574267894051,3622885.0
1574267894101,3625110.0
1574267894149,3632528.0
1574267894198,3638363.0
1574267894245,3635850.0
1574267894294,3635128.0
1574267894344,3642496.0
1574267894391,3646502.0
1574267894439,3653640.0
1574267894488,3660980.0
1574267894538,3669138.0
1574267894587,3677084.0
1574267894634,3685040.0
1574267894684,3692332.0
1574267894727,3702629.0
1574267894776,3698208.0
1574267894826,3682054.0
1574267894873,3673945.0
1574267894924,3671517.0
1574267894970,3676092.0
1574267895019,3681852.0
1574267895067,3683086.0
1574267895117,3677893.0
1574267895164,3677372.0
1574267895213,3678250.0
1574267895259,3679849.0
1574267895310,3682141.0
1574267895358,3693826.0
1574267895406,3710748.0
1574267895459,3732161.0
1574267895505,3742581.0
1574267895556,3754160.0
1574267895604,3750672.0
1574267895653,3723357.0
1574267895702,3701154.0
1574267895744,3692090.0
1574267895795,3684953.0
1574267895844,3681062.0
1574267895891,3667559.0
1574267895941,3646252.0
1574267895988,3627471.0
1574267896112,3617857.0
1574267896112,3611105.0
1574267896343,3607773.0
1574267896410,3607253.0
1574267896432,3596724.0
1574267896478,3560460.0
1574267896521,3530485.0
1574267896574,3517693.0
1574267896624,3508746.0
1574267896851,3503333.0
1574267896852,3496726.0
1574267896852,3486035.0
1574267896856,3473243.0
1574267896901,3466327.0
1574267896918,3467800.0
1574267897058,3473223.0
1574267897058,3475334.0
1574267897060,3479098.0
1574267897126,3488288.0
1574267897149,3493432.0
1574267897199,3500511.0
1574267897247,3504335.0
1574267897296,3492354.0
1574267897345,3459267.0
1574267897392,3440475.0
1574267897442,3434975.0
1574267897489,3428973.0
1574267897538,3427000.0
1574267897586,3421750.0
1574267897662,3406203.0
1574267897907,3391882.0
1574267897909,3384474.0
1574267897911,3391256.0
1574267897911,3410442.0
1574267897913,3438606.0
1574267898012,3457956.0
1574267898014,3478050.0
1574267898032,3490204.0
1574267898106,3506137.0
1574267898121,3516027.0
1574267898169,3506925.0
1574267898218,3477085.0
1574267898269,3456782.0
1574267898314,3455347.0
1574267898362,3454797.0
1574267898411,3457619.0
1574267898461,3460106.0
1574267898510,3455193.0
1574267898559,3446804.0
1574267898608,3449404.0
1574267898656,3456318.0
1574267898704,3460981.0
1574267898752,3464257.0
1574267898801,3476325.0
1574267898849,3480651.0
1574267898898,3486545.0
1574267898950,3491947.0
1574267898995,3504373.0
1574267899043,3513187.0
