"1572980137213","2579354.0"
"1572980137293","2574031.0"
"1572980137299","2565869.0"
"1572980137352","2562572.0"
"1572980137395","2561501.0"
"1572980137447","2563673.0"
"1572980137491","2571024.0"
"1572980137546","2572233.0"
"1572980137586","2581205.0"
"1572980137638","2586268.0"
"1572980137688","2595984.0"
"1572980137733","2609422.0"
"1572980137783","2623618.0"
"1572980137830","2640095.0"
"1572980137880","2680311.0"
"1572980137926","2737489.0"
"1572980137974","2749781.0"
"1572980138023","2756955.0"
"1572980138069","2767991.0"
"1572980138119","2771472.0"
"1572980138167","2778341.0"
"1572980138218","2785852.0"
"1572980138268","2798848.0"
"1572980138315","2814872.0"
"1572980138363","2836916.0"
"1572980138410","2859528.0"
"1572980138460","2882228.0"
"1572980138507","2900173.0"
"1572980138556","2914147.0"
"1572980138605","2927640.0"
"1572980138652","2936781.0"
"1572980138703","2945576.0"
"1572980138752","2944178.0"
"1572980138797","2917497.0"
"1572980138850","2902751.0"
"1572980138896","2896280.0"
"1572980138948","2895447.0"
"1572980138992","2892791.0"
"1572980139045","2887875.0"
"1572980139088","2875904.0"
"1572980139140","2875566.0"
"1572980139187","2870977.0"
"1572980139235","2869441.0"
"1572980139285","2872775.0"
"1572980139332","2879124.0"
"1572980139380","2905106.0"
"1572980139429","2905222.0"
"1572980139477","2903936.0"
"1572980139527","2896388.0"
"1572980139574","2894734.0"
"1572980139624","2906284.0"
"1572980139671","2915248.0"
"1572980139722","2921514.0"
"1572980139770","2931549.0"
"1572980139815","2934296.0"
"1572980139867","2952133.0"
"1572980139914","2965770.0"
"1572980139962","2970307.0"
"1572980140011","2978803.0"
"1572980140059","2998875.0"
"1572980140115","3023175.0"
"1572980140162","3048234.0"
"1572980140210","3058659.0"
"1572980140255","3073145.0"
"1572980140307","3082057.0"
"1572980140358","3082859.0"
"1572980140403","3087618.0"
"1572980140446","3110495.0"
"1572980140498","3119788.0"
"1572980140551","3109471.0"
"1572980140593","3095840.0"
"1572980140651","3087006.0"
"1572980140697","3079281.0"
"1572980140739","3076778.0"
"1572980140788","3081299.0"
"1572980140834","3076526.0"
"1572980140885","3061741.0"
"1572980140930","3025775.0"
"1572980140985","2976249.0"
"1572980141029","2961838.0"
"1572980141080","2951574.0"
"1572980141130","2938449.0"
"1572980141172","2934946.0"
"1572980141228","2941783.0"
"1572980141276","2956355.0"
"1572980141323","2965457.0"
"1572980141373","2965916.0"
"1572980141418","2959514.0"
"1572980141469","2971530.0"
"1572980141514","2958994.0"
"1572980141568","2930669.0"
"1572980141610","2904541.0"
"1572980141658","2895508.0"
"1572980141707","2890932.0"
"1572980141761","2913214.0"
"1572980141807","2939091.0"
"1572980141853","2977198.0"
"1572980141901","3006929.0"
"1572980141949","3037082.0"
"1572980141997","3054902.0"
"1572980142050","3067684.0"
"1572980142094","3071250.0"
"1572980142147","3071173.0"
"1572980142194","3086118.0"
"1572980142245","3115008.0"
"1572980142292","3137251.0"
"1572980142339","3144740.0"
"1572980142389","3144328.0"
"1572980142435","3158637.0"
"1572980142486","3209504.0"
"1572980142534","3265210.0"
"1572980142581","3316465.0"
"1572980142626","3358069.0"
"1572980142673","3383838.0"
"1572980142727","3388757.0"
"1572980142775","3392451.0"
"1572980142825","3404903.0"
"1572980142874","3395425.0"
"1572980142917","3403656.0"
"1572980142965","3414517.0"
"1572980143018","3423597.0"
"1572980143062","3444784.0"
"1572980143115","3461221.0"
"1572980143162","3477475.0"
"1572980143211","3498051.0"
"1572980143256","3504156.0"
"1572980143310","3516003.0"
"1572980143352","3524356.0"
"1572980143406","3515834.0"
"1572980143455","3513264.0"
"1572980143496","3518275.0"
"1572980143550","3511568.0"
"1572980143596","3498441.0"
"1572980143647","3504040.0"
"1572980143695","3502541.0"
"1572980143742","3513112.0"
"1572980143786","3547587.0"
"1572980143835","3569867.0"
"1572980143890","3602253.0"
"1572980143936","3631778.0"
"1572980143985","3676409.0"
"1572980144033","3709322.0"
"1572980144076","3727886.0"
"1572980144131","3741464.0"
"1572980144179","3733906.0"
"1572980144227","3703594.0"
"1572980144276","3666925.0"
"1572980144325","3638072.0"
"1572980144373","3620740.0"
"1572980144415","3605457.0"
"1572980144468","3598108.0"
"1572980144518","3582014.0"
"1572980144567","3533886.0"
"1572980144610","3492666.0"
"1572980144661","3460349.0"
"1572980144706","3447554.0"
"1572980144772","3431850.0"
"1572980144811","3403901.0"
"1572980144850","3380801.0"
"1572980144900","3365059.0"
"1572980144947","3349762.0"
"1572980144996","3340070.0"
"1572980145044","3329438.0"
"1572980145094","3326776.0"
"1572980145144","3322378.0"
"1572980145191","3315632.0"
"1572980145240","3316825.0"
"1572980145289","3306140.0"
"1572980145337","3306071.0"
"1572980145386","3303348.0"
"1572980145434","3301138.0"
"1572980145483","3303066.0"
"1572980145614","3298551.0"
"1572980145616","3290926.0"
"1572980145648","3250700.0"
"1572980145742","3200991.0"
"1572980145742","3173546.0"
"1572980145773","3152603.0"
"1572980145821","3136593.0"
"1572980145870","3122383.0"
"1572980145919","3099213.0"
"1572980146019","3080344.0"
"1572980146020","3068350.0"
"1572980146179","3060167.0"
"1572980146179","3051278.0"
"1572980146182","3043537.0"
"1572980146258","3037547.0"
"1572980146271","3038435.0"
"1572980146309","3041968.0"
"1572980146355","3044738.0"
"1572980146407","3048785.0"
"1572980146454","3053878.0"
"1572980146503","3065061.0"
"1572980146551","3067914.0"
"1572980146595","3087579.0"
"1572980146647","3110542.0"
"1572980146695","3086677.0"
"1572980146744","3044815.0"
"1572980146792","3019412.0"
"1572980146842","3007900.0"
"1572980146890","3005919.0"
"1572980146933","3008619.0"
"1572980146988","2999296.0"
"1572980147034","2990216.0"
"1572980147081","2989253.0"
"1572980147131","2975063.0"
"1572980147176","2993544.0"
"1572980147229","3012841.0"
"1572980147276","3026779.0"
"1572980147325","3042986.0"
"1572980147373","3069482.0"
"1572980147423","3088979.0"
"1572980147466","3106419.0"
"1572980147519","3118526.0"
"1572980147568","3129488.0"
"1572980147615","3133236.0"
"1572980147661","3141589.0"
"1572980147713","3180353.0"
"1572980147762","3207753.0"
"1572980147806","3234645.0"
"1572980147857","3261661.0"
"1572980147906","3296648.0"
"1572980147954","3319547.0"
"1572980148002","3322211.0"
"1572980148051","3305742.0"
"1572980148096","3288157.0"
"1572980148150","3282253.0"
"1572980148196","3271980.0"
"1572980148241","3275345.0"
"1572980148293","3279644.0"
"1572980148342","3285274.0"
"1572980148391","3274465.0"
"1572980148439","3277096.0"
"1572980148486","3278466.0"
"1572980148536","3282765.0"
"1572980148584","3279270.0"
"1572980148626","3276485.0"
"1572980148681","3257461.0"
"1572980148731","3243794.0"
"1572980148773","3235840.0"
"1572980148823","3230102.0"
"1572980148874","3221948.0"
"1572980148919","3215461.0"
"1572980148972","3208578.0"
"1572980149100","3204112.0"
"1572980149103","3201946.0"
"1572980149126","3202466.0"
"1572980149225","3204823.0"
"1572980149225","3204876.0"
"1572980149263","3207224.0"
"1572980149311","3207980.0"
"1572980149359","3214368.0"
"1572980149406","3215920.0"
"1572980149455","3218866.0"
"1572980149503","3220228.0"
"1572980149553","3224320.0"
"1572980149598","3222712.0"
"1572980149645","3220012.0"
"1572980149698","3220028.0"
"1572980149745","3195934.0"
"1572980149795","3161835.0"
"1572980149838","3139110.0"
"1572980149885","3116316.0"
"1572980149936","3096177.0"
"1572980149984","3075907.0"
"1572980150030","3060610.0"
"1572980150187","3046558.0"
"1572980150187","3034274.0"
"1572980150187","3023880.0"
"1572980150303","3031206.0"
"1572980150303","3042497.0"
"1572980150350","3043169.0"
"1572980150371","3039987.0"
"1572980150421","3037143.0"
"1572980150468","3038114.0"
"1572980150518","3037204.0"
"1572980150566","3040707.0"
"1572980150614","3044953.0"
"1572980150667","3049266.0"
"1572980150710","3053051.0"
"1572980150759","3056067.0"
"1572980150808","3058919.0"
"1572980150856","3049856.0"
"1572980150907","3013225.0"
"1572980150952","2990002.0"
"1572980151002","2979301.0"
"1572980151049","2969925.0"
"1572980151096","2958305.0"
"1572980151147","2941080.0"
"1572980151195","2937807.0"
"1572980151248","2942632.0"
"1572980151291","2943260.0"
"1572980151340","2946909.0"
"1572980151388","2944705.0"
"1572980151437","2939954.0"
"1572980151488","2917727.0"
"1572980151533","2906270.0"
"1572980151583","2903669.0"
"1572980151629","2900150.0"
"1572980151678","2897688.0"
"1572980151726","2885694.0"
"1572980151776","2875467.0"
"1572980151825","2837185.0"
"1572980151872","2791582.0"
"1572980151920","2760626.0"
"1572980151969","2735575.0"
"1572980152018","2714365.0"
"1572980152065","2696811.0"
"1572980152115","2678523.0"
"1572980152166","2663111.0"
"1572980152211","2652249.0"
"1572980152262","2645556.0"
"1572980152309","2636659.0"
"1572980152357","2635566.0"
"1572980152406","2629225.0"
"1572980152453","2626594.0"
"1572980152503","2625507.0"
"1572980152550","2626854.0"
"1572980152600","2627978.0"
"1572980152648","2643177.0"
"1572980152696","2664901.0"
"1572980152747","2678599.0"
"1572980152791","2696565.0"
"1572980152843","2707374.0"
"1572980152889","2718244.0"
"1572980152938","2720944.0"
"1572980152988","2688727.0"
"1572980153035","2660295.0"
"1572980153084","2648783.0"
"1572980153132","2649526.0"
"1572980153180","2663407.0"
"1572980153229","2696405.0"
"1572980153277","2726542.0"
"1572980153327","2751798.0"
"1572980153373","2773063.0"
"1572980153423","2790747.0"
"1572980153470","2808807.0"
"1572980153517","2823216.0"
"1572980153566","2824907.0"
"1572980153615","2836695.0"
"1572980153666","2838056.0"
"1572980153712","2847427.0"
"1572980153761","2858051.0"
"1572980153809","2867657.0"
"1572980153858","2877868.0"
"1572980153906","2888547.0"
"1572980153953","2897442.0"
"1572980154001","2902912.0"
"1572980154051","2896188.0"
"1572980154100","2874703.0"
"1572980154147","2871031.0"
"1572980154195","2862746.0"
"1572980154246","2862579.0"
"1572980154291","2867291.0"
"1572980154341","2858012.0"
"1572980154390","2867535.0"
"1572980154438","2864093.0"
"1572980154488","2865875.0"
"1572980154535","2866755.0"
"1572980154584","2863526.0"
"1572980154631","2864109.0"
"1572980154681","2854593.0"
"1572980154730","2847327.0"
"1572980154778","2845031.0"
"1572980154827","2842524.0"
"1572980154874","2842040.0"
"1572980154924","2846760.0"
"1572980154971","2848107.0"
"1572980155019","2859849.0"
"1572980155069","2860084.0"
"1572980155116","2849507.0"
"1572980155163","2821152.0"
"1572980155211","2807552.0"
"1572980155260","2793142.0"
"1572980155309","2783404.0"
"1572980155358","2775403.0"
"1572980155408","2773514.0"
"1572980155455","2767020.0"
"1572980155504","2767266.0"
"1572980155551","2769560.0"
"1572980155600","2773284.0"
"1572980155650","2777691.0"
"1572980155785","2782342.0"
"1572980155787","2788331.0"
"1572980155811","2794786.0"
"1572980155907","2800654.0"
"1572980155908","2808187.0"
"1572980155939","2816518.0"
"1572980155986","2822131.0"
"1572980156089","2830262.0"
"1572980156091","2837107.0"
"1572980156257","2844466.0"
"1572980156257","2849192.0"
"1572980156263","2857193.0"
"1572980156281","2834789.0"
"1572980156350","2813181.0"
"1572980156374","2802344.0"
"1572980156424","2796753.0"
"1572980156470","2791328.0"
"1572980156520","2786533.0"
"1572980156569","2778004.0"
"1572980156615","2776994.0"
"1572980156665","2775029.0"
"1572980156714","2779694.0"
"1572980156767","2782411.0"
"1572980156812","2785217.0"
"1572980156856","2786602.0"
"1572980156905","2790863.0"
"1572980156953","2792675.0"
"1572980157002","2796078.0"
"1572980157050","2797860.0"
"1572980157100","2804585.0"
"1572980157149","2809228.0"
"1572980157195","2817625.0"
"1572980157245","2822950.0"
"1572980157295","2815522.0"
"1572980157340","2787175.0"
"1572980157392","2770722.0"
"1572980157439","2761031.0"
"1572980157486","2751829.0"
"1572980157536","2751477.0"
"1572980157584","2753383.0"
"1572980157634","2751654.0"
"1572980157682","2750982.0"
"1572980157730","2752442.0"
"1572980157777","2755815.0"
"1572980157826","2759027.0"
"1572980157976","2764995.0"
"1572980157978","2769217.0"
"1572980157979","2773063.0"
"1572980158084","2776712.0"
"1572980158088","2784583.0"
"1572980158115","2792338.0"
"1572980158164","2798557.0"
"1572980158212","2805349.0"
"1572980158261","2815934.0"
"1572980158314","2822629.0"
"1572980158358","2831754.0"
"1572980158406","2838477.0"
"1572980158454","2818858.0"
"1572980158506","2788071.0"
"1572980158555","2773560.0"
"1572980158602","2762231.0"
"1572980158648","2752993.0"
"1572980158696","2744342.0"
"1572980158747","2736402.0"
"1572980158793","2729847.0"
"1572980158845","2724309.0"
"1572980158894","2724707.0"
"1572980158941","2727667.0"
"1572980158988","2730083.0"
"1572980159036","2735370.0"
"1572980159086","2737204.0"
"1572980159136","2739736.0"
"1572980159183","2742903.0"
"1572980159228","2747333.0"
"1572980159280","2751997.0"
"1572980159327","2756197.0"
"1572980159376","2761567.0"
"1572980159426","2760275.0"
"1572980159475","2736471.0"
"1572980159522","2717403.0"
"1572980159568","2704721.0"
"1572980159619","2685429.0"
"1572980159667","2674584.0"
"1572980159715","2661993.0"
"1572980159765","2656640.0"
"1572980159811","2663017.0"
"1572980160028","2667355.0"
"1572980160034","2681199.0"
"1572980160036","2692183.0"
"1572980160037","2702870.0"
"1572980160067","2711062.0"
"1572980160134","2721334.0"
"1572980160148","2735140.0"
"1572980160199","2745382.0"
"1572980160245","2756579.0"
"1572980160294","2765261.0"
"1572980160342","2776291.0"
"1572980160390","2779335.0"
"1572980160439","2756136.0"
"1572980160488","2734169.0"
"1572980160538","2724890.0"
"1572980160587","2719744.0"
"1572980160636","2713409.0"
"1572980160683","2710357.0"
"1572980160728","2708406.0"
"1572980160780","2707067.0"
"1572980160828","2709562.0"
"1572980160876","2715934.0"
"1572980160925","2723307.0"
"1572980160973","2729693.0"
"1572980161021","2739829.0"
"1572980161070","2751953.0"
"1572980161119","2768077.0"
"1572980161167","2788796.0"
"1572980161218","2806115.0"
"1572980161263","2824173.0"
"1572980161311","2844115.0"
"1572980161361","2865401.0"
"1572980161408","2861370.0"
"1572980161456","2836947.0"
"1572980161506","2824326.0"
"1572980161554","2820134.0"
"1572980161602","2817879.0"
"1572980161650","2812716.0"
"1572980161700","2812003.0"
"1572980161748","2806282.0"
"1572980161798","2803277.0"
"1572980161845","2805977.0"
"1572980161892","2811867.0"
"1572980161943","2816739.0"
"1572980161990","2822491.0"
"1572980162040","2826530.0"
"1572980162086","2832014.0"
"1572980162135","2837780.0"
"1572980162181","2841307.0"
"1572980162231","2822024.0"
"1572980162282","2796202.0"
"1572980162329","2787061.0"
"1572980162378","2779672.0"
"1572980162505","2773804.0"
"1572980162510","2769712.0"
"1572980162598","2766860.0"
"1572980162598","2761354.0"
"1572980162637","2761116.0"
"1572980162690","2764749.0"
"1572980162716","2770462.0"
"1572980162765","2774349.0"
"1572980162812","2776764.0"
"1572980162863","2777874.0"
"1572980162909","2782815.0"
"1572980162959","2790412.0"
"1572980163005","2795666.0"
"1572980163054","2780430.0"
"1572980163103","2762859.0"
"1572980163152","2781163.0"
"1572980163201","2799437.0"
"1572980163248","2806641.0"
"1572980163297","2820463.0"
"1572980163344","2822804.0"
"1572980163393","2826821.0"
"1572980163443","2827272.0"
"1572980163489","2826392.0"
"1572980163541","2826544.0"
"1572980163587","2826790.0"
"1572980163636","2829360.0"
"1572980163685","2829496.0"
"1572980163732","2831983.0"
"1572980163782","2839738.0"
"1572980163829","2844121.0"
"1572980163878","2854020.0"
"1572980163924","2860369.0"
"1572980163971","2868796.0"
"1572980164025","2876783.0"
"1572980164071","2878313.0"
"1572980164123","2883376.0"
"1572980164168","2891377.0"
"1572980164216","2847817.0"
"1572980164365","2755104.0"
"1572980164367","2701767.0"
"1572980164367","2674598.0"
"1572980164486","2661067.0"
"1572980164487","2663003.0"
"1572980164515","2685941.0"
"1572980164554","2693347.0"
"1572980164605","2711328.0"
"1572980164651","2721050.0"
"1572980164705","2727667.0"
"1572980164749","2728202.0"
"1572980164796","2731798.0"
"1572980164847","2731621.0"
"1572980164895","2726818.0"
"1572980164945","2731010.0"
"1572980164989","2728976.0"
"1572980165042","2725219.0"
"1572980165088","2728202.0"
"1572980165137","2732288.0"
"1572980165184","2741451.0"
"1572980165232","2752473.0"
"1572980165283","2736211.0"
"1572980165327","2706503.0"
"1572980165378","2687687.0"
"1572980165425","2684932.0"
"1572980165473","2682707.0"
"1572980165527","2685192.0"
"1572980165570","2691159.0"
"1572980165624","2699733.0"
"1572980165666","2705692.0"
"1572980165716","2710465.0"
"1572980165765","2721410.0"
"1572980165814","2729626.0"
"1572980165864","2737290.0"
"1572980165908","2746857.0"
"1572980165959","2752188.0"
"1572980166007","2755716.0"
"1572980166055","2759990.0"
"1572980166105","2771748.0"
"1572980166151","2790802.0"
"1572980166206","2803614.0"
"1572980166249","2808500.0"
"1572980166299","2816654.0"
"1572980166345","2831203.0"
"1572980166393","2840955.0"
"1572980166445","2828954.0"
"1572980166489","2789601.0"
"1572980166539","2753527.0"
"1572980166588","2739929.0"
"1572980166635","2733748.0"
"1572980166685","2737525.0"
"1572980166733","2748036.0"
"1572980166786","2760704.0"
"1572980166830","2783351.0"
"1572980166879","2801954.0"
"1572980166928","2800524.0"
"1572980166974","2761506.0"
"1572980167025","2758139.0"
"1572980167070","2764978.0"
"1572980167123","2756136.0"
"1572980167169","2754897.0"
"1572980167218","2755425.0"
"1572980167265","2757749.0"
"1572980167313","2757215.0"
"1572980167366","2763166.0"
"1572980167409","2755019.0"
"1572980167459","2732899.0"
"1572980167508","2720615.0"
"1572980167555","2711704.0"
"1572980167604","2698991.0"
"1572980167654","2687762.0"
"1572980167705","2672052.0"
"1572980167750","2659110.0"
"1572980167799","2652454.0"
"1572980167846","2656952.0"
"1572980167894","2666575.0"
"1572980167948","2673414.0"
"1572980167990","2680809.0"
"1572980168041","2684359.0"
"1572980168090","2686478.0"
"1572980168137","2686232.0"
"1572980168187","2689277.0"
"1572980168235","2696031.0"
"1572980168287","2687303.0"
"1572980168329","2668525.0"
"1572980168382","2656654.0"
"1572980168428","2650282.0"
"1572980168475","2643009.0"
"1572980168526","2639130.0"
"1572980168573","2636476.0"
"1572980168623","2636147.0"
"1572980168671","2635719.0"
"1572980168718","2639971.0"
"1572980168899","2645166.0"
"1572980168900","2648301.0"
"1572980168902","2654902.0"
"1572980168928","2663285.0"
"1572980168999","2668802.0"
"1572980169015","2676144.0"
"1572980169059","2684757.0"
"1572980169107","2679371.0"
"1572980169155","2651522.0"
"1572980169204","2633394.0"
"1572980169252","2622815.0"
"1572980169301","2614645.0"
"1572980169346","2612933.0"
"1572980169397","2609729.0"
"1572980169447","2603916.0"
"1572980169492","2597926.0"
"1572980169542","2596311.0"
"1572980169590","2591065.0"
"1572980169639","2588694.0"
"1572980169688","2593024.0"
"1572980169735","2607097.0"
"1572980169786","2629853.0"
"1572980169832","2648072.0"
"1572980169883","2667593.0"
"1572980169929","2681858.0"
"1572980169978","2693054.0"
"1572980170027","2704430.0"
"1572980170162","2716324.0"
"1572980170162","2728860.0"
"1572980170188","2738590.0"
"1572980170287","2745197.0"
"1572980170288","2726619.0"
"1572980170324","2707681.0"
"1572980170365","2700452.0"
"1572980170410","2689239.0"
"1572980170462","2679984.0"
"1572980170510","2673024.0"
"1572980170559","2665144.0"
"1572980170608","2663805.0"
"1572980170655","2659813.0"
"1572980170704","2662101.0"
"1572980170752","2664663.0"
"1572980170802","2665565.0"
"1572980170849","2665413.0"
"1572980170897","2668838.0"
"1572980170946","2674299.0"
"1572980170994","2679824.0"
"1572980171040","2688390.0"
"1572980171091","2698402.0"
"1572980171137","2710542.0"
"1572980171189","2721149.0"
"1572980171236","2729549.0"
"1572980171286","2736983.0"
"1572980171332","2747867.0"
"1572980171383","2742093.0"
"1572980171428","2721816.0"
"1572980171477","2711259.0"
"1572980171527","2707122.0"
"1572980171575","2702165.0"
"1572980171622","2702287.0"
"1572980171671","2703947.0"
"1572980171719","2702685.0"
"1572980171770","2710517.0"
"1572980171816","2721296.0"
"1572980171866","2741243.0"
"1572980171913","2756534.0"
"1572980171960","2770440.0"
"1572980172011","2785217.0"
"1572980172059","2799788.0"
"1572980172107","2814902.0"
"1572980172156","2827546.0"
"1572980172205","2841736.0"
"1572980172253","2850310.0"
"1572980172302","2856100.0"
"1572980172351","2865050.0"
"1572980172398","2875613.0"
"1572980172445","2874044.0"
"1572980172495","2855893.0"
"1572980172543","2845094.0"
"1572980172592","2843020.0"
"1572980172641","2841514.0"
"1572980172688","2838064.0"
"1572980172737","2836465.0"
"1572980172786","2831364.0"
"1572980172834","2831463.0"
"1572980172880","2833284.0"
"1572980172931","2836756.0"
"1572980172979","2840320.0"
"1572980173027","2843111.0"
"1572980173210","2849607.0"
"1572980173210","2853217.0"
"1572980173210","2854769.0"
"1572980173242","2858195.0"
"1572980173488","2865019.0"
"1572980173488","2863520.0"
"1572980173490","2840779.0"
"1572980173494","2813984.0"
"1572980173495","2797824.0"
"1572980173566","2783733.0"
"1572980173567","2772963.0"
"1572980173639","2760151.0"
"1572980173656","2750301.0"
"1572980173706","2741979.0"
"1572980173754","2741030.0"
"1572980173802","2738881.0"
"1572980173853","2739752.0"
"1572980173899","2743285.0"
"1572980173947","2743722.0"
"1572980173993","2745297.0"
"1572980174043","2751784.0"
"1572980174092","2756518.0"
"1572980174139","2745847.0"
"1572980174188","2716598.0"
"1572980174235","2695680.0"
"1572980174421","2677918.0"
"1572980174421","2664923.0"
"1572980174426","2654130.0"
"1572980174460","2644715.0"
"1572980174532","2635168.0"
"1572980174532","2628362.0"
"1572980174577","2626616.0"
"1572980174626","2627779.0"
"1572980174674","2629317.0"
"1572980174724","2631015.0"
"1572980174770","2629837.0"
"1572980174820","2629784.0"
"1572980174868","2632208.0"
"1572980174916","2638801.0"
"1572980174965","2620513.0"
"1572980175014","2582842.0"
"1572980175063","2553148.0"
"1572980175109","2537537.0"
"1572980175158","2537553.0"
"1572980175370","2542746.0"
"1572980175370","2538493.0"
"1572980175370","2546517.0"
"1572980175370","2560469.0"
"1572980175415","2580272.0"
"1572980175480","2593483.0"
"1572980175497","2608321.0"
"1572980175545","2616543.0"
"1572980175595","2632224.0"
"1572980175642","2649242.0"
"1572980175690","2664043.0"
"1572980175740","2680275.0"
"1572980175785","2677024.0"
"1572980175834","2649939.0"
"1572980175883","2628506.0"
"1572980175929","2608077.0"
"1572980175980","2591569.0"
"1572980176027","2576233.0"
"1572980176075","2568523.0"
"1572980176124","2564339.0"
"1572980176176","2580150.0"
"1572980176221","2597061.0"
"1572980176271","2613262.0"
"1572980176321","2628484.0"
"1572980176368","2642856.0"
"1572980176417","2649701.0"
"1572980176466","2657174.0"
"1572980176511","2665618.0"
"1572980176562","2669267.0"
"1572980176610","2675295.0"
"1572980176659","2685222.0"
"1572980176707","2678784.0"
"1572980176756","2660807.0"
"1572980176804","2652149.0"
"1572980176851","2645189.0"
"1572980176899","2639506.0"
"1572980176948","2638886.0"
"1572980176998","2636606.0"
"1572980177044","2636875.0"
"1572980177093","2640928.0"
"1572980177143","2644171.0"
"1572980177188","2648691.0"
"1572980177238","2657113.0"
"1572980177286","2662284.0"
"1572980177337","2670285.0"
"1572980177385","2678645.0"
"1572980177432","2688107.0"
"1572980177483","2691831.0"
"1572980177529","2679334.0"
"1572980177580","2665228.0"
"1572980177627","2659362.0"
"1572980177678","2655148.0"
"1572980177724","2653159.0"
"1572980177772","2653281.0"
"1572980177822","2656418.0"
"1572980177869","2660425.0"
"1572980178012","2664173.0"
"1572980178013","2673030.0"
"1572980178030","2681996.0"
"1572980178131","2692658.0"
"1572980178132","2705050.0"
"1572980178161","2717639.0"
"1572980178208","2729900.0"
"1572980178260","2742253.0"
"1572980178305","2753154.0"
"1572980178352","2749726.0"
"1572980178403","2732600.0"
"1572980178447","2723352.0"
"1572980178499","2716598.0"
"1572980178602","2711298.0"
"1572980178603","2709394.0"
"1572980178763","2712169.0"
"1572980178763","2711682.0"
"1572980178763","2714128.0"
"1572980178793","2718695.0"
"1572980178864","2724782.0"
"1572980178886","2731682.0"
"1572980178933","2739163.0"
"1572980178983","2746093.0"
"1572980179030","2753298.0"
"1572980179079","2759426.0"
"1572980179127","2768780.0"
"1572980179176","2776643.0"
"1572980179224","2785294.0"
"1572980179272","2796255.0"
"1572980179322","2805089.0"
"1572980179369","2811721.0"
"1572980179419","2822170.0"
"1572980179466","2829230.0"
"1572980179514","2838729.0"
"1572980179564","2846331.0"
"1572980179697","2856344.0"
"1572980179697","2844879.0"
"1572980179722","2822123.0"
"1572980179821","2806146.0"
"1572980179821","2798167.0"
"1572980179853","2785891.0"
"1572980179902","2778485.0"
"1572980179949","2768696.0"
"1572980179998","2760740.0"
"1572980180046","2756634.0"
"1572980180094","2755134.0"
"1572980180144","2757107.0"
"1572980180191","2758798.0"
"1572980180243","2761421.0"
"1572980180288","2764107.0"
"1572980180336","2766425.0"
"1572980180383","2770631.0"
"1572980180432","2779420.0"
"1572980180484","2783526.0"
"1572980180529","2788071.0"
"1572980180578","2795259.0"
"1572980180626","2803675.0"
"1572980180675","2808738.0"
"1572980180725","2819431.0"
"1572980180876","2822781.0"
"1572980180876","2788805.0"
"1572980180878","2738482.0"
"1572980180986","2697354.0"
"1572980180987","2688436.0"
"1572980181012","2668304.0"
"1572980181065","2661075.0"
"1572980181109","2655362.0"
"1572980181159","2661764.0"
"1572980181207","2660516.0"
"1572980181255","2656211.0"
"1572980181305","2659730.0"
"1572980181352","2666146.0"
"1572980181402","2668058.0"
"1572980181449","2671187.0"
"1572980181497","2673428.0"
"1572980181546","2666743.0"
"1572980181594","2666987.0"
"1572980181644","2660325.0"
"1572980181694","2658230.0"
"1572980181744","2658712.0"
"1572980181793","2661373.0"
"1572980181841","2664074.0"
"1572980181888","2663614.0"
"1572980181936","2635650.0"
"1572980181984","2606616.0"
"1572980182033","2594560.0"
"1572980182078","2581877.0"
"1572980182126","2572310.0"
"1572980182179","2557799.0"
"1572980182224","2549928.0"
"1572980182275","2542472.0"
"1572980182325","2540283.0"
"1572980182372","2543971.0"
"1572980182421","2547649.0"
"1572980182464","2545891.0"
"1572980182517","2543404.0"
"1572980182571","2545531.0"
"1572980182607","2546547.0"
"1572980182656","2549317.0"
"1572980182706","2551137.0"
"1572980182756","2554540.0"
"1572980182807","2562870.0"
"1572980182856","2568271.0"
"1572980182904","2571690.0"
"1572980182952","2578986.0"
"1572980183001","2581296.0"
"1572980183048","2558145.0"
"1572980183094","2528619.0"
"1572980183149","2522386.0"
"1572980183195","2496869.0"
"1572980183244","2489457.0"
"1572980183286","2483139.0"
"1572980183335","2458776.0"
"1572980183389","2479169.0"
"1572980183437","2542027.0"
"1572980183486","2629953.0"
"1572980183534","2704345.0"
"1572980183581","2797763.0"
"1572980183624","2750774.0"
"1572980183677","2723988.0"
"1572980183726","2731668.0"
"1572980183772","2740900.0"
"1572980183821","2728929.0"
"1572980183868","2709867.0"
"1572980183917","2639841.0"
"1572980183964","2607128.0"
"1572980184014","2481838.0"
"1572980184063","2449430.0"
"1572980184110","2411834.0"
"1572980184158","2363883.0"
"1572980184207","7525260.0"
"1572980184256","5182088.0"
"1572980184307","3190107.0"
"1572980184352","3744394.0"
"1572980184402","2395863.0"
"1572980184449","1985334.0"
"1572980184499","1996310.0"
"1572980184548","1928283.0"
"1572980184595","1858830.0"
"1572980184644","1844987.0"
"1572980184691","1855705.0"
"1572980184740","1904520.0"
"1572980184788","1977368.0"
"1572980184837","2074548.0"
"1572980184887","2166879.0"
"1572980184933","2213156.0"
"1572980184982","2274293.0"
"1572980185030","2325221.0"
"1572980185079","2365249.0"
"1572980185128","2389757.0"
"1572980185175","2415863.0"
"1572980185225","2436798.0"
"1572980185272","2451254.0"
"1572980185322","2451819.0"
"1572980185369","2439084.0"
"1572980185416","2434986.0"
"1572980185467","2433735.0"
"1572980185514","2436833.0"
"1572980185563","2441677.0"
"1572980185611","2447829.0"
"1572980185659","2455810.0"
"1572980185713","2466606.0"
"1572980185760","2475259.0"
"1572980185809","2484209.0"
"1572980185857","2490164.0"
"1572980185906","2501182.0"
"1572980185955","2507859.0"
"1572980186004","2515785.0"
"1572980186051","2525996.0"
"1572980186095","2522242.0"
"1572980186148","2514001.0"
"1572980186191","2510858.0"
"1572980186240","2507593.0"
"1572980186289","2508231.0"
"1572980186342","2525031.0"
"1572980186385","2557628.0"
"1572980186455","2583040.0"
"1572980186481","2600809.0"
"1572980186566","2621147.0"
"1572980186579","2609556.0"
"1572980186629","2593521.0"
"1572980186673","2581447.0"
"1572980186722","2582465.0"
"1572980186769","2588127.0"
"1572980186819","2600724.0"
"1572980186867","2618658.0"
"1572980186917","2634967.0"
"1572980186966","2645731.0"
"1572980187014","2657915.0"
"1572980187063","2684832.0"
"1572980187115","2690251.0"
"1572980187159","2696171.0"
"1572980187210","2681155.0"
"1572980187253","2701726.0"
"1572980187310","2696935.0"
"1572980187352","2697902.0"
"1572980187402","2674679.0"
"1572980187450","2650930.0"
"1572980187495","2627811.0"
"1572980187547","2613938.0"
"1572980187595","2590169.0"
"1572980187643","2565483.0"
"1572980187692","2525033.0"
"1572980187741","2481702.0"
"1572980187789","2458213.0"
"1572980187837","2425092.0"
"1572980187886","2421768.0"
"1572980187934","2395375.0"
"1572980187982","2367091.0"
"1572980188029","2302309.0"
"1572980188079","2302529.0"
"1572980188127","2242822.0"
"1572980188184","2227110.0"
"1572980188253","2183986.0"
"1572980188304","2159290.0"
"1572980188378","2147145.0"
"1572980188386","2131754.0"
"1572980188415","2139576.0"
"1572980188469","2143640.0"
"1572980188512","2113253.0"
"1572980188561","2098889.0"
"1572980188609","2091617.0"
"1572980188657","2053755.0"
"1572980188706","2070339.0"
"1572980188757","2048154.0"
"1572980188806","2050625.0"
"1572980188854","2045736.0"
"1572980188903","2059867.0"
"1572980188952","2075991.0"
"1572980188999","2080128.0"
"1572980189048","2068435.0"
"1572980189094","2072055.0"
"1572980189145","2071909.0"
"1572980189194","2068221.0"
"1572980189242","2068106.0"
"1572980189290","2064325.0"
"1572980189335","2064861.0"
"1572980189387","2072470.0"
"1572980189435","2079955.0"
"1572980189484","2096465.0"
"1572980189532","2114570.0"
"1572980189581","2111782.0"
"1572980189628","2099439.0"
"1572980189676","2106040.0"
"1572980189726","2130480.0"
"1572980189774","2141726.0"
"1572980189826","2162161.0"
"1572980189873","2161078.0"
"1572980189922","2144483.0"
"1572980189970","2125263.0"
"1572980190017","2106538.0"
"1572980190065","2080532.0"
"1572980190116","2065334.0"
"1572980190165","2040732.0"
"1572980190212","2021520.0"
"1572980190260","1996974.0"
"1572980190310","1979066.0"
"1572980190354","1975393.0"
"1572980190407","1964092.0"
"1572980190454","1946912.0"
"1572980190503","1940520.0"
"1572980190552","1928218.0"
"1572980190595","1938673.0"
"1572980190649","1994347.0"
"1572980190694","2013941.0"
"1572980190745","2047764.0"
"1572980190793","2096142.0"
"1572980190842","2106305.0"
"1572980190888","2142817.0"
"1572980190934","2138412.0"
"1572980190990","2122205.0"
"1572980191035","2137409.0"
"1572980191081","2154630.0"
"1572980191134","2188694.0"
"1572980191181","2230355.0"
"1572980191231","2261256.0"
"1572980191275","2309534.0"
"1572980191327","2350984.0"
"1572980191374","2401633.0"
"1572980191424","2446551.0"
"1572980191472","2482730.0"
"1572980191519","2519352.0"
"1572980191569","2546789.0"
"1572980191616","2573198.0"
"1572980191661","2581957.0"
"1572980191714","2587465.0"
"1572980191763","2595067.0"
"1572980191811","2601675.0"
"1572980191856","2607930.0"
"1572980191904","2618552.0"
"1572980191955","2622858.0"
"1572980192004","2625194.0"
"1572980192052","2626982.0"
"1572980192097","2630282.0"
"1572980192151","2634053.0"
"1572980192196","2638327.0"
"1572980192242","2615149.0"
"1572980192295","2602266.0"
"1572980192344","2596920.0"
"1572980192391","2593873.0"
"1572980192435","2588328.0"
"1572980192489","2588546.0"
"1572980192536","2592337.0"
"1572980192582","2597658.0"
"1572980192634","2591650.0"
"1572980192680","2582351.0"
"1572980192726","2574439.0"
"1572980192775","2571282.0"
"1572980192825","2557474.0"
"1572980192872","2537163.0"
"1572980192920","2510037.0"
"1572980192969","2482366.0"
"1572980193015","2456777.0"
"1572980193070","2441380.0"
"1572980193113","2427499.0"
"1572980193167","2423852.0"
"1572980193214","2421138.0"
"1572980193257","2418647.0"
"1572980193306","2417757.0"
"1572980193360","2406371.0"
"1572980193403","2375684.0"
"1572980193450","2355508.0"
"1572980193507","2349417.0"
"1572980193551","2353708.0"
"1572980193599","2352824.0"
"1572980193645","2343269.0"
"1572980193695","2310334.0"
"1572980193746","2297754.0"
"1572980193795","2292870.0"
"1572980193845","2297472.0"
"1572980193893","2333980.0"
"1572980193938","2366904.0"
"1572980193989","2376927.0"
"1572980194037","2356679.0"
"1572980194083","2290102.0"
"1572980194137","2273509.0"
"1572980194182","2274956.0"
"1572980194231","2255327.0"
"1572980194279","2256491.0"
"1572980194325","2230475.0"
"1572980194373","2202278.0"
"1572980194424","2182566.0"
"1572980194470","2163679.0"
"1572980194517","2157793.0"
"1572980194570","2103397.0"
"1572980194620","2073604.0"
"1572980194664","2068262.0"
"1572980194716","2024124.0"
"1572980194766","1956368.0"
"1572980194813","1938797.0"
"1572980194864","1912163.0"
"1572980194910","1889277.0"
"1572980194958","1861018.0"
"1572980195007","1844977.0"
"1572980195055","1835085.0"
"1572980195102","1821072.0"
"1572980195153","1806768.0"
"1572980195203","1796429.0"
"1572980195250","1785189.0"
"1572980195298","1756056.0"
"1572980195348","1725962.0"
"1572980195390","1707841.0"
"1572980195439","1692753.0"
"1572980195492","1683328.0"
"1572980195540","1667905.0"
"1572980195586","1660676.0"
"1572980195637","1658709.0"
"1572980195687","1713019.0"
"1572980195735","1783879.0"
"1572980195780","1787046.0"
"1572980195831","1808668.0"
"1572980195880","1692848.0"
"1572980195929","1654875.0"
"1572980195977","1632249.0"
"1572980196027","1605814.0"
"1572980196073","1595219.0"
"1572980196120","1583420.0"
"1572980196171","1567325.0"
"1572980196214","1555106.0"
"1572980196266","1547221.0"
"1572980196315","1542540.0"
"1572980196361","1538907.0"
"1572980196407","1539935.0"
"1572980196461","1541705.0"
"1572980196510","1531660.0"
"1572980196551","1501811.0"
"1572980196605","1483253.0"
"1572980196650","1468094.0"
"1572980196701","1461140.0"
"1572980196752","1456207.0"
"1572980196801","1455498.0"
"1572980196846","1456546.0"
"1572980196897","1461766.0"
"1572980196943","1467885.0"
"1572980196994","1473493.0"
"1572980197038","1481768.0"
"1572980197088","1490527.0"
"1572980197142","1497319.0"
"1572980197184","1503861.0"
"1572980197235","1510954.0"
"1572980197283","1513886.0"
"1572980197328","1498542.0"
"1572980197381","1492646.0"
"1572980197430","1482402.0"
"1572980197473","1485066.0"
"1572980197524","1488908.0"
"1572980197575","1490948.0"
"1572980197624","1488916.0"
"1572980197667","1492738.0"
"1572980197720","1500296.0"
"1572980197768","1507403.0"
"1572980197812","1516785.0"
"1572980197864","1525229.0"
"1572980197914","1538395.0"
"1572980197963","1547528.0"
"1572980198011","1558111.0"
"1572980198059","1555283.0"
"1572980198109","1549797.0"
"1572980198156","1555640.0"
"1572980198205","1562040.0"
"1572980198252","1572270.0"
"1572980198301","1586163.0"
"1572980198348","1596054.0"
"1572980198397","1602413.0"
"1572980198445","1609888.0"
"1572980198494","1620626.0"
"1572980198543","1632115.0"
"1572980198588","1640744.0"
"1572980198639","1647270.0"
"1572980198688","1657224.0"
"1572980198736","1667378.0"
"1572980198786","1663370.0"
"1572980198831","1660932.0"
"1572980198883","1659339.0"
"1572980198926","1668628.0"
"1572980198978","1675578.0"
"1572980199029","1679900.0"
"1572980199072","1687035.0"
"1572980199124","1694090.0"
"1572980199166","1704106.0"
"1572980199220","1714970.0"
"1572980199271","1727642.0"
"1572980199317","1739554.0"
"1572980199362","1754164.0"
"1572980199408","1762868.0"
"1572980199459","1772133.0"
"1572980199506","1785402.0"
"1572980199555","1801157.0"
"1572980199607","1814767.0"
"1572980199656","1829910.0"
"1572980199705","1842913.0"
"1572980199751","1855199.0"
"1572980199801","1861054.0"
"1572980199844","1868631.0"
"1572980199894","1880397.0"
"1572980199948","1882258.0"
"1572980199994","1879925.0"
"1572980200044","1877967.0"
"1572980200088","1879054.0"
"1572980200141","1880441.0"
"1572980200189","1884741.0"
"1572980200236","1890677.0"
"1572980200286","1890480.0"
"1572980200332","1893991.0"
"1572980200383","1897951.0"
"1572980200425","1902807.0"
"1572980200474","1912053.0"
"1572980200529","1918839.0"
"1572980200576","1932497.0"
"1572980200626","1946682.0"
"1572980200667","1960685.0"
"1572980200722","1967719.0"
"1572980200771","1975558.0"
"1572980200818","1977404.0"
"1572980200867","1982051.0"
"1572980200915","1985844.0"
"1572980200964","1990995.0"
"1572980201007","1990692.0"
"1572980201059","1996229.0"
"1572980201106","1990018.0"
"1572980201158","1971586.0"
"1572980201205","1960202.0"
"1572980201253","1953206.0"
"1572980201303","1952853.0"
"1572980201347","1949968.0"
"1572980201399","1944116.0"
"1572980201448","1938395.0"
"1572980201496","1935055.0"
"1572980201545","1931343.0"
"1572980201589","1934872.0"
"1572980201642","1941095.0"
"1572980201689","1945114.0"
"1572980201738","1952203.0"
"1572980201788","1955911.0"
"1572980201835","1954106.0"
"1572980201885","1955067.0"
"1572980201928","1958499.0"
"1572980201980","1958231.0"
"1572980202030","1961025.0"
"1572980202078","1951045.0"
"1572980202126","1924209.0"
"1572980202174","1902976.0"
"1572980202224","1890043.0"
"1572980202271","1882103.0"
"1572980202320","1873533.0"
"1572980202370","1868222.0"
"1572980202416","1858748.0"
"1572980202465","1850715.0"
"1572980202512","1844374.0"
"1572980202557","1845225.0"
"1572980202611","1845774.0"
"1572980202656","1846834.0"
"1572980202707","1847791.0"
"1572980202752","1851014.0"
"1572980202798","1854742.0"
"1572980202849","1855900.0"
"1572980203026","1859285.0"
"1572980203026","1859104.0"
"1572980203026","1838224.0"
"1572980203058","1818924.0"
"1572980203356","1798379.0"
"1572980203356","1796445.0"
"1572980203356","1791311.0"
"1572980203356","1791577.0"
"1572980203412","1792390.0"
"1572980203435","1795167.0"
"1572980203504","1805291.0"
"1572980203529","1811835.0"
"1572980203574","1815633.0"
"1572980203626","1819081.0"
"1572980203669","1826872.0"
"1572980203725","1835469.0"
"1572980203772","1840715.0"
"1572980203820","1848072.0"
"1572980203870","1834122.0"
"1572980203917","1814846.0"
"1572980203968","1801906.0"
"1572980204010","1800825.0"
"1572980204063","1802922.0"
"1572980204111","1811063.0"
"1572980204162","1816760.0"
"1572980204209","1820505.0"
"1572980204251","1823744.0"
"1572980204306","1830078.0"
"1572980204351","1831017.0"
"1572980204397","1837088.0"
"1572980204447","1843193.0"
"1572980204494","1850812.0"
"1572980204543","1856633.0"
"1572980204592","1857515.0"
"1572980204645","1840477.0"
"1572980204692","1830505.0"
"1572980204741","1827041.0"
"1572980204790","1828689.0"
"1572980204838","1831966.0"
"1572980204886","1834302.0"
"1572980204930","1834871.0"
"1572980204984","1846202.0"
"1572980205028","1853068.0"
"1572980205081","1856558.0"
"1572980205130","1865992.0"
"1572980205174","1877142.0"
"1572980205227","1880204.0"
"1572980205272","1891758.0"
"1572980205323","1910353.0"
"1572980205372","1897644.0"
"1572980205419","1886780.0"
"1572980205470","1882686.0"
"1572980205513","1875724.0"
"1572980205567","1875669.0"
"1572980205612","1886155.0"
"1572980205663","1884495.0"
"1572980205712","1882615.0"
"1572980205760","1885425.0"
"1572980205809","1874531.0"
"1572980205851","1848287.0"
"1572980205908","1831289.0"
"1572980205953","1829087.0"
"1572980206002","1834008.0"
"1572980206050","1832053.0"
"1572980206095","1799243.0"
"1572980206148","1771422.0"
"1572980206193","1769134.0"
"1572980206244","1773393.0"
"1572980206293","1776203.0"
"1572980206341","1769216.0"
"1572980206390","1763707.0"
"1572980206432","1759093.0"
"1572980206487","1758203.0"
"1572980206534","1767793.0"
"1572980206581","1772160.0"
"1572980206630","1780347.0"
"1572980206674","1785396.0"
"1572980206728","1797721.0"
"1572980206773","1799293.0"
"1572980206825","1785175.0"
"1572980206874","1768153.0"
"1572980206921","1759563.0"
"1572980206970","1779319.0"
"1572980207015","1783129.0"
"1572980207067","1789383.0"
"1572980207115","1772231.0"
"1572980207166","1737528.0"
"1572980207212","1730285.0"
"1572980207255","1730852.0"
"1572980207311","1730876.0"
"1572980207354","1733753.0"
"1572980207406","1739558.0"
"1572980207453","1746517.0"
"1572980207502","1745940.0"
"1572980207551","1732339.0"
"1572980207596","1718682.0"
"1572980207648","1716585.0"
"1572980207696","1715285.0"
"1572980207745","1719387.0"
"1572980207792","1726502.0"
"1572980207841","1734387.0"
"1572980207887","1743280.0"
"1572980207935","1755117.0"
"1572980207987","1776597.0"
"1572980208034","1798178.0"
"1572980208080","1827896.0"
"1572980208131","1855794.0"
"1572980208176","1868143.0"
"1572980208228","1887187.0"
"1572980208279","1901645.0"
"1572980208327","1901486.0"
"1572980208373","1894934.0"
"1572980208422","1888893.0"
"1572980208471","1885929.0"
"1572980208520","1888558.0"
"1572980208569","1885464.0"
"1572980208615","1885974.0"
"1572980208665","1883566.0"
"1572980208712","1872922.0"
"1572980208759","1883580.0"
"1572980208810","1886504.0"
"1572980208856","1909556.0"
"1572980208902","1938696.0"
"1572980208954","1958381.0"
"1572980209004","1976066.0"
"1572980209052","1993155.0"
"1572980209095","2005609.0"
"1572980209143","2016142.0"
"1572980209197","2022907.0"
"1572980209247","2026593.0"
"1572980209293","2028208.0"
"1572980209341","2038284.0"
"1572980209391","2052323.0"
"1572980209437","2067159.0"
"1572980209487","2069782.0"
"1572980209531","2060850.0"
"1572980209582","2042164.0"
"1572980209631","2036912.0"
"1572980209677","2034391.0"
"1572980209729","2026506.0"
"1572980209778","2021317.0"
"1572980209826","2014236.0"
"1572980209873","2001729.0"
"1572980209921","1984493.0"
"1572980209971","1974182.0"
"1572980210019","1957241.0"
"1572980210068","1930845.0"
"1572980210115","1889997.0"
"1572980210165","1858253.0"
"1572980210212","1839930.0"
"1572980210258","1830379.0"
"1572980210309","1824286.0"
"1572980210358","1819995.0"
"1572980210407","1813128.0"
"1572980210454","1813501.0"
"1572980210502","1838697.0"
"1572980210547","1920467.0"
"1572980210596","1933517.0"
"1572980210648","1945937.0"
"1572980210696","1917118.0"
"1572980210745","1869763.0"
"1572980210794","1839650.0"
"1572980210841","1818707.0"
"1572980210890","1808493.0"
"1572980210939","1793997.0"
"1572980210987","1784055.0"
"1572980211034","1775666.0"
"1572980211080","1768594.0"
"1572980211131","1790356.0"
"1572980211182","1814404.0"
"1572980211230","1825527.0"
"1572980211277","1799503.0"
"1572980211327","1786172.0"
"1572980211374","1782546.0"
"1572980211421","1776656.0"
"1572980211471","1771026.0"
"1572980211519","1769067.0"
"1572980211565","1771936.0"
"1572980211615","1754845.0"
"1572980211666","1727563.0"
"1572980211712","1713401.0"
"1572980211760","1707759.0"
"1572980211805","1708625.0"
"1572980211858","1706006.0"
"1572980211907","1702345.0"
"1572980211955","1697621.0"
"1572980212001","1695319.0"
"1572980212052","1697052.0"
"1572980212096","1698549.0"
"1572980212145","1704362.0"
"1572980212197","1708934.0"
"1572980212245","1711053.0"
"1572980212293","1712361.0"
"1572980212342","1717294.0"
"1572980212387","1720391.0"
"1572980212439","1709568.0"
"1572980212489","1696581.0"
"1572980212535","1691316.0"
"1572980212582","1693482.0"
"1572980212633","1695290.0"
"1572980212677","1694614.0"
"1572980212730","1692529.0"
"1572980212779","1690402.0"
"1572980212825","1694732.0"
"1572980212874","1702781.0"
"1572980212923","1708350.0"
"1572980212973","1713141.0"
"1572980213020","1718926.0"
"1572980213070","1725364.0"
"1572980213116","1730767.0"
"1572980213162","1737839.0"
"1572980213213","1730318.0"
"1572980213262","1724974.0"
"1572980213311","1725771.0"
"1572980213359","1727595.0"
"1572980213404","1733335.0"
"1572980213456","1747537.0"
"1572980213505","1760705.0"
"1572980213552","1771261.0"
"1572980213597","1779323.0"
"1572980213651","1788446.0"
"1572980213697","1792298.0"
"1572980213743","1798643.0"
"1572980213787","1801740.0"
"1572980213840","1803643.0"
"1572980213885","1803032.0"
"1572980213936","1799348.0"
"1572980213985","1791081.0"
"1572980214036","1779600.0"
"1572980214085","1762570.0"
"1572980214133","1762466.0"
"1572980214185","1766245.0"
"1572980214226","1767852.0"
"1572980214279","1773271.0"
"1572980214324","1769732.0"
"1572980214375","1767889.0"
"1572980214424","1771257.0"
"1572980214468","1772062.0"
"1572980214522","1779252.0"
"1572980214571","1784366.0"
"1572980214618","1785711.0"
"1572980214668","1787755.0"
"1572980214715","1788942.0"
"1572980214764","1794944.0"
"1572980214810","1799214.0"
"1572980214861","1808660.0"
"1572980214905","1811413.0"
"1572980214958","1817851.0"
"1572980215008","1825237.0"
"1572980215050","1833451.0"
"1572980215100","1837750.0"
"1572980215145","1833979.0"
"1572980215202","1822785.0"
"1572980215247","1821836.0"
"1572980215296","1820635.0"
"1572980215346","1823357.0"
"1572980215391","1826371.0"
"1572980215438","1827577.0"
"1572980215485","1828211.0"
"1572980215640","1828992.0"
"1572980215642","1828736.0"
"1572980215642","1831659.0"
"1572980215721","1834930.0"
"1572980215808","1840258.0"
"1572980215808","1841123.0"
"1572980215836","1838102.0"
"1572980215874","1843945.0"
"1572980215927","1847866.0"
"1572980215975","1855022.0"
"1572980216024","1859021.0"
"1572980216065","1863974.0"
"1572980216120","1867300.0"
"1572980216169","1872024.0"
"1572980216216","1869301.0"
"1572980216265","1858035.0"
"1572980216312","1850573.0"
"1572980216361","1840568.0"
"1572980216406","1835426.0"
"1572980216458","1831891.0"
"1572980216508","1828120.0"
"1572980216550","1824940.0"
"1572980216601","1825917.0"
"1572980216646","1826261.0"
"1572980216695","1825255.0"
"1572980216746","1824302.0"
"1572980216793","1824097.0"
"1572980216847","1823833.0"
"1572980216891","1817675.0"
"1572980217039","1836097.0"
"1572980217039","1863655.0"
"1572980217056","1881705.0"
"1572980217190","1884637.0"
"1572980217190","1887983.0"
"1572980217190","1891915.0"
"1572980217248","1899623.0"
"1572980217282","1891252.0"
"1572980217326","1879621.0"
"1572980217379","1876634.0"
"1572980217429","1874541.0"
"1572980217471","1863793.0"
"1572980217523","1858734.0"
"1572980217573","1856211.0"
"1572980217622","1853702.0"
"1572980217668","1851298.0"
"1572980217719","1848643.0"
"1572980217768","1851538.0"
"1572980217815","1855904.0"
"1572980217864","1858379.0"
"1572980217906","1860774.0"
"1572980217961","1864659.0"
"1572980218012","1869116.0"
"1572980218058","1874586.0"
"1572980218103","1881713.0"
"1572980218150","1880903.0"
"1572980218206","1863879.0"
"1572980218250","1850183.0"
"1572980218299","1844750.0"
"1572980218349","1840477.0"
"1572980218392","1840916.0"
"1572980218440","1837242.0"
"1572980218489","1832913.0"
"1572980218666","1826958.0"
"1572980218666","1831214.0"
"1572980218666","1839343.0"
"1572980218695","1845640.0"
"1572980219014","1854037.0"
"1572980219014","1853596.0"
"1572980219019","1852381.0"
"1572980219019","1837964.0"
"1572980219087","1816937.0"
"1572980219087","1807398.0"
"1572980219160","1802875.0"
"1572980219180","1794060.0"
"1572980219221","1784521.0"
"1572980219271","1778062.0"
"1572980219317","1774760.0"
"1572980219366","1773610.0"
"1572980219408","1774894.0"
"1572980219464","1770796.0"
"1572980219510","1769394.0"
"1572980219555","1768350.0"
"1572980219605","1768011.0"
"1572980219657","1768413.0"
"1572980219706","1757372.0"
"1572980219751","1744203.0"
"1572980219802","1740598.0"
"1572980219850","1738339.0"
"1572980219898","1742872.0"
"1572980219948","1743829.0"
"1572980219991","1734257.0"
"1572980220043","1738766.0"
"1572980220089","1743280.0"
"1572980220135","1753817.0"
"1572980220192","1766190.0"
"1572980220238","1771546.0"
"1572980220282","1770414.0"
"1572980220328","1775364.0"
"1572980220383","1773968.0"
"1572980220431","1764748.0"
"1572980220475","1760067.0"
"1572980220528","1757974.0"
"1572980220571","1761710.0"
"1572980220626","1761143.0"
"1572980220673","1756513.0"
"1572980220722","1756391.0"
"1572980220770","1759093.0"
"1572980220819","1765382.0"
"1572980220868","1768641.0"
"1572980220910","1769390.0"
"1572980220966","1779009.0"
"1572980221012","1791890.0"
"1572980221061","1785276.0"
"1572980221104","1775390.0"
"1572980221153","1771924.0"
"1572980221204","1769370.0"
"1572980221252","1770075.0"
"1572980221301","1767163.0"
"1572980221352","1763779.0"
"1572980221397","1760071.0"
"1572980221449","1756789.0"
"1572980221496","1756036.0"
"1572980221547","1757253.0"
"1572980221592","1760020.0"
"1572980221639","1763309.0"
"1572980221687","1770418.0"
"1572980221736","1761005.0"
"1572980221785","1755351.0"
"1572980221833","1749416.0"
"1572980221882","1748636.0"
"1572980221931","1751572.0"
"1572980221978","1749810.0"
"1572980222025","1746513.0"
"1572980222073","1738833.0"
"1572980222124","1734085.0"
"1572980222174","1732847.0"
"1572980222221","1733313.0"
"1572980222269","1734966.0"
"1572980222317","1739479.0"
"1572980222366","1741996.0"
"1572980222414","1744609.0"
"1572980222463","1747490.0"
"1572980222513","1742738.0"
"1572980222559","1731874.0"
"1572980222608","1731120.0"
"1572980222656","1729458.0"
"1572980222706","1727567.0"
"1572980222754","1728678.0"
"1572980222801","1729525.0"
"1572980222849","1731815.0"
"1572980222898","1732933.0"
"1572980222947","1738368.0"
"1572980223107","1743321.0"
"1572980223107","1750842.0"
"1572980223107","1759244.0"
"1572980223171","1765544.0"
"1572980223292","1772420.0"
"1572980223292","1778354.0"
"1572980223293","1785262.0"
"1572980223349","1792075.0"
"1572980223384","1800389.0"
"1572980223433","1807142.0"
"1572980223480","1807516.0"
"1572980223528","1819830.0"
"1572980223637","1833890.0"
"1572980223637","1880074.0"
"1572980223800","1910739.0"
"1572980223801","1934401.0"
"1572980223801","1902821.0"
"1572980223825","1891667.0"
"1572980223895","1884015.0"
"1572980223916","1895076.0"
"1572980223965","1901444.0"
"1572980224014","1905651.0"
"1572980224061","1907102.0"
"1572980224109","1910206.0"
"1572980224158","1910446.0"
"1572980224207","1911088.0"
"1572980224254","1918457.0"
"1572980224304","1926826.0"
"1572980224351","1934892.0"
"1572980224401","1963235.0"
"1572980224449","2001011.0"
"1572980224497","2001519.0"
"1572980224546","2083858.0"
"1572980224595","2124432.0"
"1572980224643","2190476.0"
"1572980224690","2231503.0"
"1572980224740","2257103.0"
"1572980224787","2294899.0"
"1572980224836","2319101.0"
"1572980224886","2302185.0"
"1572980224936","2282353.0"
"1572980224986","2269039.0"
"1572980225034","2276276.0"
"1572980225078","2286490.0"
"1572980225131","2291766.0"
"1572980225175","2295474.0"
"1572980225228","2302744.0"
"1572980225274","2308955.0"
"1572980225326","2314290.0"
"1572980225373","2320922.0"
"1572980225417","2332781.0"
"1572980225472","2340419.0"
"1572980225517","2350120.0"
"1572980225567","2355842.0"
"1572980225615","2369911.0"
"1572980225665","2381106.0"
"1572980225711","2391974.0"
"1572980225755","2406048.0"
"1572980225809","2416420.0"
"1572980225857","2435480.0"
"1572980225903","2452108.0"
"1572980225953","2450950.0"
"1572980226004","2456541.0"
"1572980226050","2463345.0"
"1572980226097","2466572.0"
"1572980226148","2474993.0"
"1572980226196","2486229.0"
"1572980226247","2487198.0"
"1572980226289","2489289.0"
"1572980226337","2492621.0"
"1572980226390","2491190.0"
"1572980226439","2447152.0"
"1572980226488","2379357.0"
"1572980226531","2326725.0"
"1572980226583","2297553.0"
"1572980226633","2281256.0"
"1572980226677","2273605.0"
"1572980226728","2294225.0"
"1572980226774","2302110.0"
"1572980226827","2282971.0"
"1572980226868","2251648.0"
"1572980226925","2231001.0"
"1572980226966","2211334.0"
"1572980227021","2190283.0"
"1572980227066","2155708.0"
"1572980227113","2092088.0"
"1572980227163","2048052.0"
"1572980227208","2019850.0"
"1572980227259","2002710.0"
"1572980227311","1985584.0"
"1572980227359","1989408.0"
"1572980227408","1987409.0"
"1572980227456","1994132.0"
"1572980227505","2000195.0"
"1572980227552","2003147.0"
"1572980227599","2005930.0"
"1572980227650","2019102.0"
"1572980227698","2010727.0"
"1572980227748","1969816.0"
"1572980227795","1931032.0"
"1572980227843","1917297.0"
"1572980227893","1910111.0"
"1572980227941","1909308.0"
"1572980227989","1912953.0"
"1572980228038","1916598.0"
"1572980228083","1916560.0"
"1572980228134","1913171.0"
"1572980228179","1906639.0"
"1572980228232","1902976.0"
"1572980228281","1891143.0"
"1572980228329","1857641.0"
"1572980228372","1834274.0"
"1572980228423","1814231.0"
"1572980228473","1778100.0"
"1572980228520","1774705.0"
"1572980228570","1783322.0"
"1572980228613","1813099.0"
"1572980228664","1825168.0"
"1572980228715","1820515.0"
"1572980228760","1869527.0"
"1572980228812","1907612.0"
"1572980228861","1924238.0"
"1572980228910","1917691.0"
"1572980228958","1881967.0"
"1572980229004","1889572.0"
"1572980229055","1880734.0"
"1572980229105","1892626.0"
"1572980229145","1893367.0"
"1572980229194","1895491.0"
"1572980229244","1903634.0"
"1572980229293","1916310.0"
"1572980229345","1933450.0"
"1572980229389","1949435.0"
"1572980229439","1958932.0"
"1572980229487","1947566.0"
"1572980229535","1938045.0"
"1572980229585","1942615.0"
"1572980229631","1951622.0"
"1572980229684","1957434.0"
"1572980229729","1959631.0"
"1572980229778","1965159.0"
"1572980229826","1970403.0"
"1572980229874","1984818.0"
"1572980229925","1995832.0"
"1572980229971","2005054.0"
"1572980230022","2012554.0"
"1572980230068","2016906.0"
"1572980230118","2026418.0"
"1572980230166","2037605.0"
"1572980230324","2052014.0"
"1572980230324","2048081.0"
"1572980230324","2049318.0"
"1572980230364","2053195.0"
"1572980230515","2058213.0"
"1572980230515","2059066.0"
"1572980230515","2061854.0"
"1572980230570","2064276.0"
"1572980230605","2068486.0"
"1572980230650","2074327.0"
"1572980230700","2081158.0"
"1572980230748","2087273.0"
"1572980230795","2095234.0"
"1572980230846","2102125.0"
"1572980230893","2108430.0"
"1572980230945","2110384.0"
"1572980230989","2114397.0"
"1572980231039","2119127.0"
"1572980231087","2111026.0"
"1572980231135","2106514.0"
"1572980231186","2100396.0"
"1572980231232","2083657.0"
"1572980231284","2066289.0"
"1572980231433","2067287.0"
"1572980231433","2076797.0"
"1572980231433","2079490.0"
"1572980231578","2086753.0"
"1572980231578","2087046.0"
"1572980231578","2081011.0"
"1572980231639","2075213.0"
"1572980231671","2073561.0"
"1572980231721","2066275.0"
"1572980231764","2073528.0"
"1572980231813","2070562.0"
"1572980231870","2060592.0"
"1572980231914","2061338.0"
"1572980231964","2064989.0"
"1572980232006","2071655.0"
"1572980232055","2070056.0"
"1572980232106","2069126.0"
"1572980232151","2068640.0"
"1572980232202","2068967.0"
"1572980232249","2071072.0"
"1572980232299","2070552.0"
"1572980232344","2075863.0"
"1572980232399","2076919.0"
"1572980232447","2081470.0"
"1572980232496","2081844.0"
"1572980232545","2085611.0"
"1572980232588","2087513.0"
"1572980232641","2089937.0"
"1572980232686","2083460.0"
"1572980232738","2069290.0"
"1572980232787","2060145.0"
"1572980232956","2049950.0"
"1572980232956","2041333.0"
"1572980232956","2034698.0"
"1572980232988","2029929.0"
"1572980233101","2030839.0"
"1572980233101","2028422.0"
"1572980233144","2029476.0"
"1572980233174","2031518.0"
"1572980233224","2034470.0"
"1572980233265","2032631.0"
"1572980233484","2033940.0"
"1572980233486","2037243.0"
"1572980233486","2040013.0"
"1572980233488","2044574.0"
"1572980233534","2051009.0"
"1572980233625","2056874.0"
"1572980233626","2062533.0"
"1572980233652","2056224.0"
"1572980233706","2037910.0"
"1572980233754","2029442.0"
"1572980233804","2016300.0"
"1572980233850","2006562.0"
"1572980233900","1998659.0"
"1572980233947","1988733.0"
"1572980233990","1973018.0"
"1572980234042","1973254.0"
"1572980234089","1960844.0"
"1572980234139","1946583.0"
"1572980234185","1940829.0"
"1572980234239","1933561.0"
"1572980234290","1935483.0"
"1572980234335","1943588.0"
"1572980234386","1947556.0"
"1572980234429","1947989.0"
"1572980234477","1947552.0"
"1572980234530","1949974.0"
"1572980234578","1955699.0"
"1572980234627","1948793.0"
"1572980234674","1919691.0"
"1572980234724","1899136.0"
"1572980234770","1893207.0"
"1572980234820","1898018.0"
"1572980234869","1902902.0"
"1572980234914","1905359.0"
"1572980234965","1906592.0"
"1572980235010","1904642.0"
"1572980235065","1907840.0"
"1572980235108","1911730.0"
"1572980235159","1919455.0"
"1572980235209","1923250.0"
"1572980235251","1925180.0"
"1572980235305","1928880.0"
"1572980235351","1936599.0"
"1572980235402","1942952.0"
"1572980235449","1949584.0"
"1572980235499","1955108.0"
"1572980235548","1962808.0"
"1572980235591","1968270.0"
"1572980235645","1961272.0"
"1572980235689","1937891.0"
"1572980235742","1924045.0"
"1572980235790","1916889.0"
"1572980235839","1912728.0"
"1572980235888","1910184.0"
"1572980235933","1904993.0"
"1572980235985","1897191.0"
"1572980236143","1890304.0"
"1572980236143","1886567.0"
"1572980236143","1885330.0"
"1572980236293","1888357.0"
"1572980236293","1886451.0"
"1572980236293","1886880.0"
"1572980236336","1888195.0"
"1572980236373","1891797.0"
"1572980236420","1894662.0"
"1572980236469","1898400.0"
"1572980236517","1895568.0"
"1572980236563","1876457.0"
"1572980236613","1865675.0"
"1572980236663","1859307.0"
"1572980236711","1859230.0"
"1572980236758","1859506.0"
"1572980236809","1857271.0"
"1572980236857","1849701.0"
"1572980236907","1847673.0"
"1572980236950","1850278.0"
"1572980236998","1852147.0"
"1572980237050","1857936.0"
"1572980237094","1862905.0"
"1572980237148","1867192.0"
"1572980237189","1869730.0"
"1572980237245","1874675.0"
"1572980237291","1873237.0"
"1572980237335","1854063.0"
"1572980237389","1838878.0"
"1572980237437","1832689.0"
"1572980237487","1825649.0"
"1572980237530","1822210.0"
"1572980237580","1817514.0"
"1572980237631","1815395.0"
"1572980237680","1812252.0"
"1572980237730","1810960.0"
"1572980237775","1811732.0"
"1572980237825","1815732.0"
"1572980237871","1821253.0"
"1572980237922","1826318.0"
"1572980237971","1830296.0"
"1572980238018","1833409.0"
"1572980238068","1815767.0"
"1572980238111","1799753.0"
"1572980238166","1790819.0"
"1572980238214","1782570.0"
"1572980238262","1775774.0"
"1572980238310","1771560.0"
"1572980238357","1768921.0"
"1572980238530","1774449.0"
"1572980238532","1778275.0"
"1572980238532","1779705.0"
"1572980238557","1780821.0"
"1572980238684","1785242.0"
"1572980238685","1785465.0"
"1572980238706","1796445.0"
"1572980238748","1802796.0"
"1572980238797","1805811.0"
"1572980238844","1801703.0"
"1572980238891","1793531.0"
"1572980238940","1789543.0"
"1572980238989","1790797.0"
"1572980239033","1787261.0"
"1572980239081","1785923.0"
"1572980239130","1779460.0"
"1572980239179","1776058.0"
"1572980239227","1776237.0"
"1572980239275","1779695.0"
"1572980239330","1785112.0"
"1572980239374","1786693.0"
"1572980239424","1791585.0"
"1572980239473","1789297.0"
"1572980239523","1790214.0"
"1572980239570","1779854.0"
"1572980239613","1763137.0"
"1572980239669","1757340.0"
"1572980239717","1749869.0"
"1572980239765","1739607.0"
"1572980239814","1738089.0"
"1572980239862","1734237.0"
"1572980239910","1734217.0"
"1572980239953","1734930.0"
"1572980240009","1737112.0"
"1572980240057","1737088.0"
"1572980240098","1743930.0"
"1572980240146","1745655.0"
"1572980240195","1749148.0"
"1572980240245","1752368.0"
"1572980240294","1754609.0"
"1572980240344","1759689.0"
"1572980240391","1764077.0"
"1572980240440","1749599.0"
"1572980240493","1729970.0"
"1572980240629","1718517.0"
"1572980240629","1711120.0"
"1572980240651","1705278.0"
"1572980240804","1702206.0"
"1572980240806","1701455.0"
"1572980240808","1698566.0"
"1572980240835","1700461.0"
"1572980240880","1704348.0"
"1572980240923","1707180.0"
"1572980240974","1714100.0"
"1572980241021","1719202.0"
"1572980241068","1724854.0"
"1572980241118","1730677.0"
"1572980241165","1737681.0"
"1572980241214","1746210.0"
"1572980241264","1753218.0"
"1572980241312","1758654.0"
"1572980241363","1768116.0"
"1572980241409","1776125.0"
"1572980241459","1782475.0"
"1572980241507","1790102.0"
"1572980241558","1797918.0"
"1572980241604","1792414.0"
"1572980241651","1778856.0"
"1572980241702","1772239.0"
"1572980241748","1769760.0"
"1572980241797","1767747.0"
"1572980241845","1764717.0"
"1572980241899","1758817.0"
"1572980241943","1753327.0"
"1572980241990","1751657.0"
"1572980242040","1753823.0"
"1572980242088","1755148.0"
"1572980242137","1756438.0"
"1572980242184","1758037.0"
"1572980242233","1762001.0"
"1572980242282","1778399.0"
"1572980242496","1844374.0"
"1572980242496","1906385.0"
"1572980242496","1932011.0"
"1572980242496","1961104.0"
"1572980242541","1996391.0"
"1572980242641","2027729.0"
"1572980242641","2048914.0"
"1572980242669","2044844.0"
"1572980242719","2040764.0"
"1572980242765","2014504.0"
"1572980242815","1999579.0"
"1572980242868","1995038.0"
"1572980242912","1986098.0"
"1572980242965","1984288.0"
"1572980243012","1983687.0"
"1572980243058","1983821.0"
"1572980243105","1986330.0"
"1572980243157","1991940.0"
"1572980243206","1989441.0"
"1572980243254","1976630.0"
"1572980243297","1973788.0"
"1572980243352","1973851.0"
"1572980243399","1981086.0"
"1572980243449","1990568.0"
"1572980243495","1993193.0"
"1572980243547","1998427.0"
"1572980243588","1988073.0"
"1572980243640","1974146.0"
"1572980243690","1968256.0"
"1572980243738","1967630.0"
"1572980243788","1967880.0"
"1572980243834","1967234.0"
"1572980243885","1963068.0"
"1572980243928","1960112.0"
"1572980243979","1961894.0"
"1572980244029","1965785.0"
"1572980244077","1968656.0"
"1572980244123","1979526.0"
"1572980244174","1989243.0"
"1572980244222","1991840.0"
"1572980244271","1995221.0"
"1572980244427","1994508.0"
"1572980244427","1979838.0"
"1572980244427","1967861.0"
"1572980244587","1966720.0"
"1572980244587","1966179.0"
"1572980244587","1965053.0"
"1572980244623","1963771.0"
"1572980244657","1962861.0"
"1572980244704","1959677.0"
"1572980244756","1958036.0"
"1572980244801","1960155.0"
"1572980244852","1964562.0"
"1572980244902","1966126.0"
"1572980244947","1971011.0"
"1572980244999","1973871.0"
"1572980245048","1976385.0"
"1572980245091","1971781.0"
"1572980245139","1953298.0"
"1572980245186","1936609.0"
"1572980245241","1930526.0"
"1572980245286","1927950.0"
"1572980245334","1925827.0"
"1572980245385","1922113.0"
"1572980245430","1913368.0"
"1572980245482","1911042.0"
"1572980245531","1909530.0"
"1572980245576","1910714.0"
"1572980245629","1912399.0"
"1572980245677","1912261.0"
"1572980245722","1915024.0"
"1572980245773","1918106.0"
"1572980245822","1920818.0"
"1572980245871","1919561.0"
"1572980245920","1898394.0"
"1572980245967","1879742.0"
"1572980246016","1869590.0"
"1572980246062","1865120.0"
"1572980246111","1862444.0"
"1572980246162","1857373.0"
"1572980246211","1853630.0"
"1572980246257","1850191.0"
"1572980246302","1848795.0"
"1572980246354","1849516.0"
"1572980246404","1852046.0"
"1572980246451","1855142.0"
"1572980246500","1858056.0"
"1572980246548","1861028.0"
"1572980246593","1866061.0"
"1572980246643","1855479.0"
"1572980246693","1841007.0"
"1572980246743","1831424.0"
"1572980246784","1825962.0"
"1572980246836","1822153.0"
"1572980246885","1820237.0"
"1572980246932","1815742.0"
"1572980246984","1812776.0"
"1572980247033","1811557.0"
"1572980247081","1813613.0"
"1572980247131","1817085.0"
"1572980247179","1820139.0"
"1572980247229","1823136.0"
"1572980247275","1828028.0"
"1572980247418","1832988.0"
"1572980247418","1826271.0"
"1572980247435","1825895.0"
"1572980247551","1807368.0"
"1572980247551","1787237.0"
"1572980247578","1782940.0"
"1572980247621","1779025.0"
"1572980247664","1775548.0"
"1572980247707","1779390.0"
"1572980247760","1781376.0"
"1572980247804","1785083.0"
"1572980247857","1790348.0"
"1572980247908","1796055.0"
"1572980247953","1802630.0"
"1572980248003","1811923.0"
"1572980248046","1817862.0"
"1572980248095","1824146.0"
"1572980248146","1828538.0"
"1572980248195","1833813.0"
"1572980248244","1839278.0"
"1572980248291","1843657.0"
"1572980248342","1833187.0"
"1572980248385","1819889.0"
"1572980248435","1815170.0"
"1572980248490","1815102.0"
"1572980248536","1814158.0"
"1572980248582","1814133.0"
"1572980248626","1814365.0"
"1572980248681","1815570.0"
"1572980248726","1818810.0"
"1572980248772","1823548.0"
"1572980248827","1829048.0"
"1572980248874","1833469.0"
"1572980248925","1837218.0"
"1572980248970","1844163.0"
"1572980249019","1847220.0"
"1572980249064","1851934.0"
"1572980249111","1833417.0"
"1572980249166","1800395.0"
"1572980249213","1768382.0"
"1572980249262","1736939.0"
"1572980249307","1724306.0"
"1572980249358","1722240.0"
"1572980249405","1727355.0"
"1572980249452","1740117.0"
"1572980249506","1733577.0"
"1572980249551","1734150.0"
"1572980249597","1725929.0"
"1572980249647","1721923.0"
"1572980249698","1725862.0"
"1572980249747","1733861.0"
"1572980249794","1740353.0"
"1572980249837","1745145.0"
"1572980249887","1750003.0"
"1572980249940","1752224.0"
"1572980249989","1734064.0"
"1572980250037","1714153.0"
"1572980250082","1701237.0"
"1572980250128","1693927.0"
"1572980250182","1690989.0"
"1572980250226","1692342.0"
"1572980250273","1699677.0"
"1572980250326","1704888.0"
"1572980250370","1712103.0"
"1572980250422","1719726.0"
"1572980250468","1722678.0"
"1572980250518","1737232.0"
"1572980250564","1744085.0"
"1572980250614","1748425.0"
"1572980250664","1750938.0"
"1572980250711","1754368.0"
"1572980250761","1756062.0"
"1572980250808","1751619.0"
"1572980250857","1732947.0"
"1572980250906","1716967.0"
"1572980250954","1708119.0"
"1572980251003","1701778.0"
"1572980251050","1700967.0"
"1572980251099","1697245.0"
"1572980251148","1692834.0"
"1572980251196","1700569.0"
"1572980251245","1708533.0"
"1572980251293","1716490.0"
"1572980251342","1721648.0"
"1572980251390","1726077.0"
"1572980251439","1730210.0"
"1572980251487","1732951.0"
"1572980251536","1734806.0"
"1572980251585","1735976.0"
"1572980251633","1734859.0"
"1572980251682","1739582.0"
"1572980251730","1757334.0"
"1572980251779","1776377.0"
"1572980251827","1773742.0"
"1572980251875","1763435.0"
"1572980251925","1744509.0"
"1572980251972","1738524.0"
"1572980252022","1724802.0"
"1572980252070","1730765.0"
"1572980252120","1754536.0"
"1572980252168","1782619.0"
"1572980252216","1803028.0"
"1572980252265","1819292.0"
"1572980252313","1829343.0"
"1572980252361","1833094.0"
"1572980252410","1832435.0"
"1572980252459","1818372.0"
"1572980252508","1791981.0"
"1572980252554","1775221.0"
"1572980252605","1765117.0"
"1572980252651","1757171.0"
"1572980252701","1749176.0"
"1572980252748","1745684.0"
"1572980252797","1740416.0"
"1572980252850","1737892.0"
"1572980252898","1743642.0"
"1572980252943","1747909.0"
"1572980252989","1752957.0"
"1572980253046","1749946.0"
"1572980253090","1751541.0"
"1572980253135","1755682.0"
"1572980253189","1760644.0"
"1572980253233","1760071.0"
"1572980253287","1740541.0"
"1572980253329","1723416.0"
"1572980253382","1717684.0"
"1572980253430","1716630.0"
"1572980253474","1716181.0"
"1572980253529","1712589.0"
"1572980253576","1711591.0"
"1572980253626","1710880.0"
"1572980253671","1712424.0"
"1572980253717","1713913.0"
"1572980253770","1717579.0"
"1572980253813","1722140.0"
"1572980253868","1726671.0"
"1572980253911","1736968.0"
"1572980253960","1747153.0"
"1572980254011","1755162.0"
"1572980254055","1791851.0"
"1572980254110","1841850.0"
"1572980254156","1869801.0"
"1572980254208","1873312.0"
"1572980254250","1875793.0"
"1572980254304","1875114.0"
"1572980254351","1872172.0"
"1572980254400","1862968.0"
"1572980254444","1842968.0"
"1572980254496","1836966.0"
"1572980254546","1831740.0"
"1572980254593","1819971.0"
"1572980254643","1811163.0"
"1572980254691","1802739.0"
"1572980254740","1792197.0"
"1572980254788","1783239.0"
"1572980254831","1762897.0"
"1572980254885","1741836.0"
"1572980254934","1751155.0"
"1572980254981","1767852.0"
"1572980255030","1787416.0"
"1572980255076","1808321.0"
"1572980255122","1833908.0"
"1572980255173","1879107.0"
"1572980255224","1912072.0"
"1572980255272","1943121.0"
"1572980255321","1972691.0"
"1572980255369","1994146.0"
"1572980255413","1996491.0"
"1572980255467","2007747.0"
"1572980255513","2002541.0"
"1572980255564","2000865.0"
"1572980255612","1989894.0"
"1572980255661","1998307.0"
"1572980255709","2025671.0"
"1572980255753","2062163.0"
"1572980255805","2101235.0"
"1572980255853","2141521.0"
"1572980255903","2179009.0"
"1572980255950","2196971.0"
"1572980255998","2189169.0"
"1572980256049","2172285.0"
"1572980256094","2161202.0"
"1572980256145","2158303.0"
"1572980256193","2150609.0"
"1572980256242","2139430.0"
"1572980256290","2133126.0"
"1572980256334","2099770.0"
"1572980256381","2057096.0"
"1572980256437","2030699.0"
"1572980256481","2003764.0"
"1572980256528","1982819.0"
"1572980256577","1966734.0"
"1572980256626","1946323.0"
"1572980256673","1928697.0"
"1572980256721","1911596.0"
"1572980256774","1896931.0"
"1572980256823","1890549.0"
"1572980256865","1874690.0"
"1572980256916","1861770.0"
"1572980256964","1861180.0"
"1572980257014","1853023.0"
"1572980257060","1869421.0"
"1572980257107","1855532.0"
"1572980257162","1831100.0"
"1572980257211","1812987.0"
"1572980257254","1811090.0"
"1572980257308","1816161.0"
"1572980257355","1824956.0"
"1572980257405","1830846.0"
"1572980257449","1848486.0"
"1572980257502","1853297.0"
"1572980257550","1860931.0"
"1572980257596","1872229.0"
"1572980257647","1870124.0"
"1572980257694","1873221.0"
"1572980257744","1876626.0"
"1572980257791","1885208.0"
"1572980257834","1884082.0"
"1572980257885","1892144.0"
"1572980257936","1870852.0"
"1572980257986","1846117.0"
"1572980258033","1839573.0"
"1572980258082","1828573.0"
"1572980258131","1821214.0"
"1572980258178","1811244.0"
"1572980258229","1801150.0"
"1572980258277","1795665.0"
"1572980258325","1792640.0"
"1572980258373","1797822.0"
"1572980258423","1806010.0"
"1572980258467","1820824.0"
"1572980258519","1833539.0"
"1572980258567","1853370.0"
"1572980258615","1859890.0"
"1572980258665","1873308.0"
"1572980258712","1861302.0"
"1572980258761","1842929.0"
"1572980258809","1824339.0"
"1572980258859","1818333.0"
"1572980258907","1807189.0"
"1572980258954","1795963.0"
"1572980259005","1762299.0"
"1572980259051","1709917.0"
"1572980259098","1683760.0"
"1572980259148","1676714.0"
"1572980259197","1700457.0"
"1572980259242","1704787.0"
"1572980259293","1710870.0"
"1572980259342","1719269.0"
"1572980259391","1738676.0"
"1572980259438","1757446.0"
"1572980259487","1771054.0"
"1572980259535","1757147.0"
"1572980259582","1743772.0"
"1572980259633","1736254.0"
"1572980259679","1735787.0"
"1572980259725","1733024.0"
"1572980259779","1727225.0"
"1572980259827","1725726.0"
"1572980259868","1727841.0"
"1572980259926","1731978.0"
"1572980259971","1739568.0"
"1572980260019","1750977.0"
"1572980260069","1758167.0"
"1572980260113","1767198.0"
"1572980260166","1779169.0"
"1572980260214","1785884.0"
"1572980260258","1791171.0"
"1572980260310","1768122.0"
"1572980260359","1738286.0"
"1572980260408","1710181.0"
"1572980260456","1695154.0"
"1572980260505","1683543.0"
"1572980260552","1669250.0"
"1572980260599","1655915.0"
"1572980260650","1646754.0"
"1572980260698","1640494.0"
"1572980260748","1639905.0"
"1572980260796","1636217.0"
"1572980260844","1635909.0"
"1572980260892","1642449.0"
"1572980260940","1651705.0"
"1572980260989","1664979.0"
"1572980261038","1643296.0"
"1572980261084","1630405.0"
"1572980261133","1617257.0"
"1572980261185","1606001.0"
"1572980261231","1599370.0"
"1572980261281","1597978.0"
"1572980261324","1589776.0"
"1572980261381","1591529.0"
"1572980261425","1594390.0"
"1572980261469","1605172.0"
"1572980261521","1614608.0"
"1572980261572","1622733.0"
"1572980261620","1631270.0"
"1572980261670","1639033.0"
"1572980261716","1632879.0"
"1572980261761","1607442.0"
"1572980261808","1592401.0"
"1572980261861","1585773.0"
"1572980261904","1584079.0"
"1572980261960","1583242.0"
"1572980262005","1585312.0"
"1572980262053","1583280.0"
"1572980262104","1586809.0"
"1572980262150","1587705.0"
"1572980262203","1595763.0"
"1572980262250","1605308.0"
"1572980262299","1610591.0"
"1572980262349","1619496.0"
"1572980262396","1625053.0"
"1572980262442","1605424.0"
"1572980262493","1580712.0"
"1572980262542","1571283.0"
"1572980262586","1565937.0"
"1572980262639","1566053.0"
"1572980262687","1565123.0"
"1572980262731","1563062.0"
"1572980262781","1562412.0"
"1572980262828","1568812.0"
"1572980262878","1571423.0"
"1572980263044","1573113.0"
"1572980263044","1578069.0"
"1572980263044","1582388.0"
"1572980263196","1587358.0"
"1572980263196","1587892.0"
"1572980263196","1569044.0"
"1572980263229","1558786.0"
"1572980263273","1548379.0"
"1572980263318","1547973.0"
"1572980263363","1546762.0"
"1572980263409","1547534.0"
"1572980263463","1546510.0"
"1572980263512","1545390.0"
"1572980263559","1552940.0"
"1572980263606","1563733.0"
"1572980263656","1569383.0"
"1572980263706","1577457.0"
"1572980263753","1586913.0"
"1572980263802","1596531.0"
"1572980263849","1606615.0"
"1572980263898","1609760.0"
"1572980263945","1594613.0"
"1572980263994","1575783.0"
"1572980264044","1567106.0"
"1572980264089","1567299.0"
"1572980264140","1566195.0"
"1572980264184","1567500.0"
"1572980264237","1567857.0"
"1572980264288","1572008.0"
"1572980264334","1573426.0"
"1572980264383","1579475.0"
"1572980264427","1588455.0"
"1572980264475","1598675.0"
"1572980264526","1614327.0"
"1572980264572","1629118.0"
"1572980264622","1643723.0"
"1572980264674","1649515.0"
"1572980264723","1630787.0"
"1572980264765","1611597.0"
"1572980264925","1603720.0"
"1572980264925","1600363.0"
"1572980264925","1603779.0"
"1572980265072","1601221.0"
"1572980265072","1598435.0"
"1572980265072","1599508.0"
"1572980265123","1601210.0"
"1572980265158","1605130.0"
"1572980265210","1610703.0"
"1572980265256","1617499.0"
"1572980265300","1625837.0"
"1572980265351","1633661.0"
"1572980265400","1638647.0"
"1572980265444","1626370.0"
"1572980265492","1609721.0"
"1572980265545","1606706.0"
"1572980265589","1618054.0"
"1572980265644","1638253.0"
"1572980265689","1647301.0"
"1572980265734","1655153.0"
"1572980265789","1662281.0"
"1572980265830","1671635.0"
"1572980265885","1682171.0"
"1572980265928","1695225.0"
"1572980265976","1708162.0"
"1572980266027","1716965.0"
"1572980266077","1725819.0"
"1572980266126","1734389.0"
"1572980266175","1739233.0"
"1572980266226","1719948.0"
"1572980266273","1700270.0"
"1572980266322","1685924.0"
"1572980266366","1678002.0"
"1572980266418","1675284.0"
"1572980266468","1676198.0"
"1572980266516","1676881.0"
"1572980266565","1680796.0"
"1572980266718","1684319.0"
"1572980266718","1691776.0"
"1572980266718","1701063.0"
"1572980266879","1711802.0"
"1572980266879","1719468.0"
"1572980266879","1730086.0"
"1572980266911","1741116.0"
"1572980266954","1739767.0"
"1572980267001","1722967.0"
"1572980267048","1708403.0"
"1572980267094","1703714.0"
"1572980267148","1702493.0"
"1572980267195","1704435.0"
"1572980267248","1708237.0"
"1572980267291","1712241.0"
"1572980267335","1713690.0"
"1572980267388","1720882.0"
"1572980267437","1728381.0"
"1572980267486","1735576.0"
"1572980267535","1746826.0"
"1572980267580","1754556.0"
"1572980267626","1763638.0"
"1572980267678","1774023.0"
"1572980267729","1774884.0"
"1572980267777","1760123.0"
"1572980267821","1751466.0"
"1572980267868","1749942.0"
"1572980267919","1750781.0"
"1572980267966","1754372.0"
"1572980268015","1756310.0"
"1572980268066","1757208.0"
"1572980268109","1760077.0"
"1572980268167","1767903.0"
"1572980268206","1775496.0"
"1572980268262","1783600.0"
"1572980268310","1793397.0"
"1572980268358","1801524.0"
"1572980268408","1809926.0"
"1572980268453","1815399.0"
"1572980268501","1800827.0"
"1572980268548","1783696.0"
"1572980268597","1776863.0"
"1572980268649","1768671.0"
"1572980268696","1766684.0"
"1572980268746","1767409.0"
"1572980268790","1767850.0"
"1572980268844","1769344.0"
"1572980268889","1770680.0"
"1572980268939","1775093.0"
"1572980268988","1782328.0"
"1572980269037","1790839.0"
"1572980269082","1798272.0"
"1572980269128","1807392.0"
"1572980269182","1815218.0"
"1572980269231","1816376.0"
"1572980269278","1800269.0"
"1572980269328","1782540.0"
"1572980269374","1772698.0"
"1572980269426","1766873.0"
"1572980269470","1765881.0"
"1572980269520","1767060.0"
"1572980269570","1765566.0"
"1572980269618","1766078.0"
"1572980269667","1777468.0"
"1572980269796","1783714.0"
"1572980269798","1795480.0"
"1572980269824","1797471.0"
"1572980269945","1771302.0"
"1572980269945","1760249.0"
"1572980269975","1757771.0"
"1572980270014","1759591.0"
"1572980270049","1803562.0"
"1572980270101","1843258.0"
"1572980270150","1880454.0"
"1572980270200","1922385.0"
"1572980270251","1996915.0"
"1572980270296","2073961.0"
"1572980270346","2129174.0"
"1572980270392","2165288.0"
"1572980270443","2137626.0"
"1572980270491","2064989.0"
"1572980270535","2051130.0"
"1572980270585","2075660.0"
"1572980270636","2082970.0"
"1572980270687","2067065.0"
"1572980270732","2069506.0"
"1572980270777","2060241.0"
"1572980270830","2032201.0"
"1572980270880","2011562.0"
"1572980270922","2019474.0"
"1572980270971","2015707.0"
"1572980271025","2006408.0"
"1572980271072","2020035.0"
"1572980271121","2026776.0"
"1572980271170","2020451.0"
"1572980271217","2017007.0"
"1572980271268","2026721.0"
"1572980271312","2027264.0"
"1572980271364","2004382.0"
"1572980271413","1964911.0"
"1572980271461","1922696.0"
"1572980271509","1878070.0"
"1572980271556","1837043.0"
"1572980271604","1808944.0"
"1572980271653","1781426.0"
"1572980271704","1756873.0"
"1572980271751","1746444.0"
"1572980271801","1744906.0"
"1572980271848","1739969.0"
"1572980271892","1736185.0"
"1572980271946","1723101.0"
"1572980271992","1686554.0"
"1572980272043","1650275.0"
"1572980272087","1627578.0"
"1572980272134","1614693.0"
"1572980272189","1608582.0"
"1572980272233","1603551.0"
"1572980272285","1598980.0"
"1572980272332","1593167.0"
"1572980272383","1589542.0"
"1572980272430","1589581.0"
"1572980272475","1592880.0"
"1572980272529","1596732.0"
"1572980272577","1589660.0"
"1572980272709","1563351.0"
"1572980272709","1543029.0"
"1572980272763","1535737.0"
"1572980272875","1532828.0"
"1572980272875","1535047.0"
"1572980272875","1535827.0"
"1572980272933","1536599.0"
"1572980272966","1536950.0"
"1572980273012","1541501.0"
"1572980273062","1547759.0"
"1572980273111","1554996.0"
"1572980273155","1563304.0"
"1572980273204","1562554.0"
"1572980273256","1541922.0"
"1572980273305","1527970.0"
"1572980273352","1524349.0"
"1572980273402","1525692.0"
"1572980273450","1529506.0"
"1572980273494","1532178.0"
"1572980273548","1533360.0"
"1572980273591","1534874.0"
"1572980273644","1539644.0"
"1572980273691","1546636.0"
"1572980273737","1555206.0"
"1572980273789","1562851.0"
"1572980273835","1572815.0"
"1572980274046","1563166.0"
"1572980274046","1540738.0"
"1572980274046","1528068.0"
"1572980274046","1523260.0"
"1572980274088","1532222.0"
"1572980274189","1547194.0"
"1572980274189","1560072.0"
"1572980274226","1568709.0"
"1572980274275","1578721.0"
"1572980274324","1588581.0"
"1572980274371","1596288.0"
"1572980274414","1594999.0"
"1572980274469","1594424.0"
"1572980274517","1592167.0"
"1572980274567","1597118.0"
"1572980274613","1594223.0"
"1572980274664","1591673.0"
"1572980274711","1594786.0"
"1572980274760","1598805.0"
"1572980274808","1608301.0"
"1572980274855","1616463.0"
"1572980274906","1623271.0"
"1572980274953","1631500.0"
"1572980275002","1640289.0"
"1572980275050","1650141.0"
"1572980275191","1656769.0"
"1572980275235","1665556.0"
"1572980275348","1674016.0"
"1572980275348","1680749.0"
"1572980275348","1677712.0"
"1572980275399","1671994.0"
"1572980275440","1672100.0"
"1572980275487","1673774.0"
"1572980275534","1678405.0"
"1572980275582","1684805.0"
"1572980275632","1688464.0"
"1572980275677","1696089.0"
"1572980275729","1702196.0"
"1572980275777","1710396.0"
"1572980275827","1720263.0"
"1572980275873","1729424.0"
"1572980275922","1738605.0"
"1572980275970","1748528.0"
"1572980276018","1759201.0"
"1572980276068","1764581.0"
"1572980276116","1759577.0"
"1572980276166","1755371.0"
"1572980276213","1758592.0"
"1572980276257","1762996.0"
"1572980276311","1769459.0"
"1572980276360","1772946.0"
"1572980276408","1776713.0"
"1572980276455","1780333.0"
"1572980276503","1786174.0"
"1572980276552","1792975.0"
"1572980276599","1801498.0"
"1572980276650","1809651.0"
"1572980276697","1817890.0"
"1572980276743","1826488.0"
"1572980276795","1836208.0"
"1572980276845","1842828.0"
"1572980276891","1836422.0"
"1572980276944","1822791.0"
"1572980276989","1811569.0"
"1572980277207","1806522.0"
"1572980277208","1801402.0"
"1572980277210","1797597.0"
"1572980277210","1785319.0"
"1572980277247","1771747.0"
"1572980277335","1767489.0"
"1572980277335","1771763.0"
"1572980277377","1777548.0"
"1572980277427","1783419.0"
"1572980277469","1788897.0"
"1572980277520","1792144.0"
"1572980277571","1796742.0"
"1572980277619","1798629.0"
"1572980277668","1786691.0"
"1572980277716","1768773.0"
"1572980277760","1760723.0"
"1572980277813","1755983.0"
"1572980277862","1754707.0"
"1572980277910","1753803.0"
"1572980277959","1748114.0"
"1572980278002","1743071.0"
"1572980278055","1741998.0"
"1572980278107","1742976.0"
"1572980278147","1745564.0"
"1572980278200","1748992.0"
"1572980278355","1751897.0"
"1572980278355","1754780.0"
"1572980278355","1741726.0"
"1572980278518","1718034.0"
"1572980278518","1703480.0"
"1572980278518","1696735.0"
"1572980278549","1695341.0"
"1572980278586","1695301.0"
"1572980278637","1692105.0"
"1572980278682","1688974.0"
"1572980278730","1688689.0"
"1572980278779","1691093.0"
"1572980278832","1693907.0"
"1572980278878","1698253.0"
"1572980278924","1702883.0"
"1572980278976","1708107.0"
"1572980279027","1698994.0"
"1572980279073","1667285.0"
"1572980279121","1645279.0"
"1572980279170","1634809.0"
"1572980279218","1625372.0"
"1572980279267","1625502.0"
"1572980279315","1618862.0"
"1572980279362","1615784.0"
"1572980279412","1611300.0"
"1572980279460","1603687.0"
"1572980279507","1604685.0"
"1572980279556","1609894.0"
"1572980279605","1613305.0"
"1572980279654","1620573.0"
"1572980279703","1622515.0"
"1572980279747","1603002.0"
"1572980279800","1582021.0"
"1572980279935","1575612.0"
"1572980279936","1575578.0"
"1572980279964","1582327.0"
"1572980280096","1589684.0"
"1572980280097","1595133.0"
"1572980280099","1600969.0"
"1572980280154","1610561.0"
"1572980280184","1621361.0"
"1572980280231","1632142.0"
"1572980280286","1638849.0"
"1572980280330","1642567.0"
"1572980280379","1632684.0"
"1572980280427","1624978.0"
"1572980280474","1620888.0"
"1572980280524","1625734.0"
"1572980280572","1630352.0"
"1572980280627","1627152.0"
"1572980280672","1629872.0"
"1572980280723","1637335.0"
"1572980280764","1644273.0"
"1572980280819","1653274.0"
"1572980280867","1660283.0"
"1572980280915","1665867.0"
"1572980280965","1673207.0"
"1572980281012","1676564.0"
"1572980281062","1680627.0"
"1572980281108","1676214.0"
"1572980281153","1657264.0"
"1572980281209","1648022.0"
"1572980281255","1648761.0"
"1572980281305","1651799.0"
"1572980281352","1656659.0"
"1572980281400","1661236.0"
"1572980281445","1662142.0"
"1572980281497","1662990.0"
"1572980281547","1664424.0"
"1572980281589","1667955.0"
"1572980281644","1672901.0"
"1572980281691","1681282.0"
"1572980281739","1689100.0"
"1572980281784","1690605.0"
"1572980281836","1678514.0"
"1572980281886","1664713.0"
"1572980281933","1661805.0"
"1572980281983","1662116.0"
"1572980282028","1665942.0"
"1572980282080","1670020.0"
"1572980282248","1669993.0"
"1572980282250","1669382.0"
"1572980282252","1672204.0"
"1572980282285","1677616.0"
"1572980282403","1681895.0"
"1572980282403","1688551.0"
"1572980282426","1698785.0"
"1572980282468","1708308.0"
"1572980282516","1715634.0"
"1572980282565","1711500.0"
"1572980282608","1704986.0"
"1572980282662","1703480.0"
"1572980282705","1704474.0"
"1572980282752","1709750.0"
"1572980282807","1714403.0"
"1572980282854","1715791.0"
"1572980282904","1715921.0"
"1572980282952","1719021.0"
"1572980283001","1723857.0"
"1572980283045","1728633.0"
"1572980283093","1735040.0"
"1572980283147","1740147.0"
"1572980283194","1748193.0"
"1572980283241","1752259.0"
"1572980283285","1748219.0"
"1572980283335","1739599.0"
"1572980283386","1735064.0"
"1572980283436","1735098.0"
"1572980283485","1736769.0"
"1572980283531","1739300.0"
"1572980283580","1742104.0"
"1572980283629","1742854.0"
"1572980283679","1747362.0"
"1572980283728","1751054.0"
"1572980283776","1755282.0"
"1572980283819","1762354.0"
"1572980283871","1767970.0"
"1572980283922","1773903.0"
"1572980283967","1782371.0"
"1572980284017","1785780.0"
"1572980284064","1775065.0"
"1572980284114","1765144.0"
"1572980284159","1758801.0"
"1572980284207","1756273.0"
"1572980284261","1757121.0"
"1572980284309","1757708.0"
"1572980284357","1759589.0"
"1572980284404","1759439.0"
"1572980284449","1762027.0"
"1572980284503","1764469.0"
"1572980284549","1769632.0"
"1572980284594","1774459.0"
"1572980284648","1779112.0"
"1572980284695","1785090.0"
"1572980284745","1788340.0"
"1572980284786","1795252.0"
"1572980284841","1795088.0"
"1572980284888","1783251.0"
"1572980284938","1769364.0"
"1572980284987","1761401.0"
"1572980285027","1758689.0"
"1572980285079","1757106.0"
"1572980285128","1756353.0"
"1572980285175","1756168.0"
"1572980285224","1754469.0"
"1572980285273","1757433.0"
"1572980285321","1759658.0"
"1572980285370","1763730.0"
"1572980285418","1768301.0"
"1572980285466","1773403.0"
"1572980285525","1777391.0"
"1572980285568","1781566.0"
"1572980285616","1785256.0"
"1572980285665","1791863.0"
"1572980285708","1796154.0"
"1572980285756","1801746.0"
"1572980285809","1805429.0"
"1572980285851","1812421.0"
"1572980285903","1812768.0"
"1572980285950","1795986.0"
"1572980286000","1779447.0"
"1572980286048","1770739.0"
"1572980286096","1765904.0"
"1572980286148","1767326.0"
"1572980286197","1764766.0"
"1572980286246","1762757.0"
"1572980286288","1761038.0"
"1572980286344","1761645.0"
"1572980286391","1765814.0"
"1572980286440","1769002.0"
"1572980286488","1774929.0"
"1572980286534","1780215.0"
"1572980286583","1785197.0"
"1572980286630","1791162.0"
"1572980286683","1797237.0"
"1572980286731","1802719.0"
"1572980286775","1807979.0"
"1572980286827","1813394.0"
"1572980286874","1818441.0"
"1572980286925","1815852.0"
"1572980286971","1799098.0"
"1572980287021","1784901.0"
"1572980287069","1779297.0"
"1572980287117","1777015.0"
"1572980287163","1776926.0"
"1572980287211","1778009.0"
"1572980287264","1776280.0"
"1572980287311","1774459.0"
"1572980287361","1777208.0"
"1572980287410","1779586.0"
"1572980287455","1783302.0"
"1572980287506","1788139.0"
"1572980287555","1792199.0"
"1572980287599","1797144.0"
"1572980287651","1802022.0"
"1572980287699","1806652.0"
"1572980287747","1812341.0"
"1572980287790","1816687.0"
"1572980287844","1823059.0"
"1572980287892","1815856.0"
"1572980287938","1799133.0"
"1572980287990","1789945.0"
"1572980288039","1786469.0"
"1572980288084","1783948.0"
"1572980288131","1785760.0"
"1572980288186","1782375.0"
"1572980288231","1781032.0"
"1572980288280","1779746.0"
"1572980288330","1780898.0"
"1572980288373","1782741.0"
"1572980288426","1786691.0"
"1572980288473","1791146.0"
"1572980288523","1794417.0"
"1572980288569","1800009.0"
"1572980288620","1802412.0"
"1572980288668","1797782.0"
"1572980288713","1785709.0"
"1572980288760","1775811.0"
"1572980288812","1773696.0"
"1572980288855","1774297.0"
"1572980288909","1776855.0"
"1572980288954","1776058.0"
"1572980289007","1774557.0"
"1572980289053","1777078.0"
"1572980289101","1778222.0"
"1572980289152","1781130.0"
"1572980289201","1784716.0"
"1572980289249","1789165.0"
"1572980289293","1792912.0"
"1572980289347","1799511.0"
"1572980289390","1797798.0"
"1572980289444","1785165.0"
"1572980289490","1775055.0"
"1572980289540","1770979.0"
"1572980289585","1768147.0"
"1572980289633","1768612.0"
"1572980289684","1768864.0"
"1572980289732","1767304.0"
"1572980289783","1767330.0"
"1572980289829","1768604.0"
"1572980289873","1770857.0"
"1572980289928","1775311.0"
"1572980289974","1779490.0"
"1572980290023","1785232.0"
"1572980290071","1789271.0"
"1572980290121","1793759.0"
"1572980290165","1782359.0"
"1572980290214","1770128.0"
"1572980290266","1762681.0"
"1572980290314","1758693.0"
"1572980290364","1757177.0"
"1572980290410","1758575.0"
"1572980290454","1755450.0"
"1572980290508","1754666.0"
"1572980290556","1755241.0"
"1572980290601","1757326.0"
"1572980290653","1762007.0"
"1572980290701","1765388.0"
"1572980290750","1769498.0"
"1572980290798","1775223.0"
"1572980290847","1778994.0"
"1572980290888","1785189.0"
"1572980290939","1788566.0"
"1572980290988","1783738.0"
"1572980291035","1768450.0"
"1572980291085","1758236.0"
"1572980291135","1751982.0"
"1572980291187","1751901.0"
"1572980291233","1751486.0"
"1572980291285","1748016.0"
"1572980291333","1746939.0"
"1572980291380","1746423.0"
"1572980291428","1749233.0"
"1572980291478","1751617.0"
"1572980291526","1754028.0"
"1572980291570","1759104.0"
"1572980291624","1761834.0"
"1572980291671","1766326.0"
"1572980291716","1769443.0"
"1572980291763","1774992.0"
"1572980291816","1771280.0"
"1572980291866","1755324.0"
"1572980291913","1742023.0"
"1572980291961","1735732.0"
"1572980292010","1730464.0"
"1572980292060","1726951.0"
"1572980292104","1723773.0"
"1572980292155","1717871.0"
"1572980292206","1718442.0"
"1572980292250","1720681.0"
"1572980292296","1723454.0"
"1572980292350","1726193.0"
"1572980292397","1729019.0"
"1572980292446","1732628.0"
"1572980292493","1736663.0"
"1572980292543","1738701.0"
"1572980292587","1743160.0"
"1572980292638","1747581.0"
"1572980292688","1746104.0"
"1572980292736","1730950.0"
"1572980292785","1718361.0"
"1572980292833","1714352.0"
"1572980292876","1712363.0"
"1572980292929","1713676.0"
"1572980292979","1713164.0"
"1572980293027","1711205.0"
"1572980293071","1710262.0"
"1572980293125","1711945.0"
"1572980293167","1716738.0"
"1572980293219","1721827.0"
"1572980293268","1727471.0"
"1572980293319","1732091.0"
"1572980293366","1738563.0"
"1572980293414","1743542.0"
"1572980293457","1748532.0"
"1572980293505","1754654.0"
"1572980293560","1748866.0"
"1572980293604","1736252.0"
"1572980293657","1728633.0"
"1572980293706","1724263.0"
"1572980293753","1723956.0"
"1572980293799","1724669.0"
"1572980293850","1724149.0"
"1572980293898","1722569.0"
"1572980293943","1724184.0"
"1572980293995","1727380.0"
"1572980294042","1732266.0"
"1572980294088","1737518.0"
"1572980294141","1741293.0"
"1572980294189","1746919.0"
"1572980294238","1753500.0"
"1572980294286","1757771.0"
"1572980294335","1758805.0"
"1572980294377","1746805.0"
"1572980294431","1735669.0"
"1572980294476","1731746.0"
"1572980294529","1731222.0"
"1572980294575","1732933.0"
"1572980294624","1734523.0"
"1572980294674","1734267.0"
"1572980294720","1734552.0"
"1572980294766","1736289.0"
"1572980294819","1741860.0"
"1572980294868","1746781.0"
"1572980294915","1751196.0"
"1572980294961","1755038.0"
"1572980295012","1758563.0"
"1572980295062","1765636.0"
"1572980295109","1769998.0"
"1572980295159","1776485.0"
"1572980295205","1771440.0"
"1572980295254","1759120.0"
"1572980295301","1752771.0"
"1572980295352","1750458.0"
"1572980295400","1749414.0"
"1572980295447","1749816.0"
"1572980295497","1750680.0"
"1572980295545","1751003.0"
"1572980295589","1752275.0"
"1572980295643","1754402.0"
"1572980295691","1759997.0"
"1572980295734","1764136.0"
"1572980295787","1769778.0"
"1572980295835","1777273.0"
"1572980295882","1782229.0"
"1572980295933","1788160.0"
"1572980295982","1794456.0"
"1572980296024","1801683.0"
"1572980296074","1802420.0"
"1572980296123","1794267.0"
"1572980296170","1785764.0"
"1572980296222","1785441.0"
"1572980296272","1784041.0"
"1572980296320","1785400.0"
"1572980296364","1782304.0"
"1572980296417","1766607.0"
"1572980296465","1747523.0"
"1572980296514","1737049.0"
"1572980296563","1732463.0"
"1572980296610","1738784.0"
"1572980296656","1749678.0"
"1572980296703","1763315.0"
"1572980296921","1770463.0"
"1572980296921","1777182.0"
"1572980296921","1787085.0"
"1572980296921","1778432.0"
"1572980296954","1770077.0"
"1572980297017","1769435.0"
"1572980297049","1772119.0"
"1572980297090","1776784.0"
"1572980297145","1780886.0"
"1572980297191","1783424.0"
"1572980297241","1784070.0"
"1572980297288","1783814.0"
"1572980297332","1785094.0"
"1572980297387","1785870.0"
"1572980297430","1784435.0"
"1572980297477","1787656.0"
"1572980297528","1793176.0"
"1572980297579","1802085.0"
"1572980297624","1795823.0"
"1572980297761","1784066.0"
"1572980297761","1777036.0"
"1572980297783","1776792.0"
"1572980297935","1776619.0"
"1572980297935","1778566.0"
"1572980297935","1778625.0"
"1572980297989","1779821.0"
"1572980298015","1781091.0"
"1572980298066","1784259.0"
"1572980298108","1790173.0"
"1572980298162","1793789.0"
"1572980298203","1798985.0"
"1572980298257","1805143.0"
"1572980298307","1812043.0"
"1572980298435","1809158.0"
"1572980298435","1793298.0"
"1572980298458","1783458.0"
"1572980298585","1778633.0"
"1572980298585","1776952.0"
"1572980298604","1775144.0"
"1572980298645","1773249.0"
"1572980298693","1771540.0"
"1572980298742","1772292.0"
"1572980298791","1775319.0"
"1572980298839","1779401.0"
"1572980298888","1781465.0"
"1572980298935","1788058.0"
"1572980298985","1792404.0"
"1572980299028","1796843.0"
"1572980299079","1788570.0"
"1572980299127","1772615.0"
"1572980299177","1762342.0"
"1572980299227","1757314.0"
"1572980299274","1756613.0"
"1572980299324","1757192.0"
"1572980299454","1758080.0"
"1572980299454","1756407.0"
"1572980299484","1758386.0"
"1572980299627","1761503.0"
"1572980299627","1767450.0"
"1572980299627","1772539.0"
"1572980299679","1777659.0"
"1572980299704","1783671.0"
"1572980299759","1789066.0"
"1572980299808","1785404.0"
"1572980299856","1770739.0"
"1572980299905","1760349.0"
"1572980299950","1755794.0"
"1572980300003","1753543.0"
"1572980300046","1755497.0"
"1572980300094","1756029.0"
"1572980300148","1756629.0"
"1572980300194","1756956.0"
"1572980300244","1758537.0"
"1572980300285","1764443.0"
"1572980300340","1770626.0"
"1572980300387","1776193.0"
"1572980300436","1782517.0"
"1572980300486","1787091.0"
"1572980300532","1793160.0"
"1572980300580","1800311.0"
"1572980300627","1800840.0"
"1572980300679","1787552.0"
"1572980300728","1776800.0"
"1572980300771","1772698.0"
"1572980300825","1770831.0"
"1572980300871","1772785.0"
"1572980300922","1775114.0"
"1572980300967","1775203.0"
"1572980301018","1776808.0"
"1572980301064","1778911.0"
"1572980301115","1784527.0"
"1572980301165","1790466.0"
"1572980301207","1796175.0"
"1572980301261","1801100.0"
"1572980301310","1806782.0"
"1572980301359","1812187.0"
"1572980301406","1817898.0"
"1572980301449","1824018.0"
"1572980301503","1831074.0"
"1572980301548","1831456.0"
"1572980301595","1819274.0"
"1572980301649","1812433.0"
"1572980301696","1809875.0"
"1572980301744","1809690.0"
"1572980301787","1811833.0"
"1572980301842","1812861.0"
"1572980301885","1812736.0"
"1572980301937","1814481.0"
"1572980301988","1817118.0"
"1572980302031","1821289.0"
"1572980302080","1826771.0"
"1572980302128","1832001.0"
"1572980302175","1837555.0"
"1572980302229","1844124.0"
"1572980302276","1849313.0"
"1572980302325","1854270.0"
"1572980302369","1858712.0"
"1572980302423","1866422.0"
"1572980302469","1871132.0"
"1572980302517","1863586.0"
"1572980302567","1854807.0"
"1572980302615","1848653.0"
"1572980302666","1843943.0"
"1572980302730","1843246.0"
"1572980302756","1838309.0"
"1572980302810","1839294.0"
"1572980302858","1834384.0"
"1572980302906","1832269.0"
"1572980302955","1835255.0"
"1572980303004","1839116.0"
"1572980303051","1843065.0"
"1572980303095","1845658.0"
"1572980303148","1846934.0"
"1572980303197","1849333.0"
"1572980303246","1852383.0"
"1572980303291","1858159.0"
"1572980303338","1864141.0"
"1572980303389","1869249.0"
"1572980303438","1862428.0"
"1572980303488","1856241.0"
"1572980303532","1853872.0"
"1572980303582","1853960.0"
"1572980303631","1854782.0"
"1572980303681","1855591.0"
"1572980303729","1854774.0"
"1572980303773","1854559.0"
"1572980303826","1855362.0"
"1572980303871","1857048.0"
"1572980303923","1860445.0"
"1572980303970","1863834.0"
"1572980304020","1867601.0"
"1572980304069","1870138.0"
"1572980304116","1873306.0"
"1572980304166","1868562.0"
"1572980304211","1856459.0"
"1572980304262","1847206.0"
"1572980304311","1842429.0"
"1572980304361","1841241.0"
"1572980304408","1842675.0"
"1572980304450","1839483.0"
"1572980304504","1836879.0"
"1572980304553","1836326.0"
"1572980304598","1837488.0"
"1572980304650","1838730.0"
"1572980304699","1840650.0"
"1572980304745","1842927.0"
"1572980304792","1848230.0"
"1572980304845","1850105.0"
"1572980304891","1853041.0"
"1572980304940","1839857.0"
"1572980304988","1821750.0"
"1572980305031","1810911.0"
"1572980305082","1804350.0"
"1572980305133","1801025.0"
"1572980305182","1800986.0"
"1572980305231","1796260.0"
"1572980305279","1791372.0"
"1572980305328","1789850.0"
"1572980305373","1789175.0"
"1572980305424","1791477.0"
"1572980305471","1794043.0"
"1572980305521","1796841.0"
"1572980305568","1798554.0"
"1572980305612","1803739.0"
"1572980305666","1797967.0"
"1572980305715","1777391.0"
"1572980305766","1761097.0"
"1572980305810","1750950.0"
"1572980305860","1747547.0"
"1572980305909","1744646.0"
"1572980305954","1741704.0"
"1572980306002","1734641.0"
"1572980306052","1728987.0"
"1572980306098","1725787.0"
"1572980306150","1725988.0"
"1572980306198","1726973.0"
"1572980306400","1730265.0"
"1572980306400","1732447.0"
"1572980306400","1728952.0"
"1572980306401","1723869.0"
"1572980306485","1702670.0"
"1572980306502","1682007.0"
"1572980306534","1674020.0"
"1572980306582","1674134.0"
"1572980306634","1675178.0"
"1572980306685","1673748.0"
"1572980306731","1667128.0"
"1572980306774","1664046.0"
"1572980306829","1661161.0"
"1572980306875","1655645.0"
"1572980306926","1654005.0"
"1572980306973","1653942.0"
"1572980307023","1659331.0"
"1572980307070","1663246.0"
"1572980307115","1645628.0"
"1572980307168","1624177.0"
"1572980307219","1613326.0"
"1572980307265","1610493.0"
"1572980307313","1609516.0"
"1572980307362","1609386.0"
"1572980307410","1604790.0"
"1572980307456","1607558.0"
"1572980307507","1612381.0"
"1572980307554","1617940.0"
"1572980307601","1624801.0"
"1572980307652","1630561.0"
"1572980307697","1632948.0"
"1572980307749","1636920.0"
"1572980307799","1622905.0"
"1572980307844","1608569.0"
"1572980307894","1602592.0"
"1572980308067","1601347.0"
"1572980308068","1602415.0"
"1572980308068","1604252.0"
"1572980308097","1605863.0"
"1572980308223","1607923.0"
"1572980308224","1612948.0"
"1572980308244","1621664.0"
"1572980308283","1629072.0"
"1572980308329","1637038.0"
"1572980308377","1645884.0"
"1572980308428","1648182.0"
"1572980308473","1643198.0"
"1572980308527","1642512.0"
"1572980308572","1648446.0"
"1572980308616","1651512.0"
"1572980308668","1653489.0"
"1572980308717","1652356.0"
"1572980308766","1651413.0"
"1572980308814","1655448.0"
"1572980308863","1661868.0"
"1572980308911","1669638.0"
"1572980308957","1679366.0"
"1572980309007","1693019.0"
"1572980309052","1702528.0"
"1572980309101","1698421.0"
"1572980309151","1693206.0"
"1572980309197","1694256.0"
"1572980309250","1696530.0"
"1572980309299","1701987.0"
"1572980309346","1704704.0"
"1572980309394","1707162.0"
"1572980309444","1709541.0"
"1572980309491","1714352.0"
"1572980309538","1718164.0"
"1572980309585","1719218.0"
"1572980309637","1722049.0"
"1572980309686","1730228.0"
"1572980309733","1732482.0"
"1572980309776","1724917.0"
"1572980309829","1723361.0"
"1572980309878","1725468.0"
"1572980310031","1727006.0"
"1572980310035","1729972.0"
"1572980310035","1736131.0"
"1572980310098","1741096.0"
"1572980310121","1743693.0"
"1572980310165","1747815.0"
"1572980310213","1754335.0"
"1572980310262","1760052.0"
"1572980310309","1766093.0"
"1572980310359","1770518.0"
"1572980310407","1777261.0"
"1572980310455","1782987.0"
"1572980310504","1777753.0"
"1572980310552","1771617.0"
"1572980310602","1768903.0"
"1572980310648","1769289.0"
"1572980310700","1769868.0"
"1572980310745","1770928.0"
"1572980310794","1771591.0"
"1572980310842","1771934.0"
"1572980310891","1773198.0"
"1572980310942","1777757.0"
"1572980310987","1782623.0"
"1572980311036","1786682.0"
"1572980311085","1790311.0"
"1572980311131","1796825.0"
"1572980311184","1800478.0"
"1572980311230","1801171.0"
"1572980311283","1792652.0"
"1572980311335","1786461.0"
"1572980311376","1783982.0"
"1572980311425","1781436.0"
"1572980311473","1781418.0"
"1572980311524","1782714.0"
"1572980311569","1780780.0"
"1572980311621","1780920.0"
"1572980311664","1782930.0"
"1572980311715","1786603.0"
"1572980311764","1789358.0"
"1572980311811","1793664.0"
"1572980311863","1798349.0"
"1572980311908","1803235.0"
"1572980311958","1803977.0"
"1572980312005","1808302.0"
"1572980312054","1813365.0"
"1572980312104","1814343.0"
"1572980312150","1801317.0"
"1572980312208","1791398.0"
"1572980312247","1786363.0"
"1572980312295","1780211.0"
"1572980312345","1779120.0"
"1572980312391","1777560.0"
"1572980312442","1775227.0"
"1572980312487","1773234.0"
"1572980312539","1772665.0"
"1572980312586","1774795.0"
"1572980312639","1777019.0"
"1572980312683","1779006.0"
"1572980312730","1783194.0"
"1572980312780","1786729.0"
"1572980312833","1788281.0"
"1572980312881","1790843.0"
"1572980312924","1795671.0"
"1572980312973","1792597.0"
"1572980313028","1776477.0"
"1572980313075","1765018.0"
"1572980313124","1760702.0"
"1572980313166","1759264.0"
"1572980313215","1758549.0"
"1572980313264","1756357.0"
"1572980313315","1753677.0"
"1572980313367","1752047.0"
"1572980313414","1751281.0"
"1572980313464","1749721.0"
"1572980313507","1746096.0"
"1572980313554","1730883.0"
"1572980313609","1720929.0"
"1572980313656","1720153.0"
"1572980313708","1722599.0"
"1572980313748","1718206.0"
"1572980313797","1707394.0"
"1572980313849","1699766.0"
"1572980313899","1701554.0"
"1572980313945","1700687.0"
"1572980313993","1699313.0"
"1572980314042","1694650.0"
"1572980314086","1687834.0"
"1572980314143","1688240.0"
"1572980314190","1693316.0"
"1572980314239","1698669.0"
"1572980314289","1707792.0"
"1572980314330","1716945.0"
"1572980314384","1727376.0"
"1572980314432","1735472.0"
"1572980314475","1743865.0"
"1572980314525","1734322.0"
"1572980314571","1722359.0"
"1572980314623","1716555.0"
"1572980314668","1716154.0"
"1572980314719","1718148.0"
"1572980314765","1718781.0"
"1572980314814","1719208.0"
"1572980314863","1717623.0"
"1572980314910","1720555.0"
"1572980314962","1726809.0"
"1572980315010","1730145.0"
"1572980315060","1735919.0"
"1572980315106","1740938.0"
"1572980315154","1745576.0"
"1572980315209","1750097.0"
"1572980315255","1746218.0"
"1572980315304","1733906.0"
"1572980315348","1726831.0"
"1572980315397","1724913.0"
"1572980315450","1725145.0"
"1572980315498","1726130.0"
"1572980315548","1729212.0"
"1572980315590","1731750.0"
"1572980315643","1734259.0"
"1572980315685","1740375.0"
"1572980315741","1745135.0"
"1572980315784","1749544.0"
"1572980315887","1756334.0"
"1572980315887","1759674.0"
"1572980316042","1757330.0"
"1572980316042","1744359.0"
"1572980316044","1734666.0"
"1572980316105","1733991.0"
"1572980316146","1736525.0"
"1572980316171","1741565.0"
"1572980316219","1745349.0"
"1572980316273","1747305.0"
"1572980316322","1749993.0"
"1572980316370","1752913.0"
"1572980316417","1757314.0"
"1572980316463","1762438.0"
"1572980316508","1766930.0"
"1572980316566","1770865.0"
"1572980316607","1773714.0"
"1572980316661","1764792.0"
"1572980316707","1752636.0"
"1572980316751","1749666.0"
"1572980316804","1748957.0"
"1572980316854","1752169.0"
"1572980316903","1753453.0"
"1572980316946","1757338.0"
"1572980316994","1760223.0"
"1572980317195","1764545.0"
"1572980317195","1767866.0"
"1572980317195","1772535.0"
"1572980317195","1777182.0"
"1572980317327","1784187.0"
"1572980317327","1791490.0"
"1572980317353","1785075.0"
"1572980317398","1778021.0"
"1572980317430","1772623.0"
"1572980317480","1774876.0"
"1572980317527","1777115.0"
"1572980317573","1778566.0"
"1572980317627","1777477.0"
"1572980317677","1777978.0"
"1572980317727","1780130.0"
"1572980317769","1783478.0"
"1572980317818","1785327.0"
"1572980317866","1788353.0"
"1572980317918","1791351.0"
"1572980317963","1794820.0"
"1572980318015","1786973.0"
"1572980318236","1779061.0"
"1572980318236","1774364.0"
"1572980318236","1775270.0"
"1572980318236","1778005.0"
"1572980318268","1778021.0"
"1572980318367","1778316.0"
"1572980318367","1780366.0"
"1572980318401","1782477.0"
"1572980318448","1784435.0"
"1572980318501","1790663.0"
"1572980318544","1794690.0"
"1572980318592","1799799.0"
"1572980318642","1800202.0"
"1572980318690","1789188.0"
"1572980318844","1780551.0"
"1572980318845","1774963.0"
"1572980318846","1773533.0"
"1572980318884","1773285.0"
"1572980319041","1774116.0"
"1572980319042","1773100.0"
"1572980319042","1774854.0"
"1572980319092","1777028.0"
"1572980319130","1779909.0"
"1572980319173","1782434.0"
"1572980319223","1785689.0"
"1572980319277","1793160.0"
"1572980319327","1791158.0"
"1572980319374","1777745.0"
"1572980319416","1765827.0"
"1572980319464","1759863.0"
"1572980319516","1757397.0"
"1572980319567","1757505.0"
"1572980319616","1758848.0"
"1572980319661","1757555.0"
"1572980319704","1758193.0"
"1572980319753","1758890.0"
"1572980319801","1763777.0"
"1572980319852","1766658.0"
"1572980319898","1771357.0"
"1572980319950","1777887.0"
"1572980319997","1781150.0"
"1572980320045","1768710.0"
"1572980320093","1754079.0"
"1572980320143","1747313.0"
"1572980320190","1744713.0"
"1572980320240","1746113.0"
"1572980320286","1744954.0"
"1572980320336","1745308.0"
"1572980320385","1744855.0"
"1572980320433","1743784.0"
"1572980320481","1746704.0"
"1572980320530","1750844.0"
"1572980320579","1755270.0"
"1572980320626","1758923.0"
"1572980320675","1772220.0"
"1572980320724","1767970.0"
"1572980320773","1748089.0"
"1572980320821","1733319.0"
"1572980320868","1726894.0"
"1572980320918","1722993.0"
"1572980320966","1722392.0"
"1572980321014","1721693.0"
"1572980321063","1719141.0"
"1572980321113","1720508.0"
"1572980321161","1721650.0"
"1572980321207","1724877.0"
"1572980321256","1729952.0"
"1572980321306","1735249.0"
"1572980321354","1739871.0"
"1572980321403","1742484.0"
"1572980321452","1729812.0"
"1572980321498","1716646.0"
"1572980321546","1708739.0"
"1572980321596","1706865.0"
"1572980321644","1707036.0"
"1572980321692","1710073.0"
"1572980321740","1709947.0"
"1572980321788","1710437.0"
"1572980321841","1713379.0"
"1572980321889","1718139.0"
"1572980321934","1722989.0"
"1572980321987","1728060.0"
"1572980322033","1732289.0"
"1572980322080","1739213.0"
"1572980322132","1742346.0"
"1572980322181","1732557.0"
"1572980322229","1721402.0"
"1572980322273","1718044.0"
"1572980322325","1719661.0"
"1572980322374","1722309.0"
"1572980322423","1724893.0"
"1572980322470","1725590.0"
"1572980322517","1729444.0"
"1572980322567","1732282.0"
"1572980322617","1736226.0"
"1572980322664","1742224.0"
"1572980322712","1747523.0"
"1572980322761","1754130.0"
"1572980322810","1760365.0"
"1572980322853","1755223.0"
"1572980322907","1744241.0"
"1572980322954","1738835.0"
"1572980323000","1738130.0"
"1572980323051","1741624.0"
"1572980323095","1744863.0"
"1572980323149","1748181.0"
"1572980323194","1749772.0"
"1572980323246","1754331.0"
"1572980323293","1759540.0"
"1572980323343","1764317.0"
"1572980323391","1769368.0"
"1572980323438","1776544.0"
"1572980323488","1781772.0"
"1572980323536","1784439.0"
"1572980323581","1773923.0"
"1572980323633","1766176.0"
"1572980323682","1764762.0"
"1572980323730","1764892.0"
"1572980323778","1766306.0"
"1572980323828","1770002.0"
"1572980323874","1771721.0"
"1572980323924","1774372.0"
"1572980323971","1778080.0"
"1572980324021","1781394.0"
"1572980324068","1787282.0"
"1572980324118","1792589.0"
"1572980324165","1798109.0"
"1572980324214","1804694.0"
"1572980324263","1806825.0"
"1572980324311","1796343.0"
"1572980324355","1789602.0"
"1572980324403","1784157.0"
"1572980324455","1780274.0"
"1572980324505","1780093.0"
"1572980324552","1777844.0"
"1572980324598","1774888.0"
"1572980324818","1773990.0"
"1572980324818","1777978.0"
"1572980324818","1780140.0"
"1572980324818","1785717.0"
"1572980324848","1789724.0"
"1572980324920","1795031.0"
"1572980324935","1798420.0"
"1572980324985","1789854.0"
"1572980325031","1776816.0"
"1572980325082","1768769.0"
"1572980325130","1766897.0"
"1572980325180","1765766.0"
"1572980325226","1766440.0"
"1572980325276","1764805.0"
"1572980325324","1763575.0"
"1572980325372","1762535.0"
"1572980325423","1764514.0"
"1572980325473","1766188.0"
"1572980325518","1769671.0"
"1572980325656","1771201.0"
"1572980325657","1773943.0"
"1572980325674","1762393.0"
"1572980325831","1745611.0"
"1572980325832","1730848.0"
"1572980325832","1717040.0"
"1572980325885","1700358.0"
"1572980325909","1684177.0"
"1572980325957","1677267.0"
"1572980326006","1680083.0"
"1572980326050","1686916.0"
"1572980326098","1697019.0"
"1572980326150","1704269.0"
"1572980326199","1704892.0"
"1572980326248","1707946.0"
"1572980326295","1708210.0"
"1572980326345","1703667.0"
"1572980326393","1678594.0"
"1572980326439","1659101.0"
"1572980326489","1650988.0"
"1572980326539","1652079.0"
"1572980326583","1659558.0"
"1572980326634","1665783.0"
"1572980326680","1665405.0"
"1572980326725","1664499.0"
"1572980326780","1665460.0"
"1572980326829","1668697.0"
"1572980326877","1676617.0"
"1572980326928","1685770.0"
"1572980326974","1696193.0"
"1572980327125","1702414.0"
"1572980327125","1689474.0"
"1572980327126","1674873.0"
"1572980327271","1668144.0"
"1572980327271","1668664.0"
"1572980327271","1672448.0"
"1572980327320","1674548.0"
"1572980327360","1675489.0"
"1572980327406","1677535.0"
"1572980327458","1682259.0"
"1572980327508","1687157.0"
"1572980327555","1691723.0"
"1572980327602","1698098.0"
"1572980327743","1705506.0"
"1572980327743","1708088.0"
"1572980327762","1694659.0"
"1572980327915","1677251.0"
"1572980327915","1669512.0"
"1572980327915","1667527.0"
"1572980327970","1669310.0"
"1572980327991","1671521.0"
"1572980328040","1674071.0"
"1572980328085","1674646.0"
"1572980328138","1678279.0"
"1572980328182","1682972.0"
"1572980328233","1689114.0"
"1572980328281","1696995.0"
"1572980328330","1703257.0"
"1572980328380","1703982.0"
"1572980328427","1689352.0"
"1572980328471","1680146.0"
"1572980328522","1677732.0"
"1572980328572","1678980.0"
"1572980328621","1684189.0"
"1572980328670","1686889.0"
"1572980328717","1689248.0"
"1572980328763","1692724.0"
"1572980328814","1698269.0"
"1572980328865","1704005.0"
"1572980328910","1713690.0"
"1572980328960","1721155.0"
"1572980329009","1727993.0"
"1572980329056","1729298.0"
"1572980329104","1720263.0"
"1572980329153","1716197.0"
"1572980329202","1714671.0"
"1572980329249","1718948.0"
"1572980329298","1723979.0"
"1572980329344","1727518.0"
"1572980329396","1730614.0"
"1572980329445","1733768.0"
"1572980329492","1738849.0"
"1572980329540","1745442.0"
"1572980329586","1753173.0"
"1572980329638","1759967.0"
"1572980329684","1767391.0"
"1572980329734","1766621.0"
"1572980329783","1761294.0"
"1572980329831","1759095.0"
"1572980329874","1757945.0"
"1572980329925","1762677.0"
"1572980329972","1768773.0"
"1572980330025","1772090.0"
"1572980330073","1776528.0"
"1572980330123","1780130.0"
"1572980330169","1785831.0"
"1572980330220","1792199.0"
"1572980330263","1798940.0"
"1572980330316","1806376.0"
"1572980330366","1812866.0"
"1572980330413","1814544.0"
"1572980330463","1810789.0"
"1572980330508","1809552.0"
"1572980330558","1809040.0"
"1572980330603","1812122.0"
"1572980330655","1816897.0"
"1572980330704","1819091.0"
"1572980330753","1822508.0"
"1572980330797","1827269.0"
"1572980330848","1832722.0"
"1572980330897","1838331.0"
"1572980330943","1845227.0"
"1572980331008","1850315.0"
"1572980331045","1856564.0"
"1572980331087","1862298.0"
"1572980331140","1860012.0"
"1572980331184","1856631.0"
"1572980331237","1856711.0"
"1572980331281","1858405.0"
"1572980331327","1862767.0"
"1572980331378","1866569.0"
"1572980331425","1868968.0"
"1572980331474","1872467.0"
"1572980331524","1877441.0"
"1572980331571","1881301.0"
"1572980331623","1885758.0"
"1572980331672","1891401.0"
"1572980331721","1896618.0"
"1572980331765","1900218.0"
"1572980331813","1901421.0"
"1572980331867","1894672.0"
"1572980331914","1888599.0"
"1572980331963","1886090.0"
"1572980332011","1887085.0"
"1572980332055","1887626.0"
"1572980332105","1888107.0"
"1572980332157","1888115.0"
"1572980332205","1888217.0"
"1572980332254","1889844.0"
"1572980332302","1891996.0"
"1572980332349","1896326.0"
"1572980332399","1898229.0"
"1572980332448","1901299.0"
"1572980332496","1905011.0"
"1572980332545","1904711.0"
"1572980332588","1892953.0"
"1572980332642","1880584.0"
"1572980332686","1872652.0"
"1572980332739","1867239.0"
"1572980332787","1864787.0"
"1572980332835","1863251.0"
"1572980332883","1859902.0"
"1572980332928","1856711.0"
"1572980332982","1857336.0"
"1572980333026","1857668.0"
"1572980333079","1859291.0"
"1572980333126","1861983.0"
"1572980333174","1862999.0"
"1572980333224","1867131.0"
"1572980333267","1869303.0"
"1572980333321","1865856.0"
"1572980333366","1846552.0"
"1572980333417","1828608.0"
"1572980333467","1816716.0"
"1572980333514","1808477.0"
"1572980333564","1806281.0"
"1572980333611","1802077.0"
"1572980333660","1795218.0"
"1572980333708","1791687.0"
"1572980333758","1791197.0"
"1572980333805","1791746.0"
"1572980333854","1793436.0"
"1572980333903","1795819.0"
"1572980333948","1795730.0"
"1572980333998","1797564.0"
"1572980334048","1801195.0"
"1572980334091","1805100.0"
"1572980334145","1799552.0"
"1572980334186","1776327.0"
"1572980334239","1761397.0"
"1572980334289","1753819.0"
"1572980334337","1749922.0"
"1572980334388","1751716.0"
"1572980334433","1747262.0"
"1572980334482","1743378.0"
"1572980334528","1742740.0"
"1572980334579","1743425.0"
"1572980334629","1745891.0"
"1572980334676","1750036.0"
"1572980334725","1754770.0"
"1572980334768","1759187.0"
"1572980334822","1764041.0"
"1572980334868","1767962.0"
"1572980334919","1753079.0"
"1572980334967","1737585.0"
"1572980335015","1731458.0"
"1572980335063","1730245.0"
"1572980335108","1732341.0"
"1572980335161","1736277.0"
"1572980335210","1737597.0"
"1572980335256","1737443.0"
"1572980335307","1741521.0"
"1572980335350","1746005.0"
"1572980335405","1752380.0"
"1572980335449","1757913.0"
"1572980335499","1764459.0"
"1572980335548","1772119.0"
"1572980335592","1778092.0"
"1572980335646","1783592.0"
"1572980335688","1775869.0"
"1572980335743","1765034.0"
"1572980335790","1764293.0"
"1572980335839","1765373.0"
"1572980335887","1769065.0"
"1572980335935","1775845.0"
"1572980335984","1778722.0"
"1572980336031","1782560.0"
"1572980336077","1787471.0"
"1572980336128","1793152.0"
"1572980336177","1798538.0"
"1572980336227","1804582.0"
"1572980336270","1810974.0"
"1572980336325","1817128.0"
"1572980336371","1824128.0"
"1572980336413","1826557.0"
"1572980336465","1821620.0"
"1572980336513","1819337.0"
"1572980336563","1822543.0"
"1572980336609","1825184.0"
"1572980336656","1832287.0"
"1572980336710","1833770.0"
"1572980336759","1835668.0"
"1572980336802","1839748.0"
"1572980336850","1843431.0"
"1572980336904","1847856.0"
"1572980336953","1853251.0"
"1572980337001","1858578.0"
"1572980337049","1863578.0"
"1572980337093","1870305.0"
"1572980337143","1867648.0"
"1572980337191","1863230.0"
"1572980337243","1859646.0"
"1572980337291","1860918.0"
"1572980337335","1861207.0"
"1572980337390","1865478.0"
"1572980337432","1866534.0"
"1572980337484","1868629.0"
"1572980337532","1871376.0"
"1572980337578","1873082.0"
"1572980337629","1877504.0"
"1572980337677","1881888.0"
"1572980337728","1885076.0"
"1572980337771","1889424.0"
"1572980337825","1893804.0"
"1572980337872","1889722.0"
"1572980337922","1882327.0"
"1572980337969","1877814.0"
"1572980338018","1876723.0"
"1572980338068","1875770.0"
"1572980338112","1876404.0"
"1572980338164","1876790.0"
"1572980338211","1876404.0"
"1572980338260","1875998.0"
"1572980338308","1876959.0"
"1572980338351","1877977.0"
"1572980338407","1880762.0"
"1572980338453","1883578.0"
"1572980338504","1884785.0"
"1572980338550","1886002.0"
"1572980338596","1882528.0"
"1572980338648","1868633.0"
"1572980338693","1858742.0"
"1572980338744","1853318.0"
"1572980338792","1849896.0"
"1572980338843","1845957.0"
"1572980338890","1843852.0"
"1572980338938","1839171.0"
"1572980338988","1835987.0"
"1572980339034","1832870.0"
"1572980339080","1831724.0"
"1572980339132","1830601.0"
"1572980339181","1832395.0"
"1572980339228","1834376.0"
"1572980339271","1836615.0"
"1572980339326","1826811.0"
"1572980339373","1806917.0"
"1572980339423","1795982.0"
"1572980339470","1789377.0"
"1572980339519","1786044.0"
"1572980339565","1782154.0"
"1572980339613","1778458.0"
"1572980339665","1771558.0"
"1572980339712","1767769.0"
"1572980339764","1767832.0"
"1572980339805","1767153.0"
"1572980339853","1768951.0"
"1572980339906","1769916.0"
"1572980339954","1772186.0"
"1572980340000","1774333.0"
"1572980340051","1766133.0"
"1572980340097","1740934.0"
"1572980340151","1721311.0"
"1572980340199","1711110.0"
"1572980340242","1705291.0"
"1572980340290","1702314.0"
"1572980340341","1698232.0"
"1572980340387","1695459.0"
"1572980340437","1694088.0"
"1572980340484","1696668.0"
"1572980340533","1697133.0"
"1572980340582","1701873.0"
"1572980340633","1705380.0"
"1572980340684","1711294.0"
"1572980340730","1714243.0"
"1572980340775","1718235.0"
"1572980340827","1703832.0"
"1572980340875","1684327.0"
"1572980340924","1674630.0"
"1572980340971","1670129.0"
"1572980341020","1670375.0"
"1572980341070","1673953.0"
"1572980341117","1673341.0"
"1572980341166","1672021.0"
"1572980341214","1673236.0"
"1572980341265","1677608.0"
"1572980341310","1683195.0"
"1572980341355","1689520.0"
"1572980341408","1696341.0"
"1572980341455","1703706.0"
"1572980341506","1709389.0"
"1572980341554","1703068.0"
"1572980341598","1688630.0"
"1572980341649","1683996.0"
"1572980341697","1687161.0"
"1572980341747","1690875.0"
"1572980341794","1698295.0"
"1572980341844","1701995.0"
"1572980341891","1705451.0"
"1572980341936","1709175.0"
"1572980341989","1715878.0"
"1572980342038","1725425.0"
"1572980342082","1735233.0"
"1572980342133","1743169.0"
"1572980342184","1748760.0"
"1572980342230","1756222.0"
"1572980342277","1762308.0"
"1572980342328","1754258.0"
"1572980342375","1749225.0"
"1572980342426","1750434.0"
"1572980342472","1752153.0"
"1572980342516","1755550.0"
"1572980342569","1762098.0"
"1572980342618","1764872.0"
"1572980342667","1769809.0"
"1572980342714","1775290.0"
"1572980342762","1782651.0"
"1572980342806","1789685.0"
"1572980342858","1796506.0"
"1572980342908","1802215.0"
"1572980342957","1808079.0"
"1572980343007","1815139.0"
"1572980343046","1812786.0"
"1572980343098","1806959.0"
"1572980343151","1806766.0"
"1572980343199","1808030.0"
"1572980343248","1811275.0"
"1572980343296","1817106.0"
"1572980343345","1818993.0"
"1572980343392","1820478.0"
"1572980343439","1823284.0"
"1572980343489","1825714.0"
"1572980343537","1832403.0"
"1572980343583","1835869.0"
"1572980343634","1841536.0"
"1572980343681","1846942.0"
"1572980343731","1851174.0"
"1572980343781","1848011.0"
"1572980343829","1841808.0"
"1572980343876","1838841.0"
"1572980343924","1838407.0"
"1572980343973","1839904.0"
"1572980344019","1840239.0"
"1572980344069","1842564.0"
"1572980344119","1841401.0"
"1572980344168","1843163.0"
"1572980344215","1846446.0"
"1572980344260","1848096.0"
"1572980344312","1853058.0"
"1572980344361","1854837.0"
"1572980344409","1858866.0"
"1572980344458","1863535.0"
"1572980344508","1864685.0"
"1572980344554","1856879.0"
"1572980344606","1846926.0"
"1572980344651","1842366.0"
"1572980344695","1837496.0"
"1572980344749","1837533.0"
"1572980344796","1836247.0"
"1572980344841","1834766.0"
"1572980344888","1832827.0"
"1572980344937","1832760.0"
