time,value,value2,value3
1577712610164,4057388.0,4757408.0,0.0
1577712610215,4038534.0,4740221.0,0.0
1577712610376,4024571.0,4696746.0,0.0
1577712610377,3924087.0,4578677.0,0.0
1577712610377,3848399.0,4513785.0,0.0
1577712610412,3810679.0,4490900.0,0.0
1577712610461,3794265.0,4486851.0,0.0
1577712610507,3782452.0,4489441.0,0.0
1577712610561,3770999.0,4482318.0,0.0
1577712610607,3718395.0,4446021.0,0.0
1577712610659,3722107.0,4462179.0,0.0
1577712610706,3742403.0,4460472.0,0.0
1577712610756,3725129.0,4411172.0,0.0
1577712610805,3635527.0,4324662.0,0.0
1577712610854,3546185.0,4253913.0,0.0
1577712610904,3553525.0,4296452.0,0.0
1577712610953,3581793.0,4338807.0,0.0
1577712611005,3583494.0,4355248.0,0.0
1577712611057,3622853.0,4395298.0,0.0
1577712611103,3520688.0,4280588.0,0.0
1577712611150,3436917.0,4210472.0,0.0
1577712611201,3411372.0,4195965.0,0.0
1577712611248,3409050.0,4206480.0,0.0
1577712611302,3407020.0,4216273.0,0.0
1577712611347,3395088.0,4228835.0,0.0
1577712611398,3406620.0,4256719.0,0.0
1577712611447,3494593.0,4338084.0,0.0
1577712611496,3513646.0,4340910.0,0.0
1577712611547,3518557.0,4314294.0,0.0
1577712611594,3438067.0,4235008.0,0.0
1577712611646,3445099.0,4270693.0,0.0
1577712611693,3492122.0,4325747.0,0.0
1577712611742,3493542.0,4339610.0,0.0
1577712611792,3478497.0,4329953.0,0.0
1577712611842,3469876.0,4318478.0,0.0
1577712611889,3469206.0,4311421.0,0.0
1577712611942,3394616.0,4221779.0,0.0
1577712611988,3345436.0,4174876.0,0.0
1577712612038,3439299.0,4261603.0,0.0
1577712612090,3512206.0,4335630.0,0.0
1577712612140,3575251.0,4363345.0,0.0
1577712612190,3644688.0,4438684.0,0.0
1577712612236,3644269.0,4457431.0,0.0
1577712612283,3674195.0,4480904.0,0.0
1577712612336,3712745.0,4522672.0,0.0
1577712612382,3709064.0,4516352.0,0.0
1577712612428,3688980.0,4477456.0,0.0
1577712612482,3675115.0,4462620.0,0.0
1577712612526,3653430.0,4442550.0,0.0
1577712612585,3652729.0,4447130.0,0.0
1577712612624,3660162.0,4460574.0,0.0
1577712612675,3699143.0,4506615.0,0.0
1577712612723,3734440.0,4543126.0,0.0
1577712612773,3779072.0,4550137.0,0.0
1577712612822,3764827.0,4519675.0,0.0
1577712612871,3771430.0,4501619.0,0.0
1577712612922,3856749.0,4609217.0,0.0
1577712612972,3883166.0,4644179.0,0.0
1577712613026,3886526.0,4660065.0,0.0
1577712613072,3901421.0,4676370.0,0.0
1577712613124,3886437.0,4666735.0,0.0
1577712613173,3828423.0,4535552.0,0.0
1577712613229,3789385.0,4498001.0,0.0
1577712613272,3777850.0,4509681.0,0.0
1577712613319,3852848.0,4593511.0,0.0
1577712613372,3853909.0,4582499.0,0.0
1577712613421,3816309.0,4551482.0,0.0
1577712613465,3808188.0,4554049.0,0.0
1577712613522,3797686.0,4540775.0,0.0
1577712613574,3744932.0,4471304.0,0.0
1577712613617,3713245.0,4439100.0,0.0
1577712613669,3716065.0,4434759.0,0.0
1577712613716,3725078.0,4451506.0,0.0
1577712613768,3754666.0,4487326.0,0.0
1577712613809,3754516.0,4474877.0,0.0
1577712613869,3720496.0,4427828.0,0.0
1577712613912,3664333.0,4377465.0,0.0
1577712613965,3550654.0,4267708.0,0.0
1577712614007,3475376.0,4208132.0,0.0
1577712614064,3427746.0,4197479.0,0.0
1577712614105,3469045.0,4231356.0,0.0
1577712614160,3464704.0,4259884.0,0.0
1577712614203,3489641.0,4284499.0,0.0
1577712614258,3500082.0,4284907.0,0.0
1577712614306,3492221.0,4249571.0,0.0
1577712614357,3378803.0,4113830.0,0.0
1577712614409,3308907.0,4019833.0,0.0
1577712614455,3380624.0,4090018.0,0.0
1577712614509,3435627.0,4135346.0,0.0
1577712614557,3472446.0,4176674.0,0.0
1577712614604,3481108.0,4190413.0,0.0
1577712614653,3489091.0,4190390.0,0.0
1577712614703,3521828.0,4215775.0,0.0
1577712614749,3524380.0,4185189.0,0.0
1577712614796,3480899.0,4129808.0,0.0
1577712614846,3455262.0,4097231.0,0.0
1577712614899,3447011.0,4084319.0,0.0
1577712614944,3458543.0,4090266.0,0.0
1577712614998,3454122.0,4073463.0,0.0
1577712615051,3434607.0,4057216.0,0.0
1577712615097,3400980.0,4032804.0,0.0
1577712615148,3311508.0,3951595.0,0.0
1577712615194,3226806.0,3886104.0,0.0
1577712615244,3160090.0,3844788.0,0.0
1577712615286,3136664.0,3841442.0,0.0
1577712615339,3133874.0,3855508.0,0.0
1577712615385,3085200.0,3875646.0,0.0
1577712615438,3084237.0,3894111.0,0.0
1577712615490,3078706.0,3898916.0,0.0
1577712615545,2992916.0,3808018.0,0.0
1577712615584,2909826.0,3728235.0,0.0
1577712615639,2859658.0,3693206.0,0.0
1577712615685,2823102.0,3670647.0,0.0
1577712615737,2806597.0,3666816.0,0.0
1577712615790,2797624.0,3665944.0,0.0
1577712615835,2788124.0,3653495.0,0.0
1577712615890,2775312.0,3633290.0,0.0
1577712615933,2714152.0,3555902.0,0.0
1577712615984,2679165.0,3518193.0,0.0
1577712616036,2659935.0,3439195.0,0.0
1577712616077,2663891.0,3455227.0,0.0
1577712616125,2680931.0,3476880.0,0.0
1577712616181,2696413.0,3490419.0,0.0
1577712616228,2706517.0,3489859.0,0.0
1577712616279,2709134.0,3486829.0,0.0
1577712616326,2656601.0,3428868.0,0.0
1577712616377,2623756.0,3402593.0,0.0
1577712616429,2619664.0,3409826.0,0.0
1577712616471,2630869.0,3431393.0,0.0
1577712616527,2651950.0,3462643.0,0.0
1577712616569,2683526.0,3504018.0,0.0
1577712616620,2709837.0,3536946.0,0.0
1577712616669,2726337.0,3561443.0,0.0
1577712616721,2720355.0,3551341.0,0.0
1577712616768,2695870.0,3533826.0,0.0
1577712616818,2680962.0,3527877.0,0.0
1577712616866,2676213.0,3533212.0,0.0
1577712616921,2676280.0,3532793.0,0.0
1577712616967,2680557.0,3544051.0,0.0
1577712617021,2689446.0,3551821.0,0.0
1577712617073,2694462.0,3549596.0,0.0
1577712617115,2652814.0,3485352.0,0.0
1577712617166,2594720.0,3417341.0,0.0
1577712617214,2574268.0,3399086.0,0.0
1577712617264,2582826.0,3414950.0,0.0
1577712617313,2608589.0,3441822.0,0.0
1577712617361,2637379.0,3459354.0,0.0
1577712617407,2656883.0,3465949.0,0.0
1577712617459,2664671.0,3461981.0,0.0
1577712617504,2605246.0,3379785.0,0.0
1577712617557,2545562.0,3330657.0,0.0
1577712617606,2540253.0,3334574.0,0.0
1577712617653,2560577.0,3365715.0,0.0
1577712617706,2578665.0,3398148.0,0.0
1577712617753,2594690.0,3425202.0,0.0
1577712617804,2612144.0,3454506.0,0.0
1577712617852,2626151.0,3476250.0,0.0
1577712617901,2613575.0,3463708.0,0.0
1577712617954,2566924.0,3421125.0,0.0
1577712618004,2538823.0,3408449.0,0.0
1577712618048,2532108.0,3417049.0,0.0
1577712618105,2532949.0,3428055.0,0.0
1577712618146,2548705.0,3442375.0,0.0
1577712618201,2559238.0,3444790.0,0.0
1577712618249,2569319.0,3439498.0,0.0
1577712618300,2554105.0,3407014.0,0.0
1577712618351,2500792.0,3337754.0,0.0
1577712618398,2477309.0,3314710.0,0.0
1577712618447,2483620.0,3320364.0,0.0
1577712618496,2512603.0,3349063.0,0.0
1577712618546,2547258.0,3375211.0,0.0
1577712618597,2574642.0,3394163.0,0.0
1577712618644,2586827.0,3392702.0,0.0
1577712618692,2577251.0,3376822.0,0.0
1577712618745,2520510.0,3320019.0,0.0
1577712618792,2496753.0,3306621.0,0.0
1577712618842,2511790.0,3335044.0,0.0
1577712618891,2548392.0,3388986.0,0.0
1577712618940,2577021.0,3427157.0,0.0
1577712618992,2607089.0,3458399.0,0.0
1577712619041,2617860.0,3473456.0,0.0
1577712619086,2616596.0,3478566.0,0.0
1577712619133,2562243.0,3424363.0,0.0
1577712619187,2527402.0,3396764.0,0.0
1577712619236,2519730.0,3395043.0,0.0
1577712619286,2522010.0,3402493.0,0.0
1577712619333,2521872.0,3403593.0,0.0
1577712619385,2525620.0,3405051.0,0.0
1577712619431,2525460.0,3400764.0,0.0
1577712619483,2512747.0,3369465.0,0.0
1577712619532,2427753.0,3266413.0,0.0
1577712619580,2381064.0,3214055.0,0.0
1577712619630,2372100.0,3205298.0,0.0
1577712619679,2358436.0,3222755.0,0.0
1577712619728,2387862.0,3252043.0,0.0
1577712619777,2414965.0,3273979.0,0.0
1577712619827,2439456.0,3286513.0,0.0
1577712619876,2453398.0,3290246.0,0.0
1577712619926,2398835.0,3218184.0,0.0
1577712619975,2364580.0,3195843.0,0.0
1577712620024,2378810.0,3226648.0,0.0
1577712620077,2416633.0,3281698.0,0.0
1577712620118,2456129.0,3337142.0,0.0
1577712620172,2487777.0,3375463.0,0.0
1577712620222,2518046.0,3397392.0,0.0
1577712620271,2529032.0,3405781.0,0.0
1577712620314,2517985.0,3387761.0,0.0
1577712620367,2494529.0,3372661.0,0.0
1577712620413,2480162.0,3369986.0,0.0
1577712620468,2471484.0,3378828.0,0.0
1577712620510,2471891.0,3383877.0,0.0
1577712620567,2486087.0,3395791.0,0.0
1577712620615,2496841.0,3405563.0,0.0
1577712620665,2510675.0,3401051.0,0.0
1577712620707,2482661.0,3349733.0,0.0
1577712620765,2412330.0,3265674.0,0.0
1577712620813,2374469.0,3224962.0,0.0
1577712620862,2366604.0,3222924.0,0.0
1577712620914,2383000.0,3241246.0,0.0
1577712620960,2406536.0,3256807.0,0.0
1577712621009,2423088.0,3261354.0,0.0
1577712621062,2441498.0,3263853.0,0.0
1577712621102,2411595.0,3207237.0,0.0
1577712621151,2348554.0,3151305.0,0.0
1577712621203,2340593.0,3168914.0,0.0
1577712621256,2372506.0,3213771.0,0.0
1577712621304,2417357.0,3261446.0,0.0
1577712621348,2449621.0,3300254.0,0.0
1577712621405,2483606.0,3333057.0,0.0
1577712621450,2519562.0,3366018.0,0.0
1577712621504,2512026.0,3357720.0,0.0
1577712621556,2441419.0,3289752.0,0.0
1577712621596,2396869.0,3258443.0,0.0
1577712621648,2391830.0,3265019.0,0.0
1577712621696,2403460.0,3282033.0,0.0
1577712621743,2408638.0,3295347.0,0.0
1577712621795,2403929.0,3304466.0,0.0
1577712621844,2404648.0,3301211.0,0.0
1577712621898,2412454.0,3283929.0,0.0
1577712621947,2377104.0,3213344.0,0.0
1577712621997,2369765.0,3188419.0,0.0
1577712622045,2392764.0,3207864.0,0.0
1577712622095,2428438.0,3247689.0,0.0
1577712622144,2467764.0,3290380.0,0.0
1577712622190,2497519.0,3322359.0,0.0
1577712622245,2518895.0,3337628.0,0.0
1577712622294,2534395.0,3340304.0,0.0
1577712622342,2483848.0,3261925.0,0.0
1577712622396,2418277.0,3205894.0,0.0
1577712622441,2396485.0,3206513.0,0.0
1577712622489,2425945.0,3257461.0,0.0
1577712622533,2469487.0,3317973.0,0.0
1577712622590,2500634.0,3349054.0,0.0
1577712622637,2534239.0,3370471.0,0.0
1577712622687,2571422.0,3390362.0,0.0
1577712622734,2521862.0,3330497.0,0.0
1577712622785,2462291.0,3292487.0,0.0
1577712622828,2439824.0,3295364.0,0.0
1577712622883,2446212.0,3322847.0,0.0
1577712622934,2459107.0,3346899.0,0.0
1577712622979,2464676.0,3341939.0,0.0
1577712623035,2453810.0,3322051.0,0.0
1577712623083,2446579.0,3304332.0,0.0
1577712623130,2405755.0,3238174.0,0.0
1577712623180,2340673.0,3152757.0,0.0
1577712623228,2323287.0,3126607.0,0.0
1577712623278,2346382.0,3149502.0,0.0
1577712623327,2376832.0,3183177.0,0.0
1577712623376,2408899.0,3209451.0,0.0
1577712623426,2433519.0,3225297.0,0.0
1577712623470,2453664.0,3233729.0,0.0
1577712623522,2439326.0,3204199.0,0.0
1577712623572,2380970.0,3132044.0,0.0
1577712623621,2346591.0,3108772.0,0.0
1577712623671,2363964.0,3142127.0,0.0
1577712623718,2399707.0,3185574.0,0.0
1577712623770,2427867.0,3227672.0,0.0
1577712623822,2446303.0,3252142.0,0.0
1577712623868,2458723.0,3268041.0,0.0
1577712623917,2459887.0,3277553.0,0.0
1577712623967,2435063.0,3253510.0,0.0
1577712624018,2417233.0,3258150.0,0.0
1577712624067,2411782.0,3272001.0,0.0
1577712624115,2416615.0,3283468.0,0.0
1577712624165,2416231.0,3280548.0,0.0
1577712624217,2426884.0,3283183.0,0.0
1577712624261,2439094.0,3279197.0,0.0
1577712624317,2452215.0,3268242.0,0.0
1577712624357,2419114.0,3209937.0,0.0
1577712624411,2365253.0,3147396.0,0.0
1577712624461,2345665.0,3124041.0,0.0
1577712624510,2349734.0,3134384.0,0.0
1577712624563,2367254.0,3146926.0,0.0
1577712624609,2377957.0,3142757.0,0.0
1577712624656,2373219.0,3118671.0,0.0
1577712624707,2363857.0,3100753.0,0.0
1577712624750,2330433.0,3076291.0,0.0
1577712624806,2308305.0,3063328.0,0.0
1577712624856,2317226.0,3079940.0,0.0
1577712624904,2343866.0,3110483.0,0.0
1577712624952,2389140.0,3162774.0,0.0
1577712625003,2428194.0,3213511.0,0.0
1577712625053,2448469.0,3244198.0,0.0
1577712625096,2451317.0,3256043.0,0.0
1577712625149,2444470.0,3242747.0,0.0
1577712625201,2385109.0,3180105.0,0.0
1577712625248,2343131.0,3150004.0,0.0
1577712625294,2338704.0,3163855.0,0.0
1577712625348,2353194.0,3190306.0,0.0
1577712625393,2371122.0,3210859.0,0.0
1577712625447,2381756.0,3215355.0,0.0
1577712625498,2384142.0,3202429.0,0.0
1577712625540,2378160.0,3179115.0,0.0
1577712625598,2306779.0,3086835.0,0.0
1577712625644,2267300.0,3042297.0,0.0
1577712625692,2273513.0,3050006.0,0.0
1577712625743,2308016.0,3086567.0,0.0
1577712625791,2352481.0,3127464.0,0.0
1577712625841,2383244.0,3144090.0,0.0
1577712625889,2400583.0,3146776.0,0.0
1577712625937,2408277.0,3147028.0,0.0
1577712625988,2382537.0,3128738.0,0.0
1577712626034,2353987.0,3111574.0,0.0
1577712626092,2360622.0,3127271.0,0.0
1577712626138,2391933.0,3171514.0,0.0
1577712626185,2430370.0,3227589.0,0.0
1577712626238,2468809.0,3276698.0,0.0
1577712626284,2497976.0,3304500.0,0.0
1577712626328,2503812.0,3310187.0,0.0
1577712626383,2502798.0,3315439.0,0.0
1577712626430,2448079.0,3257957.0,0.0
1577712626481,2394449.0,3214921.0,0.0
1577712626533,2361256.0,3195400.0,0.0
1577712626574,2360866.0,3196925.0,0.0
1577712626629,2373491.0,3197899.0,0.0
1577712626672,2374694.0,3181976.0,0.0
1577712626728,2368849.0,3163578.0,0.0
1577712626777,2371693.0,3158243.0,0.0
1577712626840,2301425.0,3075191.0,0.0
1577712626876,2256089.0,3035895.0,0.0
1577712626933,2261623.0,3049931.0,0.0
1577712626977,2301305.0,3083068.0,0.0
1577712627025,2332243.0,3105273.0,0.0
1577712627075,2347806.0,3103672.0,0.0
1577712627123,2339705.0,3091021.0,0.0
1577712627173,2345002.0,3106515.0,0.0
1577712627222,2349858.0,3118461.0,0.0
1577712627270,2311070.0,3076390.0,0.0
1577712627315,2320014.0,3087347.0,0.0
1577712627369,2356451.0,3133202.0,0.0
1577712627416,2408289.0,3198008.0,0.0
1577712627471,2449966.0,3253158.0,0.0
1577712627521,2463534.0,3273778.0,0.0
1577712627571,2463794.0,3280371.0,0.0
1577712627617,2460743.0,3284425.0,0.0
1577712627667,2414547.0,3239659.0,0.0
1577712627710,2372286.0,3206513.0,0.0
1577712627765,2366080.0,3198443.0,0.0
1577712627819,2368820.0,3193067.0,0.0
1577712627859,2375781.0,3176691.0,0.0
1577712627913,2379908.0,3163479.0,0.0
1577712627954,2402001.0,3171262.0,0.0
1577712628012,2429450.0,3198041.0,0.0
1577712628055,2454517.0,3218251.0,0.0
1577712628104,2418070.0,3176163.0,0.0
1577712628157,2396241.0,3146835.0,0.0
1577712628210,2398559.0,3148076.0,0.0
1577712628259,2397535.0,3149819.0,0.0
1577712628300,2409866.0,3177555.0,0.0
1577712628348,2448355.0,3219484.0,0.0
1577712628398,2467673.0,3239761.0,0.0
1577712628447,2474158.0,3256917.0,0.0
1577712628506,2424389.0,3202564.0,0.0
1577712628547,2379331.0,3173906.0,0.0
1577712628596,2371155.0,3182260.0,0.0
1577712628647,2403833.0,3224921.0,0.0
1577712628697,2437325.0,3265649.0,0.0
1577712628746,2437873.0,3271891.0,0.0
1577712628799,2419171.0,3258880.0,0.0
1577712628850,2409748.0,3261765.0,0.0
1577712628900,2420047.0,3264231.0,0.0
1577712628948,2375588.0,3197555.0,0.0
1577712628997,2332938.0,3143143.0,0.0
1577712629045,2341678.0,3140534.0,0.0
1577712629096,2388835.0,3177027.0,0.0
1577712629145,2430268.0,3206229.0,0.0
1577712629194,2456106.0,3224283.0,0.0
1577712629236,2466848.0,3222538.0,0.0
1577712629293,2465672.0,3212596.0,0.0
1577712629340,2398994.0,3124593.0,0.0
1577712629386,2318352.0,3055676.0,0.0
1577712629440,2294330.0,3057657.0,0.0
1577712629491,2332757.0,3106750.0,0.0
1577712629540,2379473.0,3152891.0,0.0
1577712629589,2417487.0,3190458.0,0.0
1577712629638,2446443.0,3229450.0,0.0
1577712629686,2475741.0,3270851.0,0.0
1577712629736,2502556.0,3311144.0,0.0
1577712629783,2483175.0,3291379.0,0.0
1577712629836,2456315.0,3268510.0,0.0
1577712629877,2443611.0,3262445.0,0.0
1577712629933,2434899.0,3261437.0,0.0
1577712629977,2431965.0,3271749.0,0.0
1577712630033,2442221.0,3278250.0,0.0
1577712630079,2455235.0,3276749.0,0.0
1577712630132,2452979.0,3250818.0,0.0
1577712630180,2409203.0,3184274.0,0.0
1577712630229,2357920.0,3128982.0,0.0
1577712630278,2351294.0,3127086.0,0.0
1577712630323,2375503.0,3160248.0,0.0
1577712630376,2413649.0,3196674.0,0.0
1577712630424,2438552.0,3212227.0,0.0
1577712630476,2448044.0,3206347.0,0.0
1577712630517,2451035.0,3192529.0,0.0
1577712630574,2438682.0,3182866.0,0.0
1577712630617,2404404.0,3152455.0,0.0
1577712630666,2398880.0,3156179.0,0.0
1577712630721,2415248.0,3187078.0,0.0
1577712630771,2436421.0,3226120.0,0.0
1577712630825,2479918.0,3274684.0,0.0
1577712630869,2533012.0,3332636.0,0.0
1577712630919,2564055.0,3375262.0,0.0
1577712630967,2588897.0,3406394.0,0.0
1577712631010,2596778.0,3414170.0,0.0
1577712631060,2519907.0,3327587.0,0.0
1577712631109,2460787.0,3273317.0,0.0
1577712631159,2440801.0,3257780.0,0.0
1577712631214,2443205.0,3259786.0,0.0
1577712631259,2448117.0,3252738.0,0.0
1577712631307,2456382.0,3250566.0,0.0
1577712631359,2472801.0,3259979.0,0.0
1577712631405,2495201.0,3278610.0,0.0
1577712631458,2477901.0,3244155.0,0.0
1577712631505,2458973.0,3232881.0,0.0
1577712631554,2478437.0,3256496.0,0.0
1577712631604,2532717.0,3309702.0,0.0
1577712631653,2595348.0,3363449.0,0.0
1577712631703,2611827.0,3371731.0,0.0
1577712631752,2588672.0,3345733.0,0.0
1577712631803,2566548.0,3341269.0,0.0
1577712631850,2545460.0,3329097.0,0.0
1577712631901,2465044.0,3249064.0,0.0
1577712631949,2411385.0,3208888.0,0.0
1577712632002,2403002.0,3214996.0,0.0
1577712632048,2429405.0,3260381.0,0.0
1577712632100,2460980.0,3309659.0,0.0
1577712632147,2467340.0,3330866.0,0.0
1577712632205,2457457.0,3320322.0,0.0
1577712632253,2450045.0,3311772.0,0.0
1577712632301,2443595.0,3287100.0,0.0
1577712632350,2393120.0,3214124.0,0.0
1577712632399,2380710.0,3187748.0,0.0
1577712632440,2409910.0,3209425.0,0.0
1577712632499,2451651.0,3234600.0,0.0
1577712632541,2481095.0,3242235.0,0.0
1577712632596,2482746.0,3229643.0,0.0
1577712632641,2467210.0,3204132.0,0.0
1577712632695,2446648.0,3172144.0,0.0
1577712632742,2348344.0,3082691.0,0.0
1577712632793,2303737.0,3056810.0,0.0
1577712632847,2322824.0,3081977.0,0.0
1577712632891,2357999.0,3128269.0,0.0
1577712632941,2393453.0,3178099.0,0.0
1577712632988,2448514.0,3237337.0,0.0
1577712633039,2505813.0,3286698.0,0.0
1577712633083,2537281.0,3318467.0,0.0
1577712633139,2523473.0,3304281.0,0.0
1577712633181,2449158.0,3238141.0,0.0
1577712633231,2404427.0,3204299.0,0.0
1577712633282,2392894.0,3208888.0,0.0
1577712633329,2411962.0,3226044.0,0.0
1577712633382,2409894.0,3221270.0,0.0
1577712633432,2395861.0,3204417.0,0.0
1577712633484,2403545.0,3213041.0,0.0
1577712633531,2428714.0,3226691.0,0.0
1577712633583,2350317.0,3114745.0,0.0
1577712633628,2282004.0,3037338.0,0.0
1577712633680,2261946.0,3015779.0,0.0
1577712633722,2280468.0,3040662.0,0.0
1577712633779,2305777.0,3066642.0,0.0
1577712633824,2317578.0,3084168.0,0.0
1577712633877,2339309.0,3104603.0,0.0
1577712633925,2353223.0,3127127.0,0.0
1577712633976,2363847.0,3146197.0,0.0
1577712634024,2318646.0,3114067.0,0.0
1577712634074,2279421.0,3088152.0,0.0
1577712634118,2292492.0,3117858.0,0.0
1577712634171,2342351.0,3176724.0,0.0
1577712634222,2381738.0,3220524.0,0.0
1577712634265,2395838.0,3223688.0,0.0
1577712634318,2390377.0,3212344.0,0.0
1577712634370,2386159.0,3209283.0,0.0
1577712634420,2334843.0,3146004.0,0.0
1577712634462,2244528.0,3055896.0,0.0
1577712634516,2219613.0,3032708.0,0.0
1577712634562,2251493.0,3062674.0,0.0
1577712634616,2300176.0,3108855.0,0.0
1577712634663,2341944.0,3141843.0,0.0
1577712634713,2371636.0,3160492.0,0.0
1577712634765,2384243.0,3169064.0,0.0
1577712634811,2392708.0,3177421.0,0.0
1577712634864,2322750.0,3082640.0,0.0
1577712634903,2263060.0,3022640.0,0.0
1577712634961,2286415.0,3063186.0,0.0
1577712635003,2335967.0,3127883.0,0.0
1577712635059,2384306.0,3187362.0,0.0
1577712635102,2432763.0,3236506.0,0.0
1577712635159,2457185.0,3261639.0,0.0
1577712635202,2466192.0,3275607.0,0.0
1577712635256,2479303.0,3290741.0,0.0
1577712635303,2418330.0,3232101.0,0.0
1577712635351,2359192.0,3187974.0,0.0
1577712635405,2327035.0,3176322.0,0.0
1577712635450,2327137.0,3179845.0,0.0
1577712635503,2341774.0,3198947.0,0.0
1577712635545,2337613.0,3192957.0,0.0
1577712635601,2321850.0,3169174.0,0.0
1577712635648,2321286.0,3154310.0,0.0
1577712635699,2339506.0,3159921.0,0.0
1577712635746,2291781.0,3100793.0,0.0
1577712635797,2282292.0,3092975.0,0.0
1577712635849,2305462.0,3110903.0,0.0
1577712635894,2334165.0,3131834.0,0.0
1577712635947,2341187.0,3122665.0,0.0
1577712635989,2317118.0,3091431.0,0.0
1577712636046,2302035.0,3080299.0,0.0
1577712636087,2316097.0,3090736.0,0.0
1577712636143,2295539.0,3069720.0,0.0
1577712636185,2231700.0,3026080.0,0.0
1577712636241,2232468.0,3048362.0,0.0
1577712636286,2278651.0,3109536.0,0.0
1577712636333,2328523.0,3167144.0,0.0
1577712636387,2371025.0,3213025.0,0.0
1577712636439,2386048.0,3226522.0,0.0
1577712636488,2373083.0,3224685.0,0.0
1577712636535,2369426.0,3220423.0,0.0
1577712636583,2387002.0,3241874.0,0.0
1577712636628,2353911.0,3195255.0,0.0
1577712636678,2321223.0,3121657.0,0.0
1577712636728,2295076.0,3074151.0,0.0
1577712636779,2290887.0,3068328.0,0.0
1577712636827,2304365.0,3095777.0,0.0
1577712636877,2332824.0,3129242.0,0.0
1577712636926,2359373.0,3135408.0,0.0
1577712636981,2370822.0,3136985.0,0.0
1577712637026,2317555.0,3079862.0,0.0
1577712637078,2243758.0,2991928.0,0.0
1577712637129,2230489.0,2989773.0,0.0
1577712637176,2289310.0,3031206.0,0.0
1577712637227,2449249.0,3168495.0,0.0
1577712637270,2586477.0,3318241.0,0.0
1577712637324,2621440.0,3358835.0,0.0
1577712637375,2611612.0,3366948.0,0.0
1577712637426,2627596.0,3384340.0,0.0
1577712637467,2618589.0,3337451.0,0.0
1577712637521,2585025.0,3267100.0,0.0
1577712637565,2585368.0,3255617.0,0.0
1577712637617,2612788.0,3273904.0,0.0
1577712637665,2644228.0,3292460.0,0.0
1577712637715,2638370.0,3303224.0,0.0
1577712637764,2619816.0,3318367.0,0.0
1577712637819,2631586.0,3350060.0,0.0
1577712637866,2663830.0,3383466.0,0.0
1577712637915,2659250.0,3358760.0,0.0
1577712637964,2649447.0,3336689.0,0.0
1577712638013,2696602.0,3372694.0,0.0
1577712638067,2809193.0,3451570.0,0.0
1577712638111,2924395.0,3537970.0,0.0
1577712638164,3022067.0,3621861.0,0.0
1577712638205,3116227.0,3687263.0,0.0
1577712638262,3183034.0,3732305.0,0.0
1577712638304,3215723.0,3778771.0,0.0
1577712638361,3254666.0,3832974.0,0.0
1577712638409,3337281.0,3918132.0,0.0
1577712638459,3384634.0,3942578.0,0.0
1577712638506,3518459.0,4031997.0,0.0
1577712638557,3546916.0,4018375.0,0.0
1577712638603,3602850.0,4059398.0,0.0
1577712638654,3620699.0,4068382.0,0.0
1577712638702,3652542.0,4101518.0,0.0
1577712638752,3668776.0,4126971.0,0.0
1577712638805,3697574.0,4158439.0,0.0
1577712638846,3756602.0,4200762.0,0.0
1577712638903,3785354.0,4199832.0,0.0
1577712638943,3754938.0,4174973.0,0.0
1577712639002,3784791.0,4186392.0,0.0
1577712639051,3861558.0,4267666.0,0.0
1577712639100,3927326.0,4321164.0,0.0
1577712639151,3920394.0,4345148.0,0.0
1577712639197,3907919.0,4383528.0,0.0
1577712639244,3882534.0,4365525.0,0.0
1577712639294,3835997.0,4189856.0,0.0
1577712639342,3893341.0,4218112.0,0.0
1577712639388,3817382.0,4152734.0,0.0
1577712639445,3781315.0,4136803.0,0.0
1577712639487,3778659.0,4124127.0,0.0
1577712639542,3749670.0,4096796.0,0.0
1577712639585,3754849.0,4124320.0,0.0
1577712639641,3760983.0,4138447.0,0.0
1577712639691,3676954.0,4022402.0,0.0
1577712639739,3723719.0,4064757.0,0.0
1577712639788,3770036.0,4097895.0,0.0
1577712639839,3786296.0,4112893.0,0.0
1577712639884,3787570.0,4125116.0,0.0
1577712639934,3818737.0,4160083.0,0.0
1577712639983,3822659.0,4172978.0,0.0
1577712640032,3765540.0,4122130.0,0.0
1577712640085,3713219.0,4061964.0,0.0
1577712640130,3671521.0,3995757.0,0.0
1577712640183,3624620.0,3943568.0,0.0
1577712640227,3620740.0,3923334.0,0.0
1577712640281,3638779.0,3911722.0,0.0
1577712640327,3654903.0,3923862.0,0.0
1577712640375,3599305.0,3892729.0,0.0
1577712640425,3607503.0,3937812.0,0.0
1577712640474,3653678.0,3994146.0,0.0
1577712640524,3681724.0,3976244.0,0.0
1577712640576,3553985.0,3881354.0,0.0
1577712640622,3480230.0,3838100.0,0.0
1577712640673,3469909.0,3864693.0,0.0
1577712640723,3541934.0,3964330.0,0.0
1577712640767,3583510.0,4036293.0,0.0
1577712640824,3568253.0,4020026.0,0.0
1577712640871,3609994.0,4062894.0,0.0
1577712640923,3699224.0,4133918.0,0.0
1577712640972,3512779.0,3905917.0,0.0
1577712641020,3426021.0,3785138.0,0.0
1577712641067,3474440.0,3814710.0,0.0
1577712641119,3521306.0,3843569.0,0.0
1577712641169,3550577.0,3875069.0,0.0
1577712641217,3557174.0,3882863.0,0.0
1577712641266,3628452.0,3895365.0,0.0
1577712641313,3700736.0,3940364.0,0.0
1577712641359,3800634.0,4074707.0,0.0
1577712641410,3797644.0,4117424.0,0.0
1577712641464,3769441.0,4053717.0,0.0
1577712641508,3761714.0,4019817.0,0.0
1577712641563,3761024.0,4029547.0,0.0
1577712641611,3741060.0,4035336.0,0.0
1577712641652,3810545.0,4092308.0,0.0
1577712641703,3837344.0,4117709.0,0.0
1577712641754,3778304.0,4034984.0,0.0
1577712641804,3694494.0,3973124.0,0.0
1577712641853,3616414.0,3904014.0,0.0
1577712641902,3539929.0,3835960.0,0.0
1577712641954,3494574.0,3801758.0,0.0
1577712642002,3513169.0,3844266.0,0.0
1577712642046,3595089.0,3924926.0,0.0
1577712642106,3637124.0,3988668.0,0.0
1577712642151,3515408.0,3895086.0,0.0
1577712642204,3619876.0,4011469.0,0.0
1577712642254,3669105.0,4092753.0,0.0
1577712642302,3512102.0,3920363.0,0.0
1577712642347,3432809.0,3854768.0,0.0
1577712642399,3456296.0,3876774.0,0.0
1577712642447,3601672.0,4017166.0,0.0
1577712642498,3514859.0,3931639.0,0.0
1577712642548,3507886.0,3909081.0,0.0
1577712642594,3561766.0,3947083.0,0.0
1577712642643,3565366.0,3949700.0,0.0
1577712642691,3514270.0,3885062.0,0.0
1577712642741,3403018.0,3762379.0,0.0
1577712642788,3457414.0,3793562.0,0.0
1577712642835,3500521.0,3798361.0,0.0
1577712642888,3531408.0,3866447.0,0.0
1577712642933,3537629.0,3906663.0,0.0
1577712642982,3540859.0,3933970.0,0.0
1577712643033,3534988.0,3954037.0,0.0
1577712643091,3497744.0,3947268.0,0.0
1577712643137,3383143.0,3826716.0,0.0
1577712643188,3359162.0,3803109.0,0.0
1577712643235,3342281.0,3778251.0,0.0
1577712643284,3226648.0,3695526.0,0.0
1577712643327,3185873.0,3659578.0,0.0
1577712643377,3201757.0,3693277.0,0.0
1577712643430,3198082.0,3692346.0,0.0
1577712643479,3192299.0,3694218.0,0.0
1577712643531,3186988.0,3687397.0,0.0
1577712643574,3196590.0,3653632.0,0.0
1577712643632,3128884.0,3606517.0,0.0
1577712643678,3123307.0,3623724.0,0.0
1577712643730,3191011.0,3696306.0,0.0
1577712643775,3233361.0,3763328.0,0.0
1577712643829,3235600.0,3788192.0,0.0
1577712643870,3275266.0,3827805.0,0.0
1577712643927,3338611.0,3846154.0,0.0
1577712643977,3539565.0,3936763.0,0.0
1577712644024,3476370.0,3874442.0,0.0
1577712644070,3288425.0,3695325.0,0.0
1577712644118,3254227.0,3665871.0,0.0
1577712644171,3247595.0,3679386.0,0.0
1577712644223,3256035.0,3694108.0,0.0
1577712644272,3272549.0,3716441.0,0.0
1577712644318,3309984.0,3730734.0,0.0
1577712644368,3420155.0,3802286.0,0.0
1577712644417,3494649.0,3874332.0,0.0
1577712644469,3592419.0,3973550.0,0.0
1577712644510,3710256.0,4103247.0,0.0
1577712644565,3787802.0,4193706.0,0.0
1577712644609,3767655.0,4205226.0,0.0
1577712644666,3800273.0,4253244.0,0.0
1577712644712,3916411.0,4329100.0,0.0
1577712644765,3966910.0,4392261.0,0.0
1577712644811,3968855.0,4427530.0,0.0
1577712644865,3964269.0,4368268.0,0.0
1577712644912,3909902.0,4227935.0,0.0
1577712644960,3842881.0,4140267.0,0.0
1577712645012,3808075.0,4123910.0,0.0
1577712645058,3795159.0,4103204.0,0.0
1577712645110,3965535.0,4234142.0,0.0
1577712645152,4136486.0,4406330.0,0.0
1577712645210,4184106.0,4517158.0,0.0
1577712645251,4190579.0,4572669.0,0.0
1577712645304,4216035.0,4565002.0,0.0
1577712645352,4062762.0,4328697.0,0.0
1577712645405,3938582.0,4217868.0,0.0
1577712645453,3903638.0,4222919.0,0.0
1577712645496,3909627.0,4221761.0,0.0
1577712645554,3832580.0,4150276.0,0.0
1577712645603,3758124.0,4095756.0,0.0
1577712645652,3739582.0,4078801.0,0.0
1577712645700,3727177.0,4081763.0,0.0
1577712645751,3662325.0,4009020.0,0.0
1577712645794,3568347.0,3916990.0,0.0
1577712645850,3675849.0,4022458.0,0.0
1577712645890,3738317.0,4082283.0,0.0
1577712645949,3754890.0,4115620.0,0.0
1577712645993,3779059.0,4150066.0,0.0
1577712646043,3819056.0,4189379.0,0.0
1577712646093,3863076.0,4231367.0,0.0
1577712646144,3881264.0,4253354.0,0.0
1577712646193,3863572.0,4213388.0,0.0
1577712646242,3915194.0,4212289.0,0.0
1577712646294,3981891.0,4280846.0,0.0
1577712646336,3954385.0,4264612.0,0.0
1577712646391,3920170.0,4203229.0,0.0
1577712646433,3854069.0,4165243.0,0.0
1577712646490,3815251.0,4157139.0,0.0
1577712646532,3784651.0,4143908.0,0.0
1577712646589,3959336.0,4290602.0,0.0
1577712646635,4064280.0,4362337.0,0.0
1577712646681,4230521.0,4590051.0,0.0
1577712646735,4258807.0,4687618.0,0.0
1577712646785,4245900.0,4680059.0,0.0
1577712646835,4175526.0,4588769.0,0.0
1577712646876,4095522.0,4472982.0,0.0
1577712646933,4089888.0,4490205.0,0.0
1577712646981,4209316.0,4595212.0,0.0
1577712647032,4317253.0,4723809.0,0.0
1577712647075,4159914.0,4480347.0,0.0
1577712647129,4039964.0,4348353.0,0.0
1577712647172,3938115.0,4268513.0,0.0
1577712647229,3918931.0,4253899.0,0.0
1577712647272,3940575.0,4280066.0,0.0
1577712647325,3983607.0,4304386.0,0.0
1577712647373,4053583.0,4358278.0,0.0
1577712647424,4079640.0,4355961.0,0.0
1577712647474,4084591.0,4392320.0,0.0
1577712647523,4034962.0,4310794.0,0.0
1577712647573,3967414.0,4221399.0,0.0
1577712647621,3914049.0,4180335.0,0.0
1577712647666,3887315.0,4186794.0,0.0
1577712647714,3901305.0,4201031.0,0.0
1577712647765,3942345.0,4226852.0,0.0
1577712647815,3898784.0,4193497.0,0.0
1577712647865,3775323.0,4083171.0,0.0
1577712647912,3708383.0,4039808.0,0.0
1577712647968,3599148.0,3935581.0,0.0
1577712648016,3557355.0,3900574.0,0.0
1577712648066,3515891.0,3876731.0,0.0
1577712648115,3529866.0,3902762.0,0.0
1577712648166,3542383.0,3931763.0,0.0
1577712648213,3517297.0,3916143.0,0.0
1577712648262,3506600.0,3916411.0,0.0
1577712648313,3525455.0,3941538.0,0.0
1577712648355,3544543.0,3983618.0,0.0
1577712648412,3506226.0,3945061.0,0.0
1577712648462,3465951.0,3901974.0,0.0
1577712648511,3554364.0,3951689.0,0.0
1577712648553,3589690.0,3986948.0,0.0
1577712648610,3484598.0,3877083.0,0.0
1577712648655,3410306.0,3815491.0,0.0
1577712648709,3390092.0,3820523.0,0.0
1577712648756,3397008.0,3833671.0,0.0
1577712648806,3404663.0,3853870.0,0.0
1577712648855,3324285.0,3741314.0,0.0
1577712648898,3326671.0,3725777.0,0.0
1577712648954,3325291.0,3747362.0,0.0
1577712648998,3318972.0,3769435.0,0.0
1577712649053,3361259.0,3826909.0,0.0
1577712649094,3450894.0,3946731.0,0.0
1577712649152,3497246.0,4021603.0,0.0
1577712649193,3514063.0,4040035.0,0.0
1577712649251,3594561.0,4091863.0,0.0
1577712649295,3679394.0,4135133.0,0.0
1577712649343,3504042.0,3935731.0,0.0
1577712649396,3434666.0,3852956.0,0.0
1577712649447,3483237.0,3889432.0,0.0
1577712649495,3552518.0,3950951.0,0.0
1577712649545,3596157.0,3986604.0,0.0
1577712649595,3638737.0,4012669.0,0.0
1577712649641,3687873.0,4053961.0,0.0
1577712649693,3706181.0,4068817.0,0.0
1577712649734,3781955.0,4148431.0,0.0
1577712649792,3738307.0,4105067.0,0.0
1577712649836,3733556.0,4100670.0,0.0
1577712649892,3775636.0,4155168.0,0.0
1577712649938,3788013.0,4194706.0,0.0
1577712649990,3780004.0,4197808.0,0.0
1577712650038,3869909.0,4257170.0,0.0
1577712650088,3892689.0,4300123.0,0.0
1577712650136,3823955.0,4178909.0,0.0
1577712650185,3685367.0,4029649.0,0.0
1577712650234,3571415.0,3934307.0,0.0
1577712650278,3523799.0,3900633.0,0.0
1577712650333,3514548.0,3897435.0,0.0
1577712650375,3545575.0,3933988.0,0.0
1577712650432,3646374.0,4008693.0,0.0
1577712650475,3722721.0,4053540.0,0.0
1577712650531,3774951.0,4120059.0,0.0
1577712650578,3772290.0,4121937.0,0.0
1577712650631,3800697.0,4155034.0,0.0
1577712650673,3759849.0,4074498.0,0.0
1577712650725,3671080.0,4009715.0,0.0
1577712650776,3715006.0,4069623.0,0.0
1577712650824,3757716.0,4127408.0,0.0
1577712650878,3676273.0,4046931.0,0.0
1577712650920,3643333.0,4031244.0,0.0
1577712650973,3640766.0,4033566.0,0.0
1577712651016,3629133.0,4024070.0,0.0
1577712651073,3649227.0,4038649.0,0.0
1577712651114,3602683.0,3983215.0,0.0
1577712651171,3587366.0,3963702.0,0.0
1577712651215,3619709.0,4017651.0,0.0
1577712651270,3629600.0,4030520.0,0.0
1577712651314,3576929.0,3999398.0,0.0
1577712651362,3609341.0,4046518.0,0.0
1577712651416,3638312.0,4101678.0,0.0
1577712651465,3643192.0,4123717.0,0.0
1577712651515,3616658.0,4081997.0,0.0
1577712651564,3619675.0,4055505.0,0.0
1577712651613,3551045.0,3994296.0,0.0
1577712651656,3490458.0,3931243.0,0.0
1577712651713,3489357.0,3925749.0,0.0
1577712651758,3501173.0,3955565.0,0.0
1577712651813,3500478.0,3969156.0,0.0
1577712651858,3501468.0,3964743.0,0.0
1577712651902,3572144.0,3999766.0,0.0
1577712651958,3696845.0,4069069.0,0.0
1577712652007,3733601.0,4117585.0,0.0
1577712652057,3765562.0,4162592.0,0.0
1577712652100,3785465.0,4192381.0,0.0
1577712652155,3806669.0,4235501.0,0.0
1577712652199,3808394.0,4256483.0,0.0
1577712652248,3825974.0,4269872.0,0.0
1577712652296,3937690.0,4325006.0,0.0
1577712652346,3952089.0,4354779.0,0.0
1577712652397,3792444.0,4122920.0,0.0
1577712652446,3689537.0,4020697.0,0.0
1577712652499,3640679.0,3979826.0,0.0
1577712652545,3636136.0,3989650.0,0.0
1577712652593,3638261.0,3992878.0,0.0
1577712652643,3683399.0,4018432.0,0.0
1577712652693,3750954.0,4065572.0,0.0
1577712652742,3798200.0,4134152.0,0.0
1577712652791,3795825.0,4143725.0,0.0
1577712652841,3799761.0,4152742.0,0.0
1577712652890,3757100.0,4075345.0,0.0
1577712652942,3717902.0,4033641.0,0.0
1577712652988,3731632.0,4082383.0,0.0
1577712653041,3851513.0,4216122.0,0.0
1577712653086,3987171.0,4343570.0,0.0
1577712653140,3933779.0,4283001.0,0.0
1577712653192,3829329.0,4182389.0,0.0
1577712653240,3824969.0,4187473.0,0.0
1577712653289,3829814.0,4166013.0,0.0
1577712653338,3991141.0,4301525.0,0.0
1577712653388,4064696.0,4360492.0,0.0
1577712653437,4205962.0,4482537.0,0.0
1577712653479,4233321.0,4560597.0,0.0
1577712653535,4249185.0,4613526.0,0.0
1577712653581,4247617.0,4627200.0,0.0
1577712653635,4210271.0,4609347.0,0.0
1577712653679,4184811.0,4611655.0,0.0
1577712653732,4298624.0,4716259.0,0.0
1577712653785,4393589.0,4802818.0,0.0
1577712653832,4380578.0,4859629.0,0.0
1577712653886,4265360.0,4653718.0,0.0
1577712653927,4208310.0,4566018.0,0.0
1577712653979,4156056.0,4503308.0,0.0
1577712654027,4135694.0,4479894.0,0.0
1577712654077,4095305.0,4432731.0,0.0
1577712654119,4157590.0,4509549.0,0.0
1577712654176,4135901.0,4441748.0,0.0
1577712654220,4082362.0,4370541.0,0.0
1577712654275,3972634.0,4298329.0,0.0
1577712654320,3973170.0,4322757.0,0.0
1577712654372,3978865.0,4353302.0,0.0
1577712654421,3955340.0,4347899.0,0.0
1577712654471,3980105.0,4380005.0,0.0
1577712654521,4025270.0,4418570.0,0.0
1577712654569,3800549.0,4179974.0,0.0
1577712654620,3617223.0,4010589.0,0.0
1577712654667,3556012.0,3960882.0,0.0
1577712654717,3550671.0,3970488.0,0.0
1577712654759,3530680.0,3966059.0,0.0
1577712654816,3542887.0,3979373.0,0.0
1577712654862,3581238.0,4028458.0,0.0
1577712654916,3563969.0,4026536.0,0.0
1577712654961,3533177.0,4003793.0,0.0
1577712655014,3446525.0,3925111.0,0.0
1577712655063,3382834.0,3881303.0,0.0
1577712655110,3341078.0,3862176.0,0.0
1577712655160,3332053.0,3880482.0,0.0
1577712655203,3377208.0,3956587.0,0.0
1577712655251,3559757.0,4102761.0,0.0
1577712655301,3546823.0,4058213.0,0.0
1577712655349,3524197.0,4020002.0,0.0
1577712655399,3495165.0,3971797.0,0.0
1577712655456,3407957.0,3887780.0,0.0
1577712655501,3325118.0,3820389.0,0.0
1577712655554,3267082.0,3785819.0,0.0
1577712655602,3317394.0,3849299.0,0.0
1577712655653,3337559.0,3879919.0,0.0
1577712655704,3291103.0,3858795.0,0.0
1577712655750,3259115.0,3844392.0,0.0
1577712655802,3272482.0,3871128.0,0.0
1577712655845,3193266.0,3788007.0,0.0
1577712655902,3094798.0,3729753.0,0.0
1577712655943,3053846.0,3731029.0,0.0
1577712655999,3093914.0,3815885.0,0.0
1577712656042,3058511.0,3768068.0,0.0
1577712656096,3009531.0,3727691.0,0.0
1577712656143,3001451.0,3711768.0,0.0
1577712656196,3030397.0,3752102.0,0.0
1577712656244,3040471.0,3760365.0,0.0
1577712656293,3027147.0,3706197.0,0.0
1577712656345,3039187.0,3715508.0,0.0
1577712656391,2981999.0,3670467.0,0.0
1577712656442,2972464.0,3679955.0,0.0
1577712656483,2954632.0,3685384.0,0.0
1577712656540,2966204.0,3718387.0,0.0
1577712656583,2985614.0,3759668.0,0.0
1577712656639,2987938.0,3770374.0,0.0
1577712656683,2888488.0,3656659.0,0.0
1577712656738,2810851.0,3677045.0,0.0
1577712656783,2796497.0,3629377.0,0.0
1577712656834,2763294.0,3597641.0,0.0
1577712656884,2794372.0,3600166.0,0.0
1577712656931,2793669.0,3629309.0,0.0
1577712656983,2847571.0,3668219.0,0.0
1577712657029,2885751.0,3694797.0,0.0
1577712657082,3035001.0,3747128.0,0.0
1577712657131,3170974.0,3812815.0,0.0
1577712657179,3273159.0,3948793.0,0.0
1577712657222,3291773.0,3981454.0,0.0
1577712657279,3340541.0,4049666.0,0.0
1577712657323,3404737.0,4117845.0,0.0
1577712657377,3465276.0,4187566.0,0.0
1577712657423,3539114.0,4257078.0,0.0
1577712657475,3648696.0,4307833.0,0.0
1577712657523,3627152.0,4233313.0,0.0
1577712657572,3431708.0,3999900.0,0.0
1577712657624,3338140.0,3898686.0,0.0
1577712657665,3324363.0,3889399.0,0.0
1577712657723,3335409.0,3899365.0,0.0
1577712657764,3347612.0,3921731.0,0.0
1577712657820,3384403.0,3953156.0,0.0
1577712657864,3446716.0,4006662.0,0.0
1577712657918,3465782.0,4023994.0,0.0
1577712657966,3401520.0,3947838.0,0.0
1577712658016,3397221.0,3946831.0,0.0
1577712658063,3410027.0,3969507.0,0.0
1577712658110,3418772.0,3993004.0,0.0
1577712658165,3437826.0,4024917.0,0.0
1577712658206,3552274.0,4125620.0,0.0
1577712658265,3524215.0,4103180.0,0.0
1577712658305,3435335.0,3984524.0,0.0
1577712658356,3312373.0,3844853.0,0.0
1577712658404,3234901.0,3776717.0,0.0
1577712658460,3226853.0,3777647.0,0.0
1577712658505,3227038.0,3781859.0,0.0
1577712658550,3310900.0,3881027.0,0.0
1577712658607,3352080.0,3944348.0,0.0
1577712658656,3391410.0,3971529.0,0.0
1577712658706,3398385.0,3966084.0,0.0
1577712658753,3416604.0,3978953.0,0.0
1577712658802,3360812.0,3916596.0,0.0
1577712658851,3309799.0,3884710.0,0.0
1577712658906,3371605.0,3944037.0,0.0
1577712658946,3486553.0,4027024.0,0.0
1577712659003,3464632.0,3999120.0,0.0
1577712659044,3372405.0,3893678.0,0.0
1577712659102,3331139.0,3867932.0,0.0
1577712659146,3318560.0,3865457.0,0.0
1577712659200,3241622.0,3780792.0,0.0
1577712659248,3201792.0,3743989.0,0.0
1577712659296,3240888.0,3768545.0,0.0
1577712659348,3257122.0,3810013.0,0.0
1577712659393,3263439.0,3831212.0,0.0
1577712659443,3265204.0,3842562.0,0.0
1577712659488,3274491.0,3891169.0,0.0
1577712659544,3298157.0,3915548.0,0.0
1577712659585,3278441.0,3867152.0,0.0
1577712659643,3201017.0,3809686.0,0.0
1577712659685,3193155.0,3788326.0,0.0
1577712659741,3122848.0,3734905.0,0.0
1577712659784,3079308.0,3702111.0,0.0
1577712659839,3080362.0,3718948.0,0.0
1577712659892,3104814.0,3749091.0,0.0
1577712659936,3133332.0,3760601.0,0.0
1577712659984,3221597.0,3814560.0,0.0
1577712660027,3186830.0,3759057.0,0.0
1577712660078,3123449.0,3725517.0,0.0
1577712660126,3111617.0,3723125.0,0.0
1577712660183,3136262.0,3755365.0,0.0
1577712660225,3172827.0,3815155.0,0.0
1577712660280,3200737.0,3856530.0,0.0
1577712660325,3235681.0,3894584.0,0.0
1577712660380,3315445.0,3947694.0,0.0
1577712660424,3225437.0,3805557.0,0.0
1577712660477,3017516.0,3625778.0,0.0
1577712660525,2932626.0,3544789.0,0.0
1577712660578,2916857.0,3548741.0,0.0
1577712660622,2957098.0,3592758.0,0.0
1577712660673,3004848.0,3639385.0,0.0
1577712660722,3033386.0,3654479.0,0.0
1577712660772,3124914.0,3732463.0,0.0
1577712660824,3054376.0,3660267.0,0.0
1577712660867,2978917.0,3605510.0,0.0
1577712660923,2962964.0,3595099.0,0.0
1577712660964,2973722.0,3623328.0,0.0
1577712661021,3001063.0,3682507.0,0.0
1577712661066,3030176.0,3731892.0,0.0
1577712661119,3082997.0,3796136.0,0.0
1577712661168,3190985.0,3873820.0,0.0
1577712661217,3162837.0,3802680.0,0.0
1577712661264,3019322.0,3659922.0,0.0
1577712661313,2962348.0,3592968.0,0.0
1577712661358,2948756.0,3578648.0,0.0
1577712661407,2962013.0,3593565.0,0.0
1577712661464,2984706.0,3615611.0,0.0
1577712661505,3071362.0,3694486.0,0.0
1577712661562,3089005.0,3713436.0,0.0
1577712661604,3077733.0,3717278.0,0.0
1577712661661,3057107.0,3698186.0,0.0
1577712661710,3028006.0,3673697.0,0.0
1577712661759,3005395.0,3663026.0,0.0
1577712661807,2995738.0,3670324.0,0.0
1577712661855,3021437.0,3729367.0,0.0
1577712661904,3100367.0,3804678.0,0.0
1577712661949,3098177.0,3764033.0,0.0
1577712662003,3087439.0,3733394.0,0.0
1577712662048,3066024.0,3691398.0,0.0
1577712662104,2970780.0,3582533.0,0.0
1577712662147,2919369.0,3541225.0,0.0
1577712662202,2916488.0,3547601.0,0.0
1577712662251,2973222.0,3582533.0,0.0
1577712662300,3023833.0,3640468.0,0.0
1577712662351,3040737.0,3676381.0,0.0
1577712662398,3050284.0,3691751.0,0.0
1577712662448,3070390.0,3723983.0,0.0
1577712662495,3088321.0,3736466.0,0.0
1577712662542,3033228.0,3678547.0,0.0
1577712662593,3006600.0,3675099.0,0.0
1577712662643,3102153.0,3780071.0,0.0
1577712662687,3238666.0,3870029.0,0.0
1577712662744,3214986.0,3809619.0,0.0
1577712662786,3130979.0,3710827.0,0.0
1577712662842,3129474.0,3715283.0,0.0
1577712662891,3103254.0,3679024.0,0.0
1577712662941,3033482.0,3608322.0,0.0
1577712662988,3111432.0,3608271.0,0.0
1577712663038,3215416.0,3648286.0,0.0
1577712663087,3368813.0,3775349.0,0.0
1577712663136,3451432.0,3873946.0,0.0
1577712663183,3495424.0,3979875.0,0.0
1577712663233,3497669.0,3990178.0,0.0
1577712663286,3539236.0,4041981.0,0.0
1577712663330,3503252.0,3977795.0,0.0
1577712663384,3464728.0,3927042.0,0.0
1577712663430,3604801.0,4040907.0,0.0
1577712663481,3629377.0,4090721.0,0.0
1577712663531,3560116.0,4000505.0,0.0
1577712663580,3526137.0,3957126.0,0.0
1577712663627,3521627.0,3961957.0,0.0
1577712663677,3509089.0,3967284.0,0.0
1577712663727,3476740.0,3900464.0,0.0
1577712663776,3526036.0,3870388.0,0.0
1577712663823,3658400.0,4023306.0,0.0
1577712663873,3863454.0,4206350.0,0.0
1577712663923,3906960.0,4270224.0,0.0
1577712663967,3884869.0,4294469.0,0.0
1577712664024,3844736.0,4265610.0,0.0
1577712664073,3833218.0,4253118.0,0.0
1577712664122,3745980.0,4100386.0,0.0
1577712664166,3656643.0,4014447.0,0.0
1577712664211,3698675.0,4045630.0,0.0
1577712664269,3652008.0,4002870.0,0.0
1577712664318,3540981.0,3916001.0,0.0
1577712664364,3518890.0,3918703.0,0.0
1577712664415,3524857.0,3938525.0,0.0
1577712664463,3532804.0,3951303.0,0.0
1577712664509,3549947.0,3960380.0,0.0
1577712664566,3520211.0,3903904.0,0.0
1577712664608,3592907.0,3939683.0,0.0
1577712664665,3616065.0,3937586.0,0.0
1577712664709,3581415.0,3924492.0,0.0
1577712664761,3579745.0,3945723.0,0.0
1577712664809,3615764.0,3987023.0,0.0
1577712664859,3645752.0,4032904.0,0.0
1577712664907,3648546.0,4056754.0,0.0
1577712664950,3625947.0,4001503.0,0.0
1577712665006,3644576.0,4002811.0,0.0
1577712665048,3576864.0,3922671.0,0.0
1577712665104,3468533.0,3842856.0,0.0
1577712665147,3447757.0,3850430.0,0.0
1577712665206,3451150.0,3870766.0,0.0
1577712665254,3463285.0,3884281.0,0.0
1577712665304,3486313.0,3900373.0,0.0
1577712665354,3501570.0,3911178.0,0.0
1577712665396,3573997.0,3995958.0,0.0
1577712665450,3654698.0,4046813.0,0.0
1577712665498,3710996.0,4096997.0,0.0
1577712665547,3723361.0,4135352.0,0.0
1577712665597,3753303.0,4155745.0,0.0
1577712665646,3778029.0,4189462.0,0.0
1577712665691,3757007.0,4199143.0,0.0
1577712665743,3814842.0,4230721.0,0.0
1577712665789,3820613.0,4259588.0,0.0
1577712665843,3726531.0,4082694.0,0.0
1577712665892,3649223.0,4029137.0,0.0
1577712665944,3632134.0,4034582.0,0.0
1577712665994,3620890.0,4036965.0,0.0
1577712666042,3618755.0,4040076.0,0.0
1577712666091,3639594.0,4063532.0,0.0
1577712666139,3672301.0,4088364.0,0.0
1577712666191,3706130.0,4101619.0,0.0
1577712666235,3664156.0,4050923.0,0.0
1577712666287,3645460.0,4051518.0,0.0
1577712666328,3688391.0,4096595.0,0.0
1577712666383,3718257.0,4145787.0,0.0
1577712666434,3726311.0,4170512.0,0.0
1577712666486,3778167.0,4207490.0,0.0
1577712666536,3852216.0,4260979.0,0.0
1577712666583,3784949.0,4157374.0,0.0
1577712666631,3607696.0,3985698.0,0.0
1577712666682,3539305.0,3933844.0,0.0
1577712666731,3529677.0,3932905.0,0.0
1577712666778,3553842.0,3969826.0,0.0
1577712666829,3548298.0,3970304.0,0.0
1577712666872,3595623.0,4023617.0,0.0
1577712666920,3660830.0,4058843.0,0.0
1577712666970,3743024.0,4116778.0,0.0
1577712667018,3790951.0,4175319.0,0.0
1577712667068,3810525.0,4207181.0,0.0
1577712667117,3838159.0,4240199.0,0.0
1577712667168,3848350.0,4268789.0,0.0
1577712667214,3828024.0,4270124.0,0.0
1577712667268,3919752.0,4321598.0,0.0
1577712667321,3959909.0,4335719.0,0.0
1577712667367,3960328.0,4338151.0,0.0
1577712667418,3769961.0,4078699.0,0.0
1577712667469,3709407.0,4030815.0,0.0
1577712667511,3686605.0,4031402.0,0.0
1577712667571,3688622.0,4051427.0,0.0
1577712667610,3686631.0,4044842.0,0.0
1577712667664,3838898.0,4156844.0,0.0
1577712667712,3978498.0,4327773.0,0.0
1577712667767,4018828.0,4395491.0,0.0
1577712667812,4021243.0,4437337.0,0.0
1577712667863,3978971.0,4390912.0,0.0
1577712667916,3934848.0,4320558.0,0.0
1577712667959,3928866.0,4329821.0,0.0
1577712668010,3949836.0,4358085.0,0.0
1577712668052,4059692.0,4424417.0,0.0
1577712668109,4077602.0,4477730.0,0.0
1577712668151,4004045.0,4399475.0,0.0
1577712668208,3904030.0,4242472.0,0.0
1577712668251,3811762.0,4160889.0,0.0
1577712668305,3737610.0,4099212.0,0.0
1577712668354,3686467.0,4072216.0,0.0
1577712668400,3715807.0,4120419.0,0.0
1577712668454,3767052.0,4169488.0,0.0
1577712668505,3802934.0,4231895.0,0.0
1577712668552,3803406.0,4230729.0,0.0
1577712668600,3800409.0,4214259.0,0.0
1577712668650,3760613.0,4144538.0,0.0
1577712668692,3714452.0,4113684.0,0.0
1577712668749,3709291.0,4133020.0,0.0
1577712668791,3825424.0,4228396.0,0.0
1577712668849,3862830.0,4261995.0,0.0
1577712668891,3855256.0,4279302.0,0.0
1577712668942,3808369.0,4191703.0,0.0
1577712668994,3750702.0,4128969.0,0.0
1577712669044,3653418.0,4034925.0,0.0
1577712669093,3616483.0,4009986.0,0.0
1577712669142,3614142.0,4013029.0,0.0
1577712669192,3679794.0,4077139.0,0.0
1577712669238,3716148.0,4143967.0,0.0
1577712669292,3713233.0,4140905.0,0.0
1577712669332,3723745.0,4155192.0,0.0
1577712669391,3749737.0,4187692.0,0.0
1577712669431,3686166.0,4095276.0,0.0
1577712669489,3620329.0,4048264.0,0.0
1577712669533,3661590.0,4098876.0,0.0
1577712669586,3764705.0,4182172.0,0.0
1577712669635,3761735.0,4198044.0,0.0
1577712669685,3664737.0,4081468.0,0.0
1577712669734,3650421.0,4069623.0,0.0
1577712669783,3598238.0,4006932.0,0.0
1577712669833,3489428.0,3903191.0,0.0
1577712669878,3420832.0,3840146.0,0.0
1577712669933,3484212.0,3918652.0,0.0
1577712669973,3521531.0,3969137.0,0.0
1577712670031,3502486.0,3963156.0,0.0
1577712670071,3513744.0,3985229.0,0.0
1577712670123,3525207.0,4007677.0,0.0
1577712670170,3539031.0,4035815.0,0.0
1577712670229,3452074.0,3932814.0,0.0
1577712670274,3396325.0,3901824.0,0.0
1577712670323,3481262.0,3988433.0,0.0
1577712670376,3474425.0,3962997.0,0.0
1577712670426,3383862.0,3890062.0,0.0
1577712670474,3357931.0,3860809.0,0.0
1577712670524,3366788.0,3885356.0,0.0
1577712670573,3380591.0,3896539.0,0.0
1577712670616,3287084.0,3783972.0,0.0
1577712670672,3269475.0,3752547.0,0.0
1577712670719,3324856.0,3789921.0,0.0
1577712670771,3297830.0,3785784.0,0.0
1577712670813,3308519.0,3811750.0,0.0
1577712670870,3332335.0,3849098.0,0.0
1577712670917,3347037.0,3888325.0,0.0
1577712670969,3367397.0,3926916.0,0.0
1577712671015,3278065.0,3838368.0,0.0
1577712671066,3282952.0,3840784.0,0.0
1577712671115,3323877.0,3855575.0,0.0
1577712671168,3305398.0,3848242.0,0.0
1577712671213,3260956.0,3799241.0,0.0
1577712671261,3275731.0,3807101.0,0.0
1577712671312,3259881.0,3808426.0,0.0
1577712671355,3231985.0,3802924.0,0.0
1577712671412,3205835.0,3763092.0,0.0
1577712671460,3214581.0,3754930.0,0.0
1577712671510,3171561.0,3703805.0,0.0
1577712671557,3174846.0,3715189.0,0.0
1577712671608,3199813.0,3759786.0,0.0
1577712671657,3234115.0,3810147.0,0.0
1577712671706,3255235.0,3858519.0,0.0
1577712671755,3285879.0,3891748.0,0.0
1577712671806,3299827.0,3867822.0,0.0
1577712671854,3373836.0,3899727.0,0.0
1577712671901,3393355.0,3891000.0,0.0
1577712671953,3316786.0,3812126.0,0.0
1577712671996,3275396.0,3766926.0,0.0
1577712672045,3277450.0,3794358.0,0.0
1577712672097,3265582.0,3796782.0,0.0
1577712672143,3286593.0,3825188.0,0.0
1577712672197,3317835.0,3834593.0,0.0
1577712672244,3391234.0,3885062.0,0.0
1577712672298,3517651.0,3970472.0,0.0
1577712672347,3545327.0,4018625.0,0.0
1577712672396,3563485.0,4034582.0,0.0
1577712672447,3582092.0,4061805.0,0.0
1577712672495,3591893.0,4087399.0,0.0
1577712672542,3585625.0,4104622.0,0.0
1577712672593,3611706.0,4109756.0,0.0
1577712672636,3550557.0,3991964.0,0.0
1577712672692,3441357.0,3915205.0,0.0
1577712672735,3404613.0,3890129.0,0.0
1577712672791,3413660.0,3900942.0,0.0
1577712672837,3431625.0,3930624.0,0.0
1577712672888,3435698.0,3926446.0,0.0
1577712672940,3476343.0,3973325.0,0.0
1577712672989,3507736.0,3992358.0,0.0
1577712673037,3419184.0,3879174.0,0.0
1577712673084,3379825.0,3858326.0,0.0
1577712673128,3393731.0,3870726.0,0.0
1577712673179,3435211.0,3915666.0,0.0
1577712673227,3483117.0,3976880.0,0.0
1577712673277,3511950.0,4023903.0,0.0
1577712673326,3577589.0,4066216.0,0.0
1577712673378,3688307.0,4152718.0,0.0
1577712673423,3560289.0,3972545.0,0.0
1577712673476,3429977.0,3839811.0,0.0
1577712673523,3371784.0,3781690.0,0.0
1577712673572,3375644.0,3802798.0,0.0
1577712673622,3403326.0,3843535.0,0.0
1577712673671,3451479.0,3894727.0,0.0
1577712673721,3484891.0,3927226.0,0.0
1577712673769,3528978.0,3984682.0,0.0
1577712673820,3468363.0,3884182.0,0.0
1577712673867,3411943.0,3840231.0,0.0
1577712673919,3416090.0,3852856.0,0.0
1577712673966,3434370.0,3889877.0,0.0
1577712674015,3465447.0,3942436.0,0.0
1577712674065,3500302.0,3995422.0,0.0
1577712674116,3602980.0,4076401.0,0.0
1577712674168,3695309.0,4142222.0,0.0
1577712674219,3618344.0,4033944.0,0.0
1577712674267,3542152.0,3936932.0,0.0
1577712674316,3558296.0,3952887.0,0.0
1577712674358,3581614.0,3974574.0,0.0
1577712674415,3615148.0,4020648.0,0.0
1577712674464,3629842.0,4039279.0,0.0
1577712674510,3668118.0,4084951.0,0.0
1577712674556,3627767.0,4036301.0,0.0
1577712674612,3521135.0,3912730.0,0.0
1577712674657,3456215.0,3863023.0,0.0
1577712674711,3468883.0,3892410.0,0.0
1577712674759,3496380.0,3948257.0,0.0
1577712674808,3505792.0,3977837.0,0.0
1577712674859,3519266.0,4003811.0,0.0
1577712674901,3636864.0,4106678.0,0.0
1577712674958,3679329.0,4135586.0,0.0
1577712675004,3507468.0,3910757.0,0.0
1577712675055,3418745.0,3811523.0,0.0
1577712675106,3422770.0,3808796.0,0.0
1577712675154,3439782.0,3827681.0,0.0
1577712675201,3472400.0,3868846.0,0.0
1577712675253,3540455.0,3931168.0,0.0
1577712675299,3533563.0,3952772.0,0.0
1577712675352,3554478.0,3971965.0,0.0
1577712675399,3487518.0,3901496.0,0.0
1577712675450,3444376.0,3866940.0,0.0
1577712675499,3423221.0,3862393.0,0.0
1577712675548,3429532.0,3890113.0,0.0
1577712675598,3449577.0,3923819.0,0.0
1577712675645,3487882.0,3982325.0,0.0
1577712675696,3571061.0,4068591.0,0.0
1577712675741,3559145.0,4018308.0,0.0
1577712675794,3476924.0,3914240.0,0.0
1577712675839,3454854.0,3881581.0,0.0
1577712675893,3419881.0,3848159.0,0.0
1577712675943,3434300.0,3865439.0,0.0
1577712675993,3468602.0,3905724.0,0.0
1577712676041,3541475.0,3974741.0,0.0
1577712676091,3604492.0,4028306.0,0.0
1577712676140,3643585.0,4056200.0,0.0
1577712676183,3609098.0,3973172.0,0.0
1577712676239,3566748.0,3925095.0,0.0
1577712676284,3579615.0,3942024.0,0.0
1577712676336,3592242.0,3968006.0,0.0
1577712676383,3641244.0,4023818.0,0.0
1577712676434,3699435.0,4103172.0,0.0
1577712676478,3663800.0,4039866.0,0.0
1577712676534,3618769.0,3975320.0,0.0
1577712676581,3472524.0,3809718.0,0.0
1577712676632,3402321.0,3742581.0,0.0
1577712676681,3373960.0,3714720.0,0.0
1577712676732,3372686.0,3715173.0,0.0
1577712676779,3433098.0,3789610.0,0.0
1577712676827,3487148.0,3851656.0,0.0
1577712676877,3567412.0,3938669.0,0.0
1577712676920,3577118.0,3968132.0,0.0
1577712676977,3540926.0,3917561.0,0.0
1577712677020,3547142.0,3907663.0,0.0
1577712677066,3574974.0,3925388.0,0.0
1577712677117,3580389.0,3947973.0,0.0
1577712677168,3692304.0,4028574.0,0.0
1577712677219,3698285.0,4055170.0,0.0
1577712677266,3671562.0,4021386.0,0.0
1577712677313,3647000.0,4009734.0,0.0
1577712677365,3589006.0,3921538.0,0.0
1577712677419,3532564.0,3865498.0,0.0
1577712677466,3518000.0,3857168.0,0.0
1577712677517,3521751.0,3868090.0,0.0
1577712677562,3538935.0,3898754.0,0.0
1577712677616,3518890.0,3884265.0,0.0
1577712677662,3506448.0,3881522.0,0.0
1577712677713,3474919.0,3860776.0,0.0
1577712677762,3467836.0,3839191.0,0.0
1577712677811,3448139.0,3818544.0,0.0
1577712677863,3409328.0,3804149.0,0.0
1577712677909,3412169.0,3833955.0,0.0
1577712677954,3518890.0,3942822.0,0.0
1577712678006,3533994.0,3956219.0,0.0
1577712678059,3552473.0,3946747.0,0.0
1577712678100,3483016.0,3823855.0,0.0
1577712678157,3403457.0,3720978.0,0.0
1577712678203,3321406.0,3663110.0,0.0
1577712678255,3285067.0,3667866.0,0.0
1577712678302,3291526.0,3699167.0,0.0
1577712678352,3379317.0,3811112.0,0.0
1577712678403,3397044.0,3827218.0,0.0
1577712678445,3391534.0,3833443.0,0.0
1577712678497,3386997.0,3848746.0,0.0
1577712678546,3380585.0,3843872.0,0.0
1577712678595,3374138.0,3849283.0,0.0
1577712678645,3378285.0,3881211.0,0.0
1577712678699,3457015.0,3954054.0,0.0
1577712678741,3584666.0,4042888.0,0.0
1577712678797,3628418.0,4094472.0,0.0
1577712678842,3635549.0,4065848.0,0.0
1577712678895,3636077.0,4025823.0,0.0
1577712678946,3553670.0,3933056.0,0.0
1577712678994,3554533.0,3922688.0,0.0
1577712679044,3565121.0,3922679.0,0.0
1577712679090,3604630.0,3940648.0,0.0
1577712679133,3655793.0,3982023.0,0.0
1577712679182,3726051.0,4042426.0,0.0
1577712679231,3770556.0,4095479.0,0.0
1577712679282,3789897.0,4133465.0,0.0
1577712679338,3761044.0,4069313.0,0.0
1577712679383,3752401.0,4058500.0,0.0
1577712679437,3753701.0,4087332.0,0.0
1577712679482,3823583.0,4129857.0,0.0
1577712679535,3849589.0,4174110.0,0.0
1577712679583,3820448.0,4123331.0,0.0
1577712679632,3780303.0,4078364.0,0.0
1577712679685,3680589.0,3980405.0,0.0
1577712679725,3611782.0,3917720.0,0.0
1577712679782,3608901.0,3906178.0,0.0
1577712679823,3644105.0,3939482.0,0.0
1577712679879,3740909.0,4029364.0,0.0
1577712679924,3746007.0,4042695.0,0.0
1577712679978,3775114.0,4073171.0,0.0
1577712680027,3811462.0,4131888.0,0.0
1577712680075,3779460.0,4061854.0,0.0
1577712680125,3737228.0,4025673.0,0.0
1577712680170,3719905.0,4040722.0,0.0
1577712680225,3796337.0,4099917.0,0.0
1577712680271,3828201.0,4133331.0,0.0
1577712680323,3823678.0,4141870.0,0.0
1577712680365,3803619.0,4105847.0,0.0
1577712680420,3793852.0,4069404.0,0.0
1577712680465,3721029.0,3995530.0,0.0
1577712680519,3691188.0,3973853.0,0.0
1577712680566,3675524.0,3957284.0,0.0
1577712680609,3729192.0,4013249.0,0.0
1577712680667,3731171.0,4024423.0,0.0
1577712680714,3701455.0,4002905.0,0.0
1577712680762,3668242.0,3997460.0,0.0
1577712680811,3645740.0,3982754.0,0.0
1577712680865,3562922.0,3917620.0,0.0
1577712680905,3499111.0,3899140.0,0.0
1577712680955,3476896.0,3921773.0,0.0
1577712681118,3577910.0,4042561.0,0.0
1577712681120,3588766.0,4017911.0,0.0
1577712681121,3527747.0,3966764.0,0.0
1577712681159,3497955.0,3929835.0,0.0
1577712681219,3422455.0,3859634.0,0.0
1577712681255,3384582.0,3825928.0,0.0
1577712681309,3375821.0,3826212.0,0.0
1577712681346,3403881.0,3852001.0,0.0
1577712681403,3438537.0,3902730.0,0.0
1577712681451,3455099.0,3923846.0,0.0
1577712681502,3457714.0,3937452.0,0.0
1577712681547,3456845.0,3945287.0,0.0
1577712681600,3419046.0,3901169.0,0.0
1577712681644,3372960.0,3893057.0,0.0
1577712681698,3368492.0,3905641.0,0.0
1577712681742,3447844.0,3969826.0,0.0
1577712681796,3524707.0,4025858.0,0.0
1577712681849,3453574.0,3974499.0,0.0
1577712681895,3446402.0,3980011.0,0.0
1577712681951,3443553.0,3967837.0,0.0
1577712681993,3372160.0,3882158.0,0.0
1577712682043,3323556.0,3842553.0,0.0
1577712682087,3290103.0,3828049.0,0.0
1577712682143,3305262.0,3833057.0,0.0
1577712682186,3364679.0,3894139.0,0.0
1577712682239,3331139.0,3898518.0,0.0
1577712682283,3328853.0,3916025.0,0.0
1577712682338,3324574.0,3907923.0,0.0
1577712682390,3244865.0,3845760.0,0.0
1577712682437,3194215.0,3832295.0,0.0
1577712682483,3203707.0,3868141.0,0.0
1577712682535,3308369.0,3979615.0,0.0
1577712682590,3278913.0,3929575.0,0.0
1577712682632,3233019.0,3889751.0,0.0
1577712682682,3228139.0,3869232.0,0.0
1577712682731,3123244.0,3759853.0,0.0
1577712682782,3061479.0,3708688.0,0.0
1577712682830,3033051.0,3682238.0,0.0
1577712682879,3147759.0,3785591.0,0.0
1577712682924,3261092.0,3877528.0,0.0
1577712682978,3261667.0,3893241.0,0.0
1577712683026,3331959.0,3965110.0,0.0
1577712683076,3382042.0,4028885.0,0.0
1577712683128,3375286.0,3993524.0,0.0
1577712683174,3309293.0,3932283.0,0.0
1577712683224,3406098.0,4048550.0,0.0
1577712683273,3545047.0,4200669.0,0.0
1577712683323,3640866.0,4333336.0,0.0
1577712683366,3690951.0,4395062.0,0.0
1577712683421,3748587.0,4439954.0,0.0
1577712683468,3804426.0,4451464.0,0.0
1577712683516,3806500.0,4370667.0,0.0
1577712683564,3866191.0,4391448.0,0.0
1577712683614,3913695.0,4380700.0,0.0
1577712683665,4022318.0,4515356.0,0.0
1577712683710,4154766.0,4672249.0,0.0
1577712683770,4163362.0,4725268.0,0.0
1577712683814,4176601.0,4705259.0,0.0
1577712683864,4151096.0,4691679.0,0.0
1577712683912,4086731.0,4589364.0,0.0
1577712683962,4052524.0,4518343.0,0.0
1577712684004,4111012.0,4612207.0,0.0
1577712684062,4140781.0,4647895.0,0.0
1577712684103,4117402.0,4631401.0,0.0
1577712684159,4043127.0,4497897.0,0.0
1577712684204,4024992.0,4487092.0,0.0
1577712684257,3923984.0,4348117.0,0.0
1577712684310,3829711.0,4268489.0,0.0
1577712684355,3805291.0,4254142.0,0.0
1577712684405,3880216.0,4327791.0,0.0
1577712684453,3922354.0,4371498.0,0.0
1577712684502,3966703.0,4397413.0,0.0
1577712684552,3975606.0,4397513.0,0.0
1577712684603,3995379.0,4414913.0,0.0
1577712684649,4003736.0,4412982.0,0.0
1577712684700,3915046.0,4284779.0,0.0
1577712684748,3887384.0,4292195.0,0.0
1577712684799,3935894.0,4347857.0,0.0
1577712684847,3892039.0,4284763.0,0.0
1577712684897,3825688.0,4216500.0,0.0
1577712684948,3824891.0,4239823.0,0.0
1577712684996,3830639.0,4252464.0,0.0
1577712685045,3790874.0,4189261.0,0.0
1577712685093,3745917.0,4131200.0,0.0
1577712685142,3788265.0,4176735.0,0.0
1577712685190,3844518.0,4246727.0,0.0
1577712685242,3867030.0,4257162.0,0.0
1577712685284,3861768.0,4253639.0,0.0
1577712685340,3894865.0,4293227.0,0.0
1577712685388,3911293.0,4319309.0,0.0
1577712685438,3813751.0,4180226.0,0.0
1577712685491,3759416.0,4143272.0,0.0
1577712685536,3737423.0,4149052.0,0.0
1577712685586,3716289.0,4120368.0,0.0
1577712685635,3634499.0,4063414.0,0.0
1577712685684,3627329.0,4047242.0,0.0
1577712685732,3635722.0,4056411.0,0.0
1577712685783,3581393.0,3981301.0,0.0
1577712685827,3501545.0,3903888.0,0.0
1577712685882,3463828.0,3857219.0,0.0
1577712685926,3489834.0,3872260.0,0.0
1577712685973,3487191.0,3878611.0,0.0
1577712686025,3464643.0,3876933.0,0.0
1577712686078,3453181.0,3881539.0,0.0
1577712686124,3499093.0,3946530.0,0.0
1577712686169,3529988.0,3976655.0,0.0
1577712686222,3462146.0,3914575.0,0.0
1577712686270,3567593.0,4010053.0,0.0
1577712686320,3687873.0,4110915.0,0.0
1577712686367,3697789.0,4145487.0,0.0
1577712686420,3697842.0,4108767.0,0.0
1577712686467,3742937.0,4143825.0,0.0
1577712686518,3764782.0,4168842.0,0.0
1577712686570,3783627.0,4183188.0,0.0
1577712686618,3764989.0,4116006.0,0.0
1577712686672,3772844.0,4117660.0,0.0
1577712686717,3816726.0,4141535.0,0.0
1577712686766,3884247.0,4199889.0,0.0
1577712686816,3865886.0,4201988.0,0.0
1577712686865,3911033.0,4243665.0,0.0
1577712686914,3923984.0,4262733.0,0.0
1577712686964,3889828.0,4208178.0,0.0
1577712687007,3843399.0,4153892.0,0.0
1577712687064,3910851.0,4222372.0,0.0
1577712687110,3897648.0,4219495.0,0.0
1577712687161,3806703.0,4125435.0,0.0
1577712687209,3790354.0,4127331.0,0.0
1577712687259,3790258.0,4133103.0,0.0
1577712687308,3797160.0,4149243.0,0.0
1577712687352,3710976.0,4032660.0,0.0
1577712687406,3647223.0,3977738.0,0.0
1577712687455,3639413.0,3966772.0,0.0
1577712687505,3646496.0,3982585.0,0.0
1577712687553,3648004.0,4003114.0,0.0
1577712687602,3669079.0,4037569.0,0.0
1577712687646,3703598.0,4084817.0,0.0
1577712687703,3732508.0,4143053.0,0.0
1577712687751,3696428.0,4100303.0,0.0
1577712687801,3776424.0,4137811.0,0.0
1577712687851,3815694.0,4167844.0,0.0
1577712687898,3737301.0,4105906.0,0.0
1577712687948,3672165.0,4050604.0,0.0
1577712687997,3661397.0,4046368.0,0.0
1577712688046,3649556.0,4044456.0,0.0
1577712688096,3648394.0,4050218.0,0.0
1577712688145,3588762.0,3967603.0,0.0
1577712688189,3597092.0,3959281.0,0.0
1577712688243,3577250.0,3945163.0,0.0
1577712688288,3586456.0,3967930.0,0.0
1577712688342,3587279.0,3986470.0,0.0
1577712688393,3629515.0,4032056.0,0.0
1577712688440,3664979.0,4085302.0,0.0
1577712688488,3673856.0,4105362.0,0.0
1577712688539,3590895.0,4004926.0,0.0
1577712688587,3618149.0,4014565.0,0.0
1577712688636,3548157.0,3960011.0,0.0
1577712688686,3506860.0,3929868.0,0.0
1577712688736,3475748.0,3892520.0,0.0
1577712688785,3494741.0,3930975.0,0.0
1577712688829,3491976.0,3936814.0,0.0
1577712688884,3478452.0,3902915.0,0.0
1577712688932,3508039.0,3902277.0,0.0
1577712688982,3529467.0,3903987.0,0.0
1577712689033,3600282.0,3984650.0,0.0
1577712689079,3683269.0,4088289.0,0.0
1577712689128,3686182.0,4072567.0,0.0
1577712689178,3756208.0,4134572.0,0.0
1577712689222,3802526.0,4180545.0,0.0
1577712689276,3786800.0,4175687.0,0.0
1577712689325,3867194.0,4218841.0,0.0
1577712689375,3878950.0,4225393.0,0.0
1577712689424,3876219.0,4220887.0,0.0
1577712689470,3830013.0,4141468.0,0.0
1577712689524,3820921.0,4132500.0,0.0
1577712689573,3808022.0,4145428.0,0.0
1577712689621,3825194.0,4177566.0,0.0
1577712689670,3857556.0,4209771.0,0.0
1577712689719,3864472.0,4189244.0,0.0
1577712689769,3891789.0,4210200.0,0.0
1577712689819,3990109.0,4264192.0,0.0
1577712689867,4051943.0,4342068.0,0.0
1577712689916,4089461.0,4397287.0,0.0
1577712689968,4115980.0,4414862.0,0.0
1577712690013,4118495.0,4413007.0,0.0
1577712690064,4128818.0,4438938.0,0.0
1577712690111,4079406.0,4328110.0,0.0
1577712690164,4170447.0,4404258.0,0.0
1577712690212,4155969.0,4446002.0,0.0
1577712690261,4106514.0,4358227.0,0.0
1577712690309,4106644.0,4322446.0,0.0
1577712690355,4106124.0,4328387.0,0.0
1577712690408,4122500.0,4354090.0,0.0
1577712690457,4130171.0,4376137.0,0.0
1577712690507,4122386.0,4366045.0,0.0
1577712690554,4210582.0,4424903.0,0.0
1577712690605,4296602.0,4504139.0,0.0
1577712690651,4330463.0,4588458.0,0.0
1577712690704,4337580.0,4644849.0,0.0
1577712690753,4357032.0,4704245.0,0.0
1577712690806,4365502.0,4748783.0,0.0
1577712690851,4391050.0,4805292.0,0.0
1577712690894,4465879.0,4919224.0,0.0
1577712690943,4484030.0,5004123.0,0.0
1577712690992,4527912.0,5018930.0,0.0
1577712691042,4553831.0,4997042.0,0.0
1577712691097,4571075.0,5107204.0,0.0
1577712691146,4585360.0,5109376.0,0.0
1577712691190,4573240.0,5091295.0,0.0
1577712691241,4518385.0,5066634.0,0.0
1577712691291,4465340.0,5040493.0,0.0
1577712691340,4457262.0,5072243.0,0.0
1577712691392,4479835.0,5087146.0,0.0
1577712691438,4478707.0,5095129.0,0.0
1577712691486,4466078.0,5095377.0,0.0
1577712691536,4478023.0,5116239.0,0.0
1577712691588,4466381.0,5106312.0,0.0
1577712691639,4492708.0,5135528.0,0.0
1577712691687,4490861.0,5119201.0,0.0
1577712691735,4493427.0,5122978.0,0.0
1577712691780,4491816.0,5119609.0,0.0
1577712691831,4510045.0,5155055.0,0.0
1577712691882,4511414.0,5155134.0,0.0
1577712691932,4488600.0,5129524.0,0.0
1577712691979,4491633.0,5128202.0,0.0
1577712692028,4444615.0,5073680.0,0.0
1577712692082,4429218.0,5059998.0,0.0
1577712692130,4509395.0,5101314.0,0.0
1577712692180,4545493.0,5130000.0,0.0
1577712692222,4531137.0,5122074.0,0.0
1577712692278,4613725.0,5212995.0,0.0
1577712692327,4605783.0,5227479.0,0.0
1577712692372,4597922.0,5211286.0,0.0
1577712692426,4647281.0,5231221.0,0.0
1577712692475,4618467.0,5163310.0,0.0
1577712692521,4663241.0,5185743.0,0.0
1577712692579,4659937.0,5182577.0,0.0
1577712692623,4672802.0,5195231.0,0.0
1577712692671,4647793.0,5177998.0,0.0
1577712692721,4677483.0,5206560.0,0.0
1577712692770,4724467.0,5260539.0,0.0
1577712692820,4767171.0,5316272.0,0.0
1577712692868,4803232.0,5367495.0,0.0
1577712692917,4822651.0,5351675.0,0.0
1577712692970,4819157.0,5347866.0,0.0
1577712693013,4762030.0,5303269.0,0.0
1577712693067,4725144.0,5282092.0,0.0
1577712693113,4730865.0,5314283.0,0.0
1577712693165,4589433.0,4989486.0,0.0
1577712693216,4621899.0,5012384.0,0.0
1577712693263,4611175.0,5030519.0,0.0
1577712693311,4586063.0,5020558.0,0.0
1577712693358,4512845.0,4890548.0,0.0
1577712693409,4496132.0,4875274.0,0.0
1577712693461,4484014.0,4867821.0,0.0
1577712693508,4472007.0,4836581.0,0.0
1577712693557,4338318.0,4678574.0,0.0
1577712693607,4371147.0,4729490.0,0.0
1577712693651,4428464.0,4815798.0,0.0
1577712693706,4439300.0,4853438.0,0.0
1577712693757,4430415.0,4859048.0,0.0
1577712693805,4445437.0,4876993.0,0.0
1577712693852,4473185.0,4912327.0,0.0
1577712693903,4443166.0,4886489.0,0.0
1577712693951,4452130.0,4847548.0,0.0
1577712694003,4468315.0,4866793.0,0.0
1577712694049,4412860.0,4803970.0,0.0
1577712694101,4310308.0,4689464.0,0.0
1577712694148,4296777.0,4690119.0,0.0
1577712694194,4288463.0,4693150.0,0.0
1577712694247,4272174.0,4693782.0,0.0
1577712694296,4196028.0,4587710.0,0.0
1577712694346,4149650.0,4555767.0,0.0
1577712694398,4203899.0,4637269.0,0.0
1577712694444,4214796.0,4659714.0,0.0
1577712694492,4180510.0,4629016.0,0.0
1577712694544,4198239.0,4663468.0,0.0
1577712694591,4226629.0,4705170.0,0.0
1577712694643,4199781.0,4662688.0,0.0
1577712694689,4107103.0,4556649.0,0.0
1577712694740,4177989.0,4624934.0,0.0
1577712694788,4212272.0,4659013.0,0.0
1577712694835,4173419.0,4601224.0,0.0
1577712694887,4119100.0,4529999.0,0.0
1577712694939,4130673.0,4547277.0,0.0
1577712694986,4123070.0,4551358.0,0.0
1577712695035,4071734.0,4473916.0,0.0
1577712695080,4013342.0,4419789.0,0.0
1577712695132,4088622.0,4501855.0,0.0
1577712695184,4161995.0,4576188.0,0.0
1577712695231,4185711.0,4608833.0,0.0
1577712695282,4205746.0,4623961.0,0.0
1577712695329,4225926.0,4648825.0,0.0
1577712695375,4258868.0,4684669.0,0.0
1577712695428,4224843.0,4665175.0,0.0
1577712695480,4218904.0,4634014.0,0.0
1577712695526,4275260.0,4680486.0,0.0
1577712695581,4263791.0,4677353.0,0.0
1577712695625,4211502.0,4598351.0,0.0
1577712695674,4215801.0,4608956.0,0.0
1577712695724,4214578.0,4622841.0,0.0
1577712695772,4235357.0,4664972.0,0.0
1577712695824,4229290.0,4659319.0,0.0
1577712695871,4208979.0,4654039.0,0.0
1577712695922,4239987.0,4680439.0,0.0
1577712695972,4313827.0,4722039.0,0.0
1577712696015,4344490.0,4759669.0,0.0
1577712696068,4373599.0,4779932.0,0.0
1577712696117,4367618.0,4766419.0,0.0
1577712696166,4370141.0,4761762.0,0.0
1577712696215,4235115.0,4555203.0,0.0
1577712696265,4263688.0,4603020.0,0.0
1577712696313,4269391.0,4640209.0,0.0
1577712696360,4253553.0,4608741.0,0.0
1577712696411,4183145.0,4516736.0,0.0
1577712696458,4192932.0,4532555.0,0.0
1577712696511,4189612.0,4538888.0,0.0
1577712696557,4133802.0,4454570.0,0.0
1577712696610,4071578.0,4392628.0,0.0
1577712696660,4108820.0,4433086.0,0.0
1577712696708,4111264.0,4467086.0,0.0
1577712696758,4137652.0,4505441.0,0.0
1577712696807,4130474.0,4505067.0,0.0
1577712696849,4119214.0,4504842.0,0.0
1577712696903,4118408.0,4518603.0,0.0
1577712696951,4042079.0,4405371.0,0.0
1577712697000,3983833.0,4361658.0,0.0
1577712697049,3988740.0,4370434.0,0.0
1577712697100,3943332.0,4328066.0,0.0
1577712697150,3870384.0,4271575.0,0.0
1577712697201,3853289.0,4253123.0,0.0
1577712697249,3866788.0,4286760.0,0.0
1577712697297,3896261.0,4325963.0,0.0
1577712697349,3876349.0,4290232.0,0.0
1577712697399,3943844.0,4350612.0,0.0
1577712697447,3979958.0,4407271.0,0.0
1577712697496,3983477.0,4415278.0,0.0
1577712697546,3972788.0,4408482.0,0.0
1577712697596,3995761.0,4447548.0,0.0
1577712697646,4046266.0,4512111.0,0.0
1577712697694,3983106.0,4433787.0,0.0
1577712697744,3938149.0,4384239.0,0.0
1577712697787,3907262.0,4318421.0,0.0
1577712697843,3817055.0,4246225.0,0.0
1577712697889,3760717.0,4190403.0,0.0
1577712697940,3756988.0,4203857.0,0.0
1577712697990,3742017.0,4197400.0,0.0
1577712698040,3744991.0,4197479.0,0.0
1577712698088,3729708.0,4158244.0,0.0
1577712698136,3701786.0,4114090.0,0.0
1577712698187,3714720.0,4123509.0,0.0
1577712698229,3786384.0,4213910.0,0.0
1577712698284,3805379.0,4247954.0,0.0
1577712698332,3866857.0,4335313.0,0.0
1577712698378,3901653.0,4393862.0,0.0
1577712698431,3923976.0,4436433.0,0.0
1577712698480,3973059.0,4424980.0,0.0
1577712698529,4030793.0,4458018.0,0.0
1577712698583,4058107.0,4527874.0,0.0
1577712698629,4001838.0,4454016.0,0.0
1577712698678,4001536.0,4443207.0,0.0
1577712698728,4048190.0,4490199.0,0.0
1577712698776,4019965.0,4438954.0,0.0
1577712698826,4040821.0,4428517.0,0.0
1577712698875,4071458.0,4444834.0,0.0
1577712698923,4046959.0,4388683.0,0.0
1577712698974,4029110.0,4386805.0,0.0
1577712699019,4061722.0,4433255.0,0.0
1577712699071,4079762.0,4475408.0,0.0
1577712699119,4083100.0,4495274.0,0.0
1577712699169,4101591.0,4534962.0,0.0
1577712699219,4088370.0,4497198.0,0.0
1577712699269,4106002.0,4465233.0,0.0
1577712699318,4053495.0,4369822.0,0.0
1577712699368,3998553.0,4321812.0,0.0
1577712699417,3971480.0,4306718.0,0.0
1577712699466,3966409.0,4321440.0,0.0
1577712699515,3952028.0,4313898.0,0.0
1577712699560,3960470.0,4307746.0,0.0
1577712699613,3946877.0,4274356.0,0.0
1577712699660,3985714.0,4284070.0,0.0
1577712699711,3988922.0,4312677.0,0.0
1577712699762,3960228.0,4312699.0,0.0
1577712699810,3967189.0,4340142.0,0.0
1577712699862,3973587.0,4374956.0,0.0
1577712699909,3949653.0,4375102.0,0.0
1577712699962,3968142.0,4382283.0,0.0
1577712700008,3902208.0,4275894.0,0.0
1577712700056,3815614.0,4206955.0,0.0
1577712700107,3757891.0,4155530.0,0.0
1577712700149,3747703.0,4164803.0,0.0
1577712700202,3752602.0,4180337.0,0.0
1577712700253,3759364.0,4200114.0,0.0
1577712700304,3797176.0,4237021.0,0.0
1577712700346,3833126.0,4273848.0,0.0
1577712700403,3820383.0,4222978.0,0.0
1577712700450,3775939.0,4188027.0,0.0
1577712700500,3758896.0,4191148.0,0.0
1577712700549,3770650.0,4232781.0,0.0
1577712700597,3801417.0,4287711.0,0.0
1577712700648,3824812.0,4324028.0,0.0
1577712700695,3909290.0,4386976.0,0.0
1577712700746,3927998.0,4407430.0,0.0
1577712700794,3847318.0,4254648.0,0.0
1577712700843,3801581.0,4205043.0,0.0
1577712700893,3824613.0,4249719.0,0.0
1577712700942,3823851.0,4276709.0,0.0
1577712700992,3805769.0,4273554.0,0.0
1577712701045,3830934.0,4308358.0,0.0
1577712701102,3855024.0,4326572.0,0.0
1577712701132,3839827.0,4297705.0,0.0
1577712701185,3789852.0,4238084.0,0.0
1577712701232,3845922.0,4316984.0,0.0
1577712701285,3893243.0,4378790.0,0.0
1577712701332,3890393.0,4391375.0,0.0
1577712701384,3905763.0,4431323.0,0.0
1577712701434,3933163.0,4443331.0,0.0
1577712701480,3860356.0,4323508.0,0.0
1577712701525,3705600.0,4175307.0,0.0
1577712701582,3631266.0,4091012.0,0.0
1577712701624,3616467.0,4081322.0,0.0
1577712701680,3628544.0,4100408.0,0.0
1577712701729,3657090.0,4135879.0,0.0
1577712701778,3702028.0,4205236.0,0.0
1577712701828,3701327.0,4236930.0,0.0
1577712701870,3748640.0,4215005.0,0.0
1577712701922,3683858.0,4169732.0,0.0
1577712701970,3704031.0,4202851.0,0.0
1577712702022,3721750.0,4240367.0,0.0
1577712702070,3763663.0,4294200.0,0.0
1577712702124,3808499.0,4352997.0,0.0
1577712702165,3927677.0,4411365.0,0.0
1577712702220,3956309.0,4439011.0,0.0
1577712702270,3901870.0,4357678.0,0.0
1577712702321,3859506.0,4298485.0,0.0
1577712702369,3855709.0,4294235.0,0.0
1577712702418,3844309.0,4281029.0,0.0
1577712702463,3886423.0,4328078.0,0.0
1577712702516,3898749.0,4315899.0,0.0
1577712702566,3900761.0,4349470.0,0.0
1577712702615,3833240.0,4241521.0,0.0
1577712702665,3765180.0,4176325.0,0.0
1577712702713,3715084.0,4143827.0,0.0
1577712702767,3700833.0,4151324.0,0.0
1577712702812,3711573.0,4182962.0,0.0
1577712702862,3734761.0,4227748.0,0.0
1577712702909,3811143.0,4295184.0,0.0
1577712702964,3913260.0,4373180.0,0.0
1577712703004,3914240.0,4343013.0,0.0
1577712703058,3813831.0,4240481.0,0.0
1577712703102,3793657.0,4208369.0,0.0
1577712703156,3824753.0,4249029.0,0.0
1577712703204,3876045.0,4314758.0,0.0
1577712703255,3876782.0,4310686.0,0.0
1577712703308,3902797.0,4322163.0,0.0
1577712703353,3943393.0,4347694.0,0.0
1577712703407,4011773.0,4390265.0,0.0
1577712703452,4024957.0,4425216.0,0.0
1577712703502,4025626.0,4434511.0,0.0
1577712703550,4038430.0,4459432.0,0.0
1577712703599,4043005.0,4481515.0,0.0
1577712703643,4054700.0,4514306.0,0.0
1577712703698,4131957.0,4545206.0,0.0
1577712703741,4201272.0,4604840.0,0.0
1577712703796,4120374.0,4509952.0,0.0
1577712703843,4068892.0,4431118.0,0.0
1577712703894,4094169.0,4454389.0,0.0
1577712703945,4115807.0,4476653.0,0.0
1577712703993,4149424.0,4522197.0,0.0
1577712704044,4126565.0,4475375.0,0.0
1577712704091,4200137.0,4513525.0,0.0
1577712704140,4252288.0,4549345.0,0.0
1577712704188,4210616.0,4532114.0,0.0
1577712704239,4214674.0,4563876.0,0.0
1577712704282,4229861.0,4619936.0,0.0
1577712704337,4236381.0,4654220.0,0.0
1577712704384,4236718.0,4697593.0,0.0
1577712704436,4286980.0,4739892.0,0.0
1577712704488,4340727.0,4809047.0,0.0
1577712704535,4281311.0,4711840.0,0.0
1577712704588,4198523.0,4631730.0,0.0
1577712704633,4221019.0,4634579.0,0.0
1577712704684,4266384.0,4667595.0,0.0
1577712704732,4293412.0,4687654.0,0.0
1577712704784,4308254.0,4702411.0,0.0
1577712704830,4318917.0,4684105.0,0.0
1577712704881,4316576.0,4642596.0,0.0
1577712704930,4377258.0,4734218.0,0.0
1577712704980,4332613.0,4699424.0,0.0
1577712705022,4335301.0,4726550.0,0.0
1577712705077,4342521.0,4749799.0,0.0
1577712705126,4333106.0,4780259.0,0.0
1577712705175,4328643.0,4780180.0,0.0
1577712705228,4401972.0,4809431.0,0.0
1577712705274,4368936.0,4800284.0,0.0
1577712705324,4274913.0,4650036.0,0.0
1577712705372,4281415.0,4634985.0,0.0
1577712705423,4307240.0,4661229.0,0.0
1577712705471,4311367.0,4681175.0,0.0
1577712705521,4315674.0,4685043.0,0.0
1577712705569,4317876.0,4650170.0,0.0
1577712705620,4346735.0,4655473.0,0.0
1577712705663,4343023.0,4658901.0,0.0
1577712705718,4311391.0,4627931.0,0.0
1577712705768,4324569.0,4658742.0,0.0
1577712705816,4344143.0,4702468.0,0.0
1577712705869,4344949.0,4734250.0,0.0
1577712705914,4358593.0,4776167.0,0.0
1577712705965,4382025.0,4780034.0,0.0
1577712706005,4394049.0,4807486.0,0.0
1577712706056,4309995.0,4679411.0,0.0
1577712706111,4226021.0,4570739.0,0.0
1577712706161,4239353.0,4589474.0,0.0
1577712706207,4239865.0,4592674.0,0.0
1577712706259,4205381.0,4563842.0,0.0
1577712706306,4268560.0,4608776.0,0.0
1577712706352,4254039.0,4591114.0,0.0
1577712706408,4179661.0,4514791.0,0.0
1577712706455,4193531.0,4549345.0,0.0
1577712706505,4156783.0,4531242.0,0.0
1577712706554,4168470.0,4579185.0,0.0
1577712706602,4176713.0,4606933.0,0.0
1577712706652,4205624.0,4645229.0,0.0
1577712706703,4323086.0,4714951.0,0.0
1577712706747,4211423.0,4585201.0,0.0
1577712706800,4006822.0,4410109.0,0.0
1577712706844,4003746.0,4433086.0,0.0
1577712706893,4064219.0,4486479.0,0.0
1577712706943,4084807.0,4493070.0,0.0
1577712706991,4090918.0,4505746.0,0.0
1577712707042,4098139.0,4509964.0,0.0
1577712707088,4073512.0,4492483.0,0.0
1577712707141,4225259.0,4605496.0,0.0
1577712707189,4258261.0,4692494.0,0.0
1577712707240,4245205.0,4699810.0,0.0
1577712707288,4272503.0,4735382.0,0.0
1577712707342,4307482.0,4788445.0,0.0
1577712707387,4282489.0,4768873.0,0.0
1577712707439,4356382.0,4829084.0,0.0
1577712707489,4305038.0,4793455.0,0.0
1577712707537,4248846.0,4652511.0,0.0
1577712707592,4197518.0,4589724.0,0.0
1577712707635,4189249.0,4595106.0,0.0
1577712707685,4200630.0,4602105.0,0.0
1577712707734,4219660.0,4628937.0,0.0
1577712707784,4183875.0,4582883.0,0.0
1577712707833,4201360.0,4594767.0,0.0
1577712707881,4253962.0,4630938.0,0.0
1577712707929,4249644.0,4654151.0,0.0
1577712707983,4274948.0,4682465.0,0.0
1577712708024,4294471.0,4700714.0,0.0
1577712708080,4292477.0,4718862.0,0.0
1577712708131,4280478.0,4733968.0,0.0
1577712708177,4335985.0,4756152.0,0.0
1577712708231,4315345.0,4749901.0,0.0
1577712708276,4225103.0,4591646.0,0.0
1577712708327,4139871.0,4502771.0,0.0
1577712708374,4140686.0,4511490.0,0.0
1577712708424,4145436.0,4536535.0,0.0
1577712708473,4145237.0,4553427.0,0.0
1577712708522,4129105.0,4538390.0,0.0
1577712708570,4144552.0,4541815.0,0.0
1577712708622,4113172.0,4496079.0,0.0
1577712708668,4090130.0,4485562.0,0.0
1577712708720,4091093.0,4497560.0,0.0
1577712708769,4106705.0,4528485.0,0.0
1577712708817,4124493.0,4574685.0,0.0
1577712708867,4138709.0,4611366.0,0.0
1577712708916,4167507.0,4643535.0,0.0
1577712708966,4199590.0,4626732.0,0.0
1577712709015,4138839.0,4566816.0,0.0
1577712709064,4044948.0,4474900.0,0.0
1577712709112,4050080.0,4480971.0,0.0
1577712709162,4069126.0,4503789.0,0.0
1577712709206,4090095.0,4536183.0,0.0
1577712709261,4073183.0,4516193.0,0.0
1577712709309,4084660.0,4524550.0,0.0
1577712709354,4094742.0,4543490.0,0.0
1577712709410,4080603.0,4518940.0,0.0
1577712709457,4072445.0,4517392.0,0.0
1577712709507,4068207.0,4519517.0,0.0
1577712709556,4083151.0,4546281.0,0.0
1577712709605,4086706.0,4566781.0,0.0
1577712709655,4062720.0,4532973.0,0.0
1577712709704,4055143.0,4485369.0,0.0
1577712709752,3941798.0,4370027.0,0.0
1577712709802,3865244.0,4295682.0,0.0
1577712709848,3838701.0,4280055.0,0.0
1577712709901,3830257.0,4285053.0,0.0
1577712709950,3818841.0,4284860.0,0.0
1577712710000,3803192.0,4277940.0,0.0
1577712710053,3809444.0,4244969.0,0.0
1577712710097,3741568.0,4150794.0,0.0
1577712710141,3733010.0,4157001.0,0.0
1577712710196,3727238.0,4157305.0,0.0
1577712710241,3737431.0,4177850.0,0.0
1577712710294,3753140.0,4230507.0,0.0
1577712710344,3748614.0,4254740.0,0.0
1577712710390,3751310.0,4271055.0,0.0
1577712710441,3726709.0,4222752.0,0.0
1577712710490,3689398.0,4162789.0,0.0
1577712710541,3632323.0,4119742.0,0.0
1577712710593,3598392.0,4089033.0,0.0
1577712710639,3601184.0,4088718.0,0.0
1577712710688,3584455.0,4083311.0,0.0
1577712710737,3568859.0,4084217.0,0.0
1577712710786,3506505.0,4016837.0,0.0
1577712710835,3453139.0,3961874.0,0.0
1577712710885,3407386.0,3932474.0,0.0
1577712710934,3433252.0,3971236.0,0.0
1577712710986,3453651.0,3999412.0,0.0
1577712711027,3469886.0,4041171.0,0.0
1577712711082,3458210.0,4066736.0,0.0
1577712711131,3445605.0,4058018.0,0.0
1577712711181,3391114.0,4006107.0,0.0
1577712711235,3436773.0,4008120.0,0.0
1577712711278,3355233.0,3948259.0,0.0
1577712711328,3312089.0,3895298.0,0.0
1577712711378,3358086.0,3942255.0,0.0
1577712711427,3355450.0,3953235.0,0.0
1577712711476,3376359.0,3973351.0,0.0
1577712711525,3375303.0,3973339.0,0.0
1577712711574,3362637.0,3944279.0,0.0
1577712711623,3439053.0,3919744.0,0.0
1577712711668,3594518.0,4046350.0,0.0
1577712711723,3648430.0,4130259.0,0.0
1577712711771,3677045.0,4159171.0,0.0
1577712711821,3719868.0,4248090.0,0.0
1577712711872,3731640.0,4256333.0,0.0
1577712711920,3711695.0,4207894.0,0.0
1577712711968,3679620.0,4187564.0,0.0
1577712712018,3829459.0,4317698.0,0.0
1577712712066,3892110.0,4393681.0,0.0
1577712712116,3893660.0,4374085.0,0.0
1577712712159,3801815.0,4216781.0,0.0
1577712712208,3749707.0,4174051.0,0.0
1577712712261,3619571.0,4024311.0,0.0
1577712712310,3551876.0,3949220.0,0.0
1577712712359,3555232.0,3953879.0,0.0
1577712712408,3594449.0,4005575.0,0.0
1577712712459,3582807.0,4002771.0,0.0
1577712712510,3607765.0,4006152.0,0.0
1577712712559,3649495.0,4036071.0,0.0
1577712712608,3617196.0,4019868.0,0.0
1577712712658,3569690.0,4000782.0,0.0
1577712712707,3556748.0,4017483.0,0.0
1577712712757,3553446.0,4040943.0,0.0
1577712712806,3556047.0,4051799.0,0.0
1577712712851,3510016.0,4003494.0,0.0
1577712712904,3469220.0,3959929.0,0.0
1577712712952,3443074.0,3934035.0,0.0
1577712713002,3393324.0,3877489.0,0.0
1577712713052,3321555.0,3785053.0,0.0
1577712713101,3251998.0,3698429.0,0.0
1577712713149,3189071.0,3642211.0,0.0
1577712713199,3150703.0,3622853.0,0.0
1577712713248,3134136.0,3624096.0,0.0
1577712713298,3125562.0,3552668.0,0.0
1577712713346,3116409.0,3553808.0,0.0
1577712713391,3070699.0,3500109.0,0.0
1577712713445,3053535.0,3498985.0,0.0
1577712713489,3037557.0,3521099.0,0.0
1577712713544,3016996.0,3547534.0,0.0
1577712713594,3017350.0,3571401.0,0.0
1577712713642,3018997.0,3582634.0,0.0
1577712713695,3018071.0,3582785.0,0.0
1577712713740,3005968.0,3572599.0,0.0
1577712713790,2976087.0,3532416.0,0.0
1577712713840,2958100.0,3514699.0,0.0
1577712713888,2946222.0,3519270.0,0.0
1577712713937,2950749.0,3533137.0,0.0
1577712713980,2976390.0,3554998.0,0.0
1577712714029,3001443.0,3563623.0,0.0
1577712714079,2951641.0,3476770.0,0.0
1577712714131,2827859.0,3330757.0,0.0
1577712714184,2756352.0,3268821.0,0.0
1577712714236,2747570.0,3279953.0,0.0
1577712714282,2770549.0,3315539.0,0.0
1577712714330,2815837.0,3354481.0,0.0
1577712714381,2835279.0,3399464.0,0.0
1577712714428,2873543.0,3437576.0,0.0
1577712714479,2936813.0,3457466.0,0.0
1577712714527,2954689.0,3459925.0,0.0
1577712714576,2934418.0,3460236.0,0.0
1577712714627,2956728.0,3517214.0,0.0
1577712714671,2997012.0,3585024.0,0.0
1577712714725,3045479.0,3664050.0,0.0
1577712714777,3154911.0,3758301.0,0.0
1577712714823,3244722.0,3832832.0,0.0
1577712714872,3284341.0,3823317.0,0.0
1577712714922,3219153.0,3716307.0,0.0
1577712714969,3213370.0,3713395.0,0.0
1577712715021,3243093.0,3738957.0,0.0
1577712715068,3291459.0,3780709.0,0.0
1577712715119,3335606.0,3818670.0,0.0
1577712715167,3326882.0,3806799.0,0.0
1577712715213,3335265.0,3815322.0,0.0
1577712715266,3435786.0,3884239.0,0.0
1577712715309,3428553.0,3874232.0,0.0
1577712715360,3425253.0,3888459.0,0.0
1577712715415,3467739.0,3939305.0,0.0
1577712715464,3487471.0,3975757.0,0.0
1577712715516,3495588.0,3994229.0,0.0
1577712715557,3598559.0,4052577.0,0.0
1577712715611,3585576.0,4042585.0,0.0
1577712715661,3602186.0,3996101.0,0.0
1577712715710,3516255.0,3889769.0,0.0
1577712715761,3496250.0,3883528.0,0.0
1577712715809,3513695.0,3906622.0,0.0
1577712715860,3519335.0,3921596.0,0.0
1577712715907,3512764.0,3921564.0,0.0
1577712715957,3539045.0,3951654.0,0.0
1577712716008,3527151.0,3922921.0,0.0
1577712716055,3529157.0,3916537.0,0.0
1577712716105,3528513.0,3918567.0,0.0
1577712716156,3582695.0,3971907.0,0.0
1577712716203,3617269.0,4022871.0,0.0
1577712716252,3635037.0,4071468.0,0.0
1577712716297,3642605.0,4101040.0,0.0
1577712716351,3685776.0,4110906.0,0.0
1577712716397,3575503.0,3975840.0,0.0
1577712716450,3483467.0,3883392.0,0.0
1577712716498,3470634.0,3878367.0,0.0
1577712716548,3464126.0,3883710.0,0.0
1577712716595,3456796.0,3892244.0,0.0
1577712716648,3451288.0,3886437.0,0.0
1577712716694,3466658.0,3893384.0,0.0
1577712716745,3421756.0,3852060.0,0.0
1577712716799,3383131.0,3836606.0,0.0
1577712716839,3386518.0,3846849.0,0.0
1577712716896,3418999.0,3893124.0,0.0
1577712716944,3443177.0,3941404.0,0.0
1577712716986,3459699.0,3978248.0,0.0
1577712717036,3539510.0,4047762.0,0.0
1577712717084,3542351.0,3989288.0,0.0
1577712717137,3468143.0,3913392.0,0.0
1577712717183,3408652.0,3862152.0,0.0
1577712717236,3380140.0,3851060.0,0.0
1577712717283,3381932.0,3844853.0,0.0
1577712717337,3438175.0,3884064.0,0.0
1577712717387,3438441.0,3895968.0,0.0
1577712717439,3480202.0,3950606.0,0.0
1577712717485,3471587.0,3925272.0,0.0
1577712717533,3453738.0,3929289.0,0.0
1577712717583,3434658.0,3931656.0,0.0
1577712717631,3455538.0,3966520.0,0.0
1577712717683,3449988.0,3980722.0,0.0
1577712717729,3448653.0,3996629.0,0.0
1577712717780,3451753.0,4068307.0,0.0
1577712717828,3503225.0,4040966.0,0.0
1577712717875,3407262.0,3956445.0,0.0
1577712717927,3376410.0,3916344.0,0.0
1577712717979,3380912.0,3926152.0,0.0
1577712718027,3388420.0,3943543.0,0.0
1577712718075,3395764.0,3951865.0,0.0
1577712718124,3411458.0,3956866.0,0.0
1577712718173,3433370.0,3948718.0,0.0
1577712718223,3397262.0,3885431.0,0.0
1577712718265,3362297.0,3867050.0,0.0
1577712718322,3355290.0,3870884.0,0.0
1577712718370,3391185.0,3910397.0,0.0
1577712718420,3434821.0,3965464.0,0.0
1577712718469,3495230.0,4042483.0,0.0
1577712718517,3620636.0,4118867.0,0.0
1577712718566,3714403.0,4185561.0,0.0
1577712718617,3752687.0,4245904.0,0.0
1577712718666,3753092.0,4206240.0,0.0
1577712718715,3833171.0,4282498.0,0.0
1577712718765,3847446.0,4295602.0,0.0
1577712718813,3788596.0,4237724.0,0.0
1577712718863,3792203.0,4229697.0,0.0
1577712718911,3855118.0,4268068.0,0.0
1577712718963,3842805.0,4238405.0,0.0
1577712719009,3904893.0,4303051.0,0.0
1577712719054,3906391.0,4322446.0,0.0
1577712719108,3936312.0,4360836.0,0.0
1577712719159,3982254.0,4416398.0,0.0
1577712719206,3981523.0,4433275.0,0.0
1577712719259,3979723.0,4403134.0,0.0
1577712719299,4079971.0,4505624.0,0.0
1577712719355,4003718.0,4434852.0,0.0
1577712719400,3939933.0,4287270.0,0.0
1577712719452,3954901.0,4285283.0,0.0
1577712719504,3945224.0,4286626.0,0.0
1577712719551,3896401.0,4259813.0,0.0
1577712719603,3891821.0,4263220.0,0.0
1577712719650,3997537.0,4340709.0,0.0
1577712719697,3983754.0,4319695.0,0.0
1577712719749,4023298.0,4374174.0,0.0
1577712719801,3936627.0,4301230.0,0.0
1577712719847,3959013.0,4335575.0,0.0
1577712719902,3968239.0,4367380.0,0.0
1577712719947,3956583.0,4378544.0,0.0
1577712719999,3952841.0,4400197.0,0.0
1577712720053,3984054.0,4382413.0,0.0
1577712720088,3937751.0,4307598.0,0.0
1577712720138,3852806.0,4225141.0,0.0
1577712720186,3871187.0,4225468.0,0.0
1577712720238,3870776.0,4238531.0,0.0
1577712720285,3864035.0,4240678.0,0.0
1577712720339,3855364.0,4230879.0,0.0
1577712720386,3866656.0,4250719.0,0.0
1577712720439,3838728.0,4198733.0,0.0
1577712720488,3830891.0,4196014.0,0.0
1577712720542,3817039.0,4197264.0,0.0
1577712720587,3821330.0,4211458.0,0.0
1577712720637,3873131.0,4262121.0,0.0
1577712720687,3893902.0,4290988.0,0.0
1577712720735,3876429.0,4286466.0,0.0
1577712720785,3930605.0,4275224.0,0.0
1577712720833,3887120.0,4210358.0,0.0
1577712720884,3818894.0,4169732.0,0.0
1577712720932,3783478.0,4143607.0,0.0
1577712720979,3763009.0,4118893.0,0.0
1577712721030,3785640.0,4146586.0,0.0
1577712721083,3767785.0,4136443.0,0.0
1577712721128,3775353.0,4141618.0,0.0
1577712721180,3745617.0,4108818.0,0.0
1577712721228,3731076.0,4100319.0,0.0
1577712721271,3717983.0,4089506.0,0.0
1577712721327,3720090.0,4105746.0,0.0
1577712721375,3739158.0,4149890.0,0.0
1577712721425,3742496.0,4175855.0,0.0
1577712721473,3755446.0,4188137.0,0.0
1577712721519,3812372.0,4194698.0,0.0
1577712721571,3752578.0,4136275.0,0.0
1577712721619,3663664.0,4069715.0,0.0
1577712721670,3640155.0,4051980.0,0.0
1577712721719,3651427.0,4066226.0,0.0
1577712721769,3669473.0,4093801.0,0.0
1577712721819,3653938.0,4070940.0,0.0
1577712721862,3666005.0,4041016.0,0.0
1577712721918,3672669.0,4017359.0,0.0
1577712721963,3726817.0,4079616.0,0.0
1577712722017,3701749.0,4069178.0,0.0
1577712722066,3687507.0,4080772.0,0.0
1577712722114,3705595.0,4127776.0,0.0
1577712722160,3735974.0,4179134.0,0.0
1577712722212,3751393.0,4182792.0,0.0
1577712722262,3777257.0,4139899.0,0.0
1577712722310,3720569.0,4084951.0,0.0
1577712722359,3673266.0,4073146.0,0.0
1577712722405,3747486.0,4099421.0,0.0
1577712722462,3820064.0,4170201.0,0.0
1577712722509,3788050.0,4178043.0,0.0
1577712722557,3769216.0,4168456.0,0.0
1577712722601,3826874.0,4200988.0,0.0
1577712722655,3802743.0,4172582.0,0.0
1577712722706,3802079.0,4154504.0,0.0
1577712722754,3761694.0,4127232.0,0.0
1577712722800,3762446.0,4141980.0,0.0
1577712722853,3776229.0,4176534.0,0.0
1577712722904,3779959.0,4211063.0,0.0
1577712722951,3757937.0,4202508.0,0.0
1577712723011,3786400.0,4188019.0,0.0
1577712723050,3854023.0,4221592.0,0.0
1577712723106,3786892.0,4157332.0,0.0
1577712723149,3752817.0,4128256.0,0.0
1577712723200,3729501.0,4112877.0,0.0
1577712723248,3730740.0,4134219.0,0.0
1577712723296,3762269.0,4158246.0,0.0
1577712723341,3719379.0,4066728.0,0.0
1577712723395,3783300.0,4128650.0,0.0
1577712723441,3815562.0,4191341.0,0.0
1577712723493,3874761.0,4258915.0,0.0
1577712723541,3963648.0,4352396.0,0.0
1577712723591,4030333.0,4431983.0,0.0
1577712723640,4066858.0,4494508.0,0.0
1577712723691,4077952.0,4526008.0,0.0
1577712723741,4226204.0,4593952.0,0.0
1577712723789,4243116.0,4642980.0,0.0
1577712723838,4268560.0,4688674.0,0.0
1577712723888,4308063.0,4770519.0,0.0
1577712723936,4330142.0,4769202.0,0.0
1577712723985,4352006.0,4778481.0,0.0
1577712724036,4341715.0,4790359.0,0.0
1577712724081,4335760.0,4787238.0,0.0
1577712724135,4353080.0,4782927.0,0.0
1577712724186,4360041.0,4712994.0,0.0
1577712724232,4429218.0,4795820.0,0.0
1577712724286,4420419.0,4817993.0,0.0
1577712724331,4416457.0,4844529.0,0.0
1577712724381,4405345.0,4855334.0,0.0
1577712724429,4392021.0,4870276.0,0.0
1577712724478,4369881.0,4841744.0,0.0
1577712724528,4458926.0,4905912.0,0.0
1577712724577,4436906.0,4901625.0,0.0
1577712724622,4352205.0,4749647.0,0.0
1577712724675,4337078.0,4695714.0,0.0
1577712724725,4338533.0,4711208.0,0.0
1577712724774,4293213.0,4641410.0,0.0
1577712724826,4221220.0,4535942.0,0.0
1577712724873,4176272.0,4472395.0,0.0
1577712724928,4221791.0,4500146.0,0.0
1577712724971,4270701.0,4545296.0,0.0
1577712725013,4290846.0,4597150.0,0.0
1577712725062,4275234.0,4592912.0,0.0
1577712725119,4262716.0,4587249.0,0.0
1577712725164,4205850.0,4484307.0,0.0
1577712725217,4117004.0,4400869.0,0.0
1577712725261,4118599.0,4409896.0,0.0
1577712725314,4199287.0,4512922.0,0.0
1577712725361,4149642.0,4485111.0,0.0
1577712725409,4096493.0,4427444.0,0.0
1577712725466,4087537.0,4409736.0,0.0
1577712725512,4071127.0,4378126.0,0.0
1577712725562,4014971.0,4305466.0,0.0
1577712725610,3963166.0,4239059.0,0.0
1577712725662,3983053.0,4264588.0,0.0
1577712725707,3986399.0,4274478.0,0.0
1577712725759,3974245.0,4268739.0,0.0
1577712725804,3972929.0,4266004.0,0.0
1577712725857,3959222.0,4268269.0,0.0
1577712725901,3937733.0,4251558.0,0.0
1577712725955,3884948.0,4204688.0,0.0
1577712726005,3862261.0,4199521.0,0.0
1577712726047,3935800.0,4277422.0,0.0
1577712726108,3939709.0,4294721.0,0.0
1577712726152,3880129.0,4236751.0,0.0
1577712726203,3821511.0,4163431.0,0.0
1577712726250,3767574.0,4090026.0,0.0
1577712726301,3691530.0,4001210.0,0.0
1577712726349,3650562.0,3964936.0,0.0
1577712726398,3624269.0,3943879.0,0.0
1577712726441,3676862.0,4011361.0,0.0
1577712726491,3671688.0,4030270.0,0.0
1577712726541,3672685.0,4027568.0,0.0
1577712726589,3687543.0,4034413.0,0.0
1577712726645,3626957.0,3965220.0,0.0
1577712726694,3581029.0,3933517.0,0.0
1577712726745,3564109.0,3943659.0,0.0
1577712726792,3568105.0,3973692.0,0.0
1577712726842,3661458.0,4058382.0,0.0
1577712726890,3676334.0,4083809.0,0.0
1577712726940,3634610.0,4035831.0,0.0
1577712726989,3585217.0,3956177.0,0.0
1577712727040,3553091.0,3920816.0,0.0
1577712727083,3525853.0,3894534.0,0.0
1577712727138,3514904.0,3891204.0,0.0
1577712727184,3528210.0,3900732.0,0.0
1577712727236,3568408.0,3935741.0,0.0
1577712727284,3606810.0,3990144.0,0.0
1577712727334,3604782.0,3990656.0,0.0
1577712727382,3581368.0,3954062.0,0.0
1577712727428,3568026.0,3939382.0,0.0
1577712727476,3566084.0,3961236.0,0.0
1577712727526,3567670.0,3989942.0,0.0
1577712727578,3580647.0,4013549.0,0.0
1577712727626,3630311.0,4046301.0,0.0
1577712727674,3637922.0,4028072.0,0.0
1577712727727,3550177.0,3920146.0,0.0
1577712727778,3379541.0,3755131.0,0.0
1577712727822,3331376.0,3727036.0,0.0
1577712727870,3323776.0,3739201.0,0.0
1577712727923,3313787.0,3745249.0,0.0
1577712727968,3288970.0,3746868.0,0.0
1577712728030,3284731.0,3748555.0,0.0
1577712728074,3242705.0,3694065.0,0.0
1577712728123,3204605.0,3635427.0,0.0
1577712728172,3178875.0,3622901.0,0.0
1577712728222,3124652.0,3617247.0,0.0
1577712728271,3139346.0,3656634.0,0.0
1577712728320,3165492.0,3710845.0,0.0
1577712728370,3174324.0,3728613.0,0.0
1577712728415,3158357.0,3728587.0,0.0
1577712728463,3125849.0,3682614.0,0.0
1577712728518,3091468.0,3658983.0,0.0
1577712728565,3085314.0,3662522.0,0.0
1577712728616,3095405.0,3656608.0,0.0
1577712728667,3072424.0,3627859.0,0.0
1577712728714,3022240.0,3571527.0,0.0
1577712728765,2937510.0,3505125.0,0.0
1577712728813,2820240.0,3402670.0,0.0
1577712728863,2747499.0,3347888.0,0.0
1577712728912,2728984.0,3357594.0,0.0
1577712728962,2737548.0,3394649.0,0.0
1577712729010,2730057.0,3449270.0,0.0
1577712729061,2756459.0,3498138.0,0.0
1577712729106,2769661.0,3536166.0,0.0
1577712729158,2748631.0,3511594.0,0.0
1577712729208,2684771.0,3434774.0,0.0
1577712729257,2657416.0,3413583.0,0.0
1577712729309,2635749.0,3407628.0,0.0
1577712729355,2616380.0,3411781.0,0.0
1577712729404,2620001.0,3418760.0,0.0
1577712729454,2640977.0,3436495.0,0.0
1577712729504,2669667.0,3463952.0,0.0
1577712729551,2653748.0,3434640.0,0.0
1577712729603,2645481.0,3400338.0,0.0
1577712729644,2613788.0,3364892.0,0.0
1577712729700,2573738.0,3339030.0,0.0
1577712729745,2560056.0,3321211.0,0.0
1577712729799,2562001.0,3334215.0,0.0
1577712729848,2589819.0,3353786.0,0.0
1577712729897,2585071.0,3312099.0,0.0
1577712729948,2606587.0,3324080.0,0.0
1577712729995,2624566.0,3349524.0,0.0
1577712730046,2646438.0,3393558.0,0.0
1577712730093,2706931.0,3467040.0,0.0
1577712730143,2773083.0,3538448.0,0.0
1577712730192,2829078.0,3591828.0,0.0
1577712730243,2879683.0,3636668.0,0.0
1577712730286,2894169.0,3627406.0,0.0
1577712730341,2899145.0,3629754.0,0.0
1577712730386,2954093.0,3678906.0,0.0
1577712730439,3011616.0,3728386.0,0.0
1577712730490,3017474.0,3718613.0,0.0
1577712730537,2991057.0,3689797.0,0.0
1577712730590,2998422.0,3696676.0,0.0
1577712730635,2985246.0,3659133.0,0.0
1577712730685,2981189.0,3632103.0,0.0
1577712730734,3081067.0,3696339.0,0.0
1577712730783,3206473.0,3784870.0,0.0
1577712730833,3287283.0,3857570.0,0.0
1577712730882,3370518.0,3980539.0,0.0
1577712730929,3386662.0,4008718.0,0.0
1577712730982,3414653.0,4030212.0,0.0
1577712731026,3431125.0,4047376.0,0.0
1577712731073,3459439.0,4074305.0,0.0
1577712731126,3576563.0,4125628.0,0.0
1577712731174,3649792.0,4195728.0,0.0
1577712731223,3667202.0,4243858.0,0.0
1577712731269,3659044.0,4203213.0,0.0
1577712731325,3710358.0,4253529.0,0.0
1577712731374,3725600.0,4265274.0,0.0
1577712731418,3738684.0,4260408.0,0.0
1577712731473,3706581.0,4209101.0,0.0
1577712731522,3733353.0,4212851.0,0.0
1577712731567,3758019.0,4233807.0,0.0
1577712731620,3746507.0,4231718.0,0.0
1577712731667,3759380.0,4221592.0,0.0
1577712731719,3768120.0,4219436.0,0.0
1577712731768,3750676.0,4173807.0,0.0
1577712731818,3759845.0,4189545.0,0.0
1577712731866,3751306.0,4203221.0,0.0
1577712731909,3838913.0,4280275.0,0.0
1577712731966,3847145.0,4306364.0,0.0
1577712732014,3765349.0,4194285.0,0.0
1577712732065,3758689.0,4176048.0,0.0
1577712732109,3705055.0,4123497.0,0.0
1577712732161,3656553.0,4089815.0,0.0
1577712732205,3622846.0,4063240.0,0.0
1577712732263,3700024.0,4125135.0,0.0
1577712732310,3715718.0,4162876.0,0.0
1577712732355,3769626.0,4224428.0,0.0
1577712732405,3784771.0,4238128.0,0.0
1577712732454,3800697.0,4248271.0,0.0
1577712732504,3793942.0,4219377.0,0.0
1577712732552,3789177.0,4224075.0,0.0
1577712732602,3835771.0,4254142.0,0.0
1577712732648,3966904.0,4376665.0,0.0
1577712732703,3980572.0,4429702.0,0.0
1577712732753,3974337.0,4428251.0,0.0
1577712732802,3994910.0,4418033.0,0.0
1577712732846,3995593.0,4409283.0,0.0
1577712732903,3987470.0,4387563.0,0.0
1577712732950,3991344.0,4370876.0,0.0
1577712732995,4012170.0,4379359.0,0.0
1577712733051,3981228.0,4343226.0,0.0
1577712733097,4010991.0,4396397.0,0.0
1577712733147,4005099.0,4400416.0,0.0
1577712733196,3984042.0,4342916.0,0.0
1577712733246,4015065.0,4351004.0,0.0
1577712733290,4037485.0,4387606.0,0.0
1577712733345,4022154.0,4379627.0,0.0
1577712733388,4141761.0,4463057.0,0.0
1577712733443,4090451.0,4433552.0,0.0
1577712733489,4178180.0,4529105.0,0.0
1577712733543,4122630.0,4354452.0,0.0
1577712733592,4091318.0,4316936.0,0.0
1577712733640,4064835.0,4273438.0,0.0
1577712733688,4088933.0,4303394.0,0.0
1577712733738,4025608.0,4267631.0,0.0
1577712733786,4055489.0,4323738.0,0.0
1577712733836,4109003.0,4395467.0,0.0
1577712733886,4102119.0,4386212.0,0.0
1577712733935,4060023.0,4321566.0,0.0
1577712733984,4042910.0,4307053.0,0.0
1577712734030,4049568.0,4337202.0,0.0
1577712734079,4003112.0,4323143.0,0.0
1577712734131,4087192.0,4412932.0,0.0
1577712734179,4166700.0,4480674.0,0.0
1577712734228,4126504.0,4437117.0,0.0
1577712734276,4068327.0,4350886.0,0.0
1577712734325,4053530.0,4322178.0,0.0
1577712734374,4043361.0,4303646.0,0.0
1577712734422,4029068.0,4285190.0,0.0
1577712734472,4011702.0,4281953.0,0.0
1577712734522,4011018.0,4304965.0,0.0
1577712734571,4036496.0,4351355.0,0.0
1577712734621,4022192.0,4288487.0,0.0
1577712734672,4005012.0,4266122.0,0.0
1577712734720,4028972.0,4279671.0,0.0
1577712734769,4036835.0,4295761.0,0.0
1577712734819,4063136.0,4338755.0,0.0
1577712734871,4109807.0,4386657.0,0.0
1577712734916,4113796.0,4391247.0,0.0
1577712734965,4066663.0,4326810.0,0.0
1577712735015,3982724.0,4246056.0,0.0
1577712735067,3945829.0,4215452.0,0.0
1577712735117,3934949.0,4215426.0,0.0
1577712735166,3936424.0,4217675.0,0.0
1577712735214,3945352.0,4243346.0,0.0
1577712735266,3984396.0,4309603.0,0.0
1577712735309,3964052.0,4305190.0,0.0
1577712735359,3932913.0,4256818.0,0.0
1577712735416,3897866.0,4214152.0,0.0
1577712735462,3953015.0,4246172.0,0.0
1577712735515,3994278.0,4292750.0,0.0
1577712735561,4013870.0,4324796.0,0.0
1577712735608,4043639.0,4334880.0,0.0
1577712735659,4108135.0,4415038.0,0.0
1577712735707,3998648.0,4292782.0,0.0
1577712735757,3953414.0,4267196.0,0.0
1577712735806,3965082.0,4263462.0,0.0
1577712735854,3972894.0,4270433.0,0.0
1577712735905,3968056.0,4262095.0,0.0
1577712735948,3991072.0,4266197.0,0.0
1577712736004,4059485.0,4303991.0,0.0
1577712736053,4061990.0,4308689.0,0.0
1577712736102,4055489.0,4259395.0,0.0
1577712736150,4070607.0,4258068.0,0.0
1577712736195,4106150.0,4299343.0,0.0
1577712736244,4115399.0,4331097.0,0.0
1577712736295,4162037.0,4410213.0,0.0
1577712736345,4243862.0,4525884.0,0.0
1577712736394,4333592.0,4694808.0,0.0
1577712736444,4231482.0,4460306.0,0.0
1577712736494,4202546.0,4365978.0,0.0
1577712736545,4189647.0,4341623.0,0.0
1577712736589,4171434.0,4305777.0,0.0
1577712736644,4190159.0,4329092.0,0.0
1577712736694,4097117.0,4270250.0,0.0
1577712736742,4101148.0,4299426.0,0.0
1577712736796,4131557.0,4265492.0,0.0
1577712736841,4099474.0,4228152.0,0.0
1577712736889,4092314.0,4220787.0,0.0
1577712736941,4091794.0,4231643.0,0.0
1577712736988,4079589.0,4252086.0,0.0
1577712737033,4097247.0,4306230.0,0.0
1577712737088,4106063.0,4339368.0,0.0
1577712737138,4145072.0,4397513.0,0.0
1577712737187,4085770.0,4286307.0,0.0
1577712737234,4004291.0,4197046.0,0.0
1577712737286,4019592.0,4201642.0,0.0
1577712737334,4022460.0,4195334.0,0.0
1577712737384,4013645.0,4177582.0,0.0
1577712737437,3959838.0,4163951.0,0.0
1577712737483,3970267.0,4183564.0,0.0
1577712737526,3959769.0,4141074.0,0.0
1577712737576,3944807.0,4140470.0,0.0
1577712737626,3957410.0,4160000.0,0.0
1577712737674,3958278.0,4145940.0,0.0
1577712737726,4000893.0,4182995.0,0.0
1577712737773,4082216.0,4267564.0,0.0
1577712737828,4044956.0,4242633.0,0.0
1577712737879,3971021.0,4137610.0,0.0
1577712737926,3783592.0,3992854.0,0.0
1577712737971,3718916.0,3954775.0,0.0
1577712738027,3687204.0,3950053.0,0.0
1577712738076,3692145.0,3969349.0,0.0
1577712738125,3697686.0,3985698.0,0.0
1577712738173,3683218.0,3989717.0,0.0
1577712738217,3688939.0,3973432.0,0.0
1577712738265,3663997.0,3956614.0,0.0
1577712738316,3658902.0,3955900.0,0.0
1577712738364,3677131.0,3983097.0,0.0
1577712738421,3737797.0,4052433.0,0.0
1577712738469,3755402.0,4087214.0,0.0
1577712738517,3768206.0,4104429.0,0.0
1577712738567,3902372.0,4182164.0,0.0
1577712738611,3915168.0,4196165.0,0.0
1577712738667,3853143.0,4125159.0,0.0
1577712738717,3789478.0,4065470.0,0.0
1577712738765,3786869.0,4073406.0,0.0
1577712738818,3805620.0,4094496.0,0.0
1577712738863,3795634.0,4089866.0,0.0
1577712738912,3784372.0,4095402.0,0.0
1577712738962,3807528.0,4123146.0,0.0
1577712739010,3845376.0,4173372.0,0.0
1577712739061,3889621.0,4259646.0,0.0
1577712739109,3954740.0,4339116.0,0.0
1577712739160,3977055.0,4370490.0,0.0
1577712739208,3985481.0,4405499.0,0.0
1577712739256,4003303.0,4434005.0,0.0
1577712739302,4067106.0,4474290.0,0.0
1577712739354,4115772.0,4535354.0,0.0
1577712739405,4132295.0,4573610.0,0.0
1577712739452,4170758.0,4617057.0,0.0
1577712739505,4167716.0,4606368.0,0.0
1577712739552,4147951.0,4595244.0,0.0
1577712739602,4142740.0,4615413.0,0.0
1577712739651,4054294.0,4515356.0,0.0
1577712739702,4095479.0,4537880.0,0.0
1577712739749,4115390.0,4564516.0,0.0
1577712739800,4082527.0,4512310.0,0.0
1577712739848,4112660.0,4529156.0,0.0
1577712739892,4115096.0,4528459.0,0.0
1577712739947,4133916.0,4556814.0,0.0
1577712739997,4146503.0,4510021.0,0.0
1577712740047,4225978.0,4586034.0,0.0
1577712740098,4202496.0,4589633.0,0.0
1577712740144,4208987.0,4595799.0,0.0
1577712740193,4161430.0,4523694.0,0.0
1577712740243,4141415.0,4509391.0,0.0
1577712740291,4091637.0,4473593.0,0.0
1577712740342,4027619.0,4387118.0,0.0
1577712740389,4017850.0,4377522.0,0.0
1577712740438,4076407.0,4454274.0,0.0
1577712740488,4103306.0,4486916.0,0.0
1577712740534,4091326.0,4476422.0,0.0
1577712740587,4108438.0,4484323.0,0.0
1577712740640,4134054.0,4514155.0,0.0
1577712740685,4129200.0,4503519.0,0.0
1577712740732,4131592.0,4460649.0,0.0
1577712740785,4275000.0,4594405.0,0.0
1577712740833,4295866.0,4626285.0,0.0
1577712740883,4319819.0,4660949.0,0.0
1577712740931,4331209.0,4659699.0,0.0
1577712740983,4296283.0,4642517.0,0.0
1577712741033,4324559.0,4675009.0,0.0
1577712741075,4298483.0,4634682.0,0.0
1577712741128,4284745.0,4608282.0,0.0
1577712741178,4279742.0,4590992.0,0.0
1577712741227,4335656.0,4640337.0,0.0
1577712741279,4279846.0,4565991.0,0.0
1577712741326,4307898.0,4577200.0,0.0
1577712741375,4306911.0,4578911.0,0.0
1577712741425,4273318.0,4489240.0,0.0
1577712741473,4226082.0,4451120.0,0.0
1577712741524,4215082.0,4464424.0,0.0
1577712741572,4230572.0,4499088.0,0.0
1577712741623,4204523.0,4444777.0,0.0
1577712741670,4120350.0,4346288.0,0.0
1577712741717,4100870.0,4291256.0,0.0
1577712741769,4021187.0,4159002.0,0.0
1577712741820,3954645.0,4069447.0,0.0
1577712741867,3901385.0,4010940.0,0.0
1577712741921,3922320.0,4048499.0,0.0
1577712741966,3947987.0,4096142.0,0.0
1577712742011,3951083.0,4105303.0,0.0
1577712742065,3959005.0,4105335.0,0.0
1577712742114,3968871.0,4119875.0,0.0
1577712742163,3962187.0,4100815.0,0.0
1577712742211,3927712.0,4076879.0,0.0
1577712742263,3962101.0,4112778.0,0.0
1577712742306,4027818.0,4184059.0,0.0
1577712742354,3989268.0,4146962.0,0.0
1577712742409,3953814.0,4096812.0,0.0
1577712742456,4009640.0,4135218.0,0.0
1577712742503,4016099.0,4105914.0,0.0
1577712742556,4008592.0,4072334.0,0.0
1577712742602,3995708.0,4066033.0,0.0
1577712742652,4010455.0,4100555.0,0.0
1577712742701,4005904.0,4123582.0,0.0
1577712742755,4007637.0,4130897.0,0.0
1577712742805,4021802.0,4131417.0,0.0
1577712742852,3994349.0,4089656.0,0.0
1577712742902,3985011.0,4073616.0,0.0
1577712742951,4007586.0,4102501.0,0.0
1577712742995,4034147.0,4155008.0,0.0
1577712743050,4139966.0,4259754.0,0.0
1577712743100,4156680.0,4297699.0,0.0
1577712743148,4114074.0,4257499.0,0.0
1577712743196,4008393.0,4090445.0,0.0
1577712743243,3959076.0,4022989.0,0.0
1577712743292,3952713.0,4013533.0,0.0
1577712743342,3950797.0,4012283.0,0.0
1577712743391,3961711.0,4025144.0,0.0
1577712743446,3976838.0,4043515.0,0.0
1577712743493,4010237.0,4107625.0,0.0
1577712743542,3996810.0,4093263.0,0.0
1577712743591,3929429.0,4037308.0,0.0
1577712743638,3934386.0,4055478.0,0.0
1577712743690,3943125.0,4083608.0,0.0
1577712743737,3944242.0,4113792.0,0.0
1577712743788,4022062.0,4186089.0,0.0
1577712743840,4085085.0,4241089.0,0.0
1577712743887,4054536.0,4217213.0,0.0
1577712743936,3957575.0,4093860.0,0.0
1577712743987,3932046.0,4053105.0,0.0
1577712744039,3911718.0,4032233.0,0.0
1577712744084,3920516.0,4047719.0,0.0
1577712744133,3897155.0,4022544.0,0.0
1577712744180,3924668.0,4050899.0,0.0
1577712744230,3927348.0,4065194.0,0.0
1577712744280,3892049.0,4015254.0,0.0
1577712744329,3881681.0,4001664.0,0.0
1577712744382,3900257.0,4023088.0,0.0
1577712744429,3910062.0,4058516.0,0.0
1577712744478,3920680.0,4102005.0,0.0
1577712744527,3948231.0,4134521.0,0.0
1577712744572,4027022.0,4206526.0,0.0
1577712744625,3968428.0,4121274.0,0.0
1577712744674,3849884.0,4011066.0,0.0
1577712744726,3829469.0,3985505.0,0.0
1577712744773,3838943.0,3990682.0,0.0
1577712744822,3844908.0,4001913.0,0.0
1577712744871,3824509.0,3987325.0,0.0
1577712744925,3842178.0,4007259.0,0.0
1577712744969,3846243.0,4008106.0,0.0
1577712745024,3804917.0,3978298.0,0.0
1577712745070,3779458.0,3965791.0,0.0
1577712745118,3794048.0,3988996.0,0.0
1577712745168,3815901.0,4030043.0,0.0
1577712745216,3842592.0,4078080.0,0.0
1577712745267,3859262.0,4104362.0,0.0
1577712745311,3888000.0,4091906.0,0.0
1577712745361,3845593.0,4033424.0,0.0
1577712745413,3774785.0,3979180.0,0.0
1577712745461,3713765.0,3905657.0,0.0
1577712745511,3722678.0,3921907.0,0.0
1577712745560,3726951.0,3934197.0,0.0
1577712745610,3703025.0,3918535.0,0.0
1577712745662,3632731.0,3836220.0,0.0
1577712745702,3593496.0,3793369.0,0.0
1577712745760,3589006.0,3827990.0,0.0
1577712745807,3587374.0,3851883.0,0.0
1577712745853,3590930.0,3873141.0,0.0
1577712745907,3595723.0,3902772.0,0.0
1577712745955,3615869.0,3950976.0,0.0
1577712746001,3626975.0,3980548.0,0.0
1577712746048,3692554.0,4001889.0,0.0
1577712746102,3737285.0,4017854.0,0.0
1577712746153,3722305.0,4013710.0,0.0
1577712746200,3682732.0,3961303.0,0.0
1577712746251,3667768.0,3971864.0,0.0
1577712746300,3661824.0,3976202.0,0.0
1577712746349,3664172.0,3942879.0,0.0
1577712746399,3725884.0,3926446.0,0.0
1577712746446,3860433.0,4026051.0,0.0
1577712746497,3867343.0,4034633.0,0.0
1577712746546,3896183.0,4094354.0,0.0
1577712746595,3904132.0,4111593.0,0.0
1577712746644,3873523.0,4103163.0,0.0
1577712746695,3870315.0,4119119.0,0.0
1577712746746,3790250.0,4032601.0,0.0
1577712746793,3800602.0,4042550.0,0.0
1577712746846,3869328.0,4096375.0,0.0
1577712746891,3843701.0,4092986.0,0.0
1577712746946,3783003.0,4035579.0,0.0
1577712746989,3795850.0,4054824.0,0.0
1577712747042,3788422.0,4055671.0,0.0
1577712747083,3736045.0,3983685.0,0.0
1577712747134,3676732.0,3921832.0,0.0
1577712747181,3708980.0,3958995.0,0.0
1577712747235,3739036.0,3994691.0,0.0
1577712747286,3761972.0,4015051.0,0.0
1577712747334,3776719.0,4041486.0,0.0
1577712747386,3823079.0,4075739.0,0.0
1577712747433,3856792.0,4120116.0,0.0
1577712747485,3801961.0,4061108.0,0.0
1577712747525,3824345.0,4086678.0,0.0
1577712747576,3913600.0,4158061.0,0.0
1577712747626,3937690.0,4190913.0,0.0
1577712747674,3880840.0,4132382.0,0.0
1577712747725,3837600.0,4089262.0,0.0
1577712747775,3779171.0,4018155.0,0.0
1577712747822,3729525.0,3972083.0,0.0
1577712747876,3705289.0,3949391.0,0.0
1577712747925,3699177.0,3945640.0,0.0
1577712747975,3757397.0,4001605.0,0.0
1577712748027,3792912.0,4052148.0,0.0
1577712748073,3803392.0,4077525.0,0.0
1577712748127,3844431.0,4098474.0,0.0
1577712748172,3834426.0,4074388.0,0.0
1577712748222,3817992.0,4068851.0,0.0
1577712748270,3813916.0,4083238.0,0.0
1577712748320,3842507.0,4110427.0,0.0
1577712748368,3956396.0,4203857.0,0.0
1577712748414,3948117.0,4226592.0,0.0
1577712748462,3886110.0,4135998.0,0.0
1577712748516,3851548.0,4079766.0,0.0
1577712748560,3820722.0,4042030.0,0.0
1577712748615,3788143.0,4026158.0,0.0
1577712748664,3785898.0,4019976.0,0.0
1577712748707,3790104.0,4015900.0,0.0
1577712748765,3801061.0,4044204.0,0.0
1577712748812,3940776.0,4132475.0,0.0
1577712748862,3948353.0,4160000.0,0.0
1577712748910,4011999.0,4209814.0,0.0
1577712748960,4032579.0,4229957.0,0.0
1577712749007,3991279.0,4206610.0,0.0
1577712749061,3965291.0,4196106.0,0.0
1577712749102,4020242.0,4242338.0,0.0
1577712749158,4043310.0,4276382.0,0.0
1577712749202,3999238.0,4226308.0,0.0
1577712749256,3929949.0,4147549.0,0.0
1577712749304,3916200.0,4150168.0,0.0
1577712749355,3922501.0,4163137.0,0.0
1577712749407,3914136.0,4158305.0,0.0
1577712749453,3890608.0,4146275.0,0.0
1577712749507,3910434.0,4192934.0,0.0
1577712749552,3971307.0,4250552.0,0.0
1577712749602,3955279.0,4216149.0,0.0
1577712749651,3942899.0,4216106.0,0.0
1577712749697,3975840.0,4244679.0,0.0
1577712749750,3998699.0,4277138.0,0.0
1577712749798,3993230.0,4301131.0,0.0
1577712749841,4076676.0,4348982.0,0.0
1577712749897,4171079.0,4440793.0,0.0
1577712749943,4107424.0,4371624.0,0.0
1577712749996,4031095.0,4296139.0,0.0
1577712750049,4030835.0,4304217.0,0.0
1577712750094,4026544.0,4311523.0,0.0
1577712750144,4027585.0,4305970.0,0.0
1577712750192,4109956.0,4326416.0,0.0
1577712750243,4156133.0,4380718.0,0.0
1577712750284,4085987.0,4278144.0,0.0
1577712750333,4181959.0,4332481.0,0.0
1577712750382,4167170.0,4348621.0,0.0
1577712750433,4161995.0,4349015.0,0.0
1577712750486,4161395.0,4347345.0,0.0
1577712750537,4184888.0,4390641.0,0.0
1577712750586,4160564.0,4394282.0,0.0
1577712750635,4226411.0,4421103.0,0.0
1577712750690,4203475.0,4383528.0,0.0
1577712750734,4173021.0,4364066.0,0.0
1577712750784,4111811.0,4295123.0,0.0
1577712750833,4097550.0,4298302.0,0.0
1577712750882,4088647.0,4310970.0,0.0
1577712750931,4072334.0,4298270.0,0.0
1577712750978,4013368.0,4220830.0,0.0
1577712751030,3987482.0,4210452.0,0.0
1577712751080,3996472.0,4225930.0,0.0
1577712751124,4009155.0,4222061.0,0.0
1577712751178,3982506.0,4203060.0,0.0
1577712751228,4024742.0,4239638.0,0.0
1577712751277,4035204.0,4257783.0,0.0
1577712751330,3969408.0,4179303.0,0.0
1577712751375,3916997.0,4129521.0,0.0
1577712751423,3970986.0,4176869.0,0.0
1577712751473,3970222.0,4172314.0,0.0
1577712751523,3927391.0,4139471.0,0.0
1577712751571,3880423.0,4098188.0,0.0
1577712751622,3889568.0,4118599.0,0.0
1577712751670,3883666.0,4097542.0,0.0
1577712751720,3856314.0,4067642.0,0.0
1577712751767,3906533.0,4112810.0,0.0
1577712751819,3930859.0,4175955.0,0.0
1577712751867,3986555.0,4227313.0,0.0
1577712751917,3998449.0,4220192.0,0.0
1577712751969,4074101.0,4269880.0,0.0
1577712752015,4160824.0,4344494.0,0.0
1577712752065,4166060.0,4355283.0,0.0
1577712752114,4165193.0,4337438.0,0.0
1577712752159,4188044.0,4334226.0,0.0
1577712752208,4192067.0,4358688.0,0.0
1577712752256,4179695.0,4363873.0,0.0
1577712752306,4165365.0,4327379.0,0.0
1577712752355,4155631.0,4290442.0,0.0
1577712752406,4098080.0,4215192.0,0.0
1577712752454,4079319.0,4200669.0,0.0
1577712752505,4049586.0,4185778.0,0.0
1577712752555,4060015.0,4215200.0,0.0
1577712752610,4115634.0,4292538.0,0.0
1577712752656,4168080.0,4343822.0,0.0
1577712752705,4166676.0,4348227.0,0.0
1577712752755,4149727.0,4307959.0,0.0
1577712752803,4134731.0,4280795.0,0.0
1577712752853,4119647.0,4293294.0,0.0
1577712752903,4124302.0,4324410.0,0.0
1577712752945,4195785.0,4401666.0,0.0
1577712753002,4203430.0,4431538.0,0.0
1577712753046,4148012.0,4325306.0,0.0
1577712753100,4048668.0,4215897.0,0.0
1577712753148,3987986.0,4163707.0,0.0
1577712753198,3947814.0,4130746.0,0.0
1577712753248,3921330.0,4112810.0,0.0
1577712753296,3901246.0,4105939.0,0.0
1577712753345,3921704.0,4126787.0,0.0
1577712753395,4062815.0,4221978.0,0.0
1577712753439,4025581.0,4167860.0,0.0
1577712753494,4021447.0,4174990.0,0.0
1577712753540,4046396.0,4231139.0,0.0
1577712753590,4043820.0,4248464.0,0.0
1577712753642,4049135.0,4270057.0,0.0
1577712753686,4156741.0,4372437.0,0.0
1577712753741,4190098.0,4417865.0,0.0
1577712753786,4108586.0,4329325.0,0.0
1577712753838,4036774.0,4238555.0,0.0
1577712753889,4001655.0,4196861.0,0.0
1577712753936,4023684.0,4216031.0,0.0
1577712753986,3952113.0,4162222.0,0.0
1577712754035,3947901.0,4172448.0,0.0
1577712754085,3944078.0,4130588.0,0.0
1577712754133,3953007.0,4081233.0,0.0
1577712754183,3887678.0,4028700.0,0.0
1577712754230,3849016.0,4025413.0,0.0
1577712754283,3857729.0,4058181.0,0.0
1577712754326,3874659.0,4107392.0,0.0
1577712754381,3874606.0,4133154.0,0.0
1577712754432,3882711.0,4121988.0,0.0
1577712754478,3858023.0,4073835.0,0.0
1577712754532,3756710.0,4007259.0,0.0
1577712754577,3715370.0,3973089.0,0.0
1577712754626,3698023.0,3968156.0,0.0
1577712754675,3665810.0,3950531.0,0.0
1577712754724,3673465.0,3964566.0,0.0
1577712754774,3658347.0,3946286.0,0.0
1577712754820,3751631.0,4047912.0,0.0
1577712754872,3770233.0,4070806.0,0.0
1577712754922,3832129.0,4136326.0,0.0
1577712754968,3868877.0,4184303.0,0.0
1577712755023,3895316.0,4226533.0,0.0
1577712755071,3944513.0,4275559.0,0.0
1577712755120,3960133.0,4315434.0,0.0
1577712755172,3975094.0,4332840.0,0.0
1577712755212,3950754.0,4282741.0,0.0
1577712755264,4008297.0,4313402.0,0.0
1577712755317,3955963.0,4231241.0,0.0
1577712755361,3925735.0,4204050.0,0.0
1577712755415,3907470.0,4203044.0,0.0
1577712755465,3908823.0,4205677.0,0.0
1577712755514,3883788.0,4161485.0,0.0
1577712755563,3873375.0,4153230.0,0.0
1577712755612,3921980.0,4199639.0,0.0
1577712755663,3975824.0,4225527.0,0.0
1577712755705,3963184.0,4221517.0,0.0
1577712755762,3968662.0,4242767.0,0.0
1577712755810,4002576.0,4292471.0,0.0
1577712755859,3949053.0,4211852.0,0.0
1577712755908,3888503.0,4140779.0,0.0
1577712755952,3963201.0,4201065.0,0.0
1577712756006,3997834.0,4208707.0,0.0
1577712756058,3983392.0,4201853.0,0.0
1577712756101,3965612.0,4164026.0,0.0
1577712756155,4046587.0,4228983.0,0.0
1577712756205,4096520.0,4265140.0,0.0
1577712756251,4096164.0,4261743.0,0.0
1577712756302,4089618.0,4211592.0,0.0
1577712756352,4150491.0,4231868.0,0.0
1577712756403,4159333.0,4220645.0,0.0
1577712756451,4144891.0,4274813.0,0.0
1577712756501,4121640.0,4292557.0,0.0
1577712756548,4088431.0,4271390.0,0.0
1577712756598,4047166.0,4231163.0,0.0
1577712756647,3992545.0,4208522.0,0.0
1577712756696,3994244.0,4218120.0,0.0
1577712756745,4113093.0,4316936.0,0.0
1577712756795,4102066.0,4360718.0,0.0
1577712756844,4084668.0,4355811.0,0.0
1577712756893,4078531.0,4330199.0,0.0
1577712756943,4054294.0,4298512.0,0.0
1577712756990,4006137.0,4267749.0,0.0
1577712757042,3978459.0,4257046.0,0.0
1577712757092,3957800.0,4230871.0,0.0
1577712757141,3997730.0,4242263.0,0.0
1577712757184,4048371.0,4272623.0,0.0
1577712757232,3946097.0,4193052.0,0.0
1577712757284,3912957.0,4180343.0,0.0
1577712757334,3887861.0,4177172.0,0.0
1577712757383,3883648.0,4197347.0,0.0
1577712757432,3876695.0,4213597.0,0.0
1577712757478,3879486.0,4222281.0,0.0
1577712757530,3969962.0,4287162.0,0.0
1577712757585,3934023.0,4225275.0,0.0
1577712757632,3804042.0,4129808.0,0.0
1577712757682,3753945.0,4088659.0,0.0
1577712757735,3749499.0,4103992.0,0.0
1577712757780,3750391.0,4111872.0,0.0
1577712757829,3724324.0,4094145.0,0.0
1577712757880,3813059.0,4181467.0,0.0
1577712757928,3745997.0,4118540.0,0.0
1577712757978,3660314.0,4075270.0,0.0
1577712758026,3610981.0,4073331.0,0.0
1577712758076,3588969.0,4067878.0,0.0
1577712758126,3597370.0,4092013.0,0.0
1577712758174,3619250.0,4132910.0,0.0
1577712758224,3637004.0,4146962.0,0.0
1577712758274,3710559.0,4188531.0,0.0
1577712758323,3741167.0,4175242.0,0.0
1577712758373,3689276.0,4137610.0,0.0
1577712758421,3660253.0,4116325.0,0.0
1577712758476,3683112.0,4142776.0,0.0
1577712758523,3689918.0,4145594.0,0.0
1577712758567,3719558.0,4166836.0,0.0
1577712758616,3734432.0,4160193.0,0.0
1577712758665,3719176.0,4114899.0,0.0
1577712758715,3721776.0,4118422.0,0.0
1577712758767,3762753.0,4142811.0,0.0
1577712758818,3732821.0,4149270.0,0.0
1577712758866,3768102.0,4186786.0,0.0
1577712758914,3817575.0,4242113.0,0.0
1577712758965,3782042.0,4198757.0,0.0
1577712759010,3729084.0,4163364.0,0.0
1577712759060,3793095.0,4199915.0,0.0
1577712759111,3801478.0,4199042.0,0.0
1577712759161,3736504.0,4168003.0,0.0
1577712759214,3715630.0,4162793.0,0.0
1577712759262,3728581.0,4176912.0,0.0
1577712759310,3669191.0,4118934.0,0.0
1577712759355,3641252.0,4088919.0,0.0
1577712759408,3603118.0,4040606.0,0.0
1577712759455,3639015.0,4070605.0,0.0
1577712759508,3678805.0,4128247.0,0.0
1577712759556,3726388.0,4167692.0,0.0
1577712759605,3758010.0,4191006.0,0.0
1577712759650,3776512.0,4208128.0,0.0
1577712759704,3726943.0,4188674.0,0.0
1577712759754,3704551.0,4185805.0,0.0
1577712759802,3754146.0,4211886.0,0.0
1577712759856,3884714.0,4304796.0,0.0
1577712759902,3872292.0,4313839.0,0.0
1577712759946,3812825.0,4258379.0,0.0
1577712760000,3791213.0,4226742.0,0.0
1577712760050,3747340.0,4194722.0,0.0
1577712760100,3713982.0,4171946.0,0.0
1577712760148,3710715.0,4177550.0,0.0
1577712760191,3735568.0,4200888.0,0.0
1577712760246,3768970.0,4238270.0,0.0
1577712760292,3849364.0,4311139.0,0.0
1577712760346,3870740.0,4335366.0,0.0
1577712760393,3913364.0,4358570.0,0.0
1577712760441,3931639.0,4369351.0,0.0
1577712760495,3925831.0,4375549.0,0.0
1577712760542,3933919.0,4391724.0,0.0
1577712760591,4015301.0,4427715.0,0.0
1577712760642,4030732.0,4445456.0,0.0
1577712760689,3980322.0,4350961.0,0.0
1577712760741,3865998.0,4263990.0,0.0
1577712760788,3877623.0,4283966.0,0.0
1577712760836,3880181.0,4276717.0,0.0
1577712760887,3886553.0,4280894.0,0.0
1577712760934,3878369.0,4262708.0,0.0
1577712760987,3882737.0,4264116.0,0.0
1577712761038,3886171.0,4241826.0,0.0
1577712761080,3872881.0,4229453.0,0.0
1577712761139,3862627.0,4225694.0,0.0
1577712761183,3894979.0,4251188.0,0.0
1577712761228,3916225.0,4277406.0,0.0
1577712761282,3941745.0,4324234.0,0.0
1577712761330,3933649.0,4321491.0,0.0
1577712761373,4053365.0,4399861.0,0.0
1577712761422,3991298.0,4315274.0,0.0
1577712761472,3904306.0,4258572.0,0.0
1577712761521,3895419.0,4251517.0,0.0
1577712761573,3892924.0,4247137.0,0.0
1577712761626,3901427.0,4248244.0,0.0
1577712761676,3939197.0,4283119.0,0.0
1577712761726,3868088.0,4233622.0,0.0
1577712761779,3876228.0,4234160.0,0.0
1577712761823,3891598.0,4233681.0,0.0
1577712761872,3874173.0,4236676.0,0.0
1577712761922,3893434.0,4257095.0,0.0
1577712761971,3929012.0,4296844.0,0.0
1577712762022,3957922.0,4336969.0,0.0
1577712762069,3963643.0,4340484.0,0.0
1577712762116,3958105.0,4296450.0,0.0
1577712762168,4100360.0,4427010.0,0.0
1577712762214,4129747.0,4477218.0,0.0
1577712762267,4187566.0,4579431.0,0.0
1577712762313,4207227.0,4644868.0,0.0
1577712762359,4264832.0,4733372.0,0.0
1577712762415,4277158.0,4788404.0,0.0
1577712762459,4281545.0,4822003.0,0.0
1577712762509,4306625.0,4832993.0,0.0
1577712762560,4296023.0,4827532.0,0.0
1577712762611,4317633.0,4868480.0,0.0
1577712762662,4317330.0,4876507.0,0.0
1577712762709,4245831.0,4814831.0,0.0
1577712762759,4215722.0,4734657.0,0.0
1577712762808,4257212.0,4783211.0,0.0
1577712762852,4311322.0,4821199.0,0.0
1577712762908,4389585.0,4881735.0,0.0
1577712762956,4434992.0,4939737.0,0.0
1577712763005,4448386.0,4976902.0,0.0
1577712763058,4471661.0,5031405.0,0.0
1577712763105,4500553.0,5159986.0,0.0
1577712763154,4524678.0,5183325.0,0.0
1577712763203,4550304.0,5220423.0,0.0
1577712763251,4589261.0,5264995.0,0.0
1577712763296,4611366.0,5285686.0,0.0
1577712763349,4620755.0,5319653.0,0.0
1577712763402,4604371.0,5312158.0,0.0
1577712763449,4562830.0,5290504.0,0.0
1577712763498,4584147.0,5324312.0,0.0
1577712763547,4564504.0,5310551.0,0.0
1577712763593,4554916.0,5310236.0,0.0
1577712763643,4594090.0,5369246.0,0.0
1577712763693,4573614.0,5340911.0,0.0
1577712763742,4589677.0,5239803.0,0.0
1577712763792,4617841.0,5172616.0,0.0
1577712763843,4562127.0,5040075.0,0.0
1577712763892,4510037.0,4976721.0,0.0
1577712763942,4468679.0,4896451.0,0.0
1577712763991,4493653.0,4905780.0,0.0
1577712764042,4508564.0,4936636.0,0.0
1577712764089,4490004.0,4930620.0,0.0
1577712764133,4440167.0,4876359.0,0.0
1577712764188,4375029.0,4816115.0,0.0
1577712764239,4312667.0,4776561.0,0.0
1577712764287,4287032.0,4759895.0,0.0
1577712764339,4313862.0,4811331.0,0.0
1577712764385,4371346.0,4870977.0,0.0
1577712764435,4366195.0,4829309.0,0.0
1577712764485,4250156.0,4684206.0,0.0
1577712764533,4178881.0,4599946.0,0.0
1577712764583,4154097.0,4572332.0,0.0
1577712764631,4121329.0,4530373.0,0.0
1577712764683,4096241.0,4481243.0,0.0
1577712764730,4151115.0,4510212.0,0.0
1577712764774,4180207.0,4536252.0,0.0
1577712764828,4162194.0,4522061.0,0.0
1577712764880,4111837.0,4468410.0,0.0
1577712764927,4107103.0,4471700.0,0.0
1577712764978,4111689.0,4487507.0,0.0
1577712765026,4109738.0,4504027.0,0.0
1577712765076,4075479.0,4483346.0,0.0
1577712765126,4209820.0,4611579.0,0.0
1577712765174,4176739.0,4558821.0,0.0
1577712765224,4021221.0,4416589.0,0.0
1577712765273,3967372.0,4363117.0,0.0
1577712765322,3955157.0,4362349.0,0.0
1577712765372,3958649.0,4358448.0,0.0
1577712765424,3979698.0,4334161.0,0.0
1577712765470,4036358.0,4393037.0,0.0
1577712765516,3877042.0,4270287.0,0.0
1577712765568,3815216.0,4229434.0,0.0
1577712765620,3788889.0,4233234.0,0.0
