"1572893366124","1738729.0"
"1572893366172","1738221.0"
"1572893366219","1732307.0"
"1572893366267","1734658.0"
"1572893366316","1725474.0"
"1572893366368","1731352.0"
"1572893366538","1732563.0"
"1572893366540","1730911.0"
"1572893366542","1734438.0"
"1572893366567","1736968.0"
"1572893366642","1736964.0"
"1572893366656","1730681.0"
"1572893366708","1735131.0"
"1572893366749","1718343.0"
"1572893366802","1718276.0"
"1572893366848","1719824.0"
"1572893366900","1716063.0"
"1572893366943","1726724.0"
"1572893366995","1723540.0"
"1572893367040","1725984.0"
"1572893367092","1725714.0"
"1572893367138","1719919.0"
"1572893367186","1730692.0"
"1572893367235","1735795.0"
"1572893367287","1747661.0"
"1572893367411","1759429.0"
"1572893367412","1769020.0"
"1572893367453","1758878.0"
"1572893367659","1751712.0"
"1572893367663","1738853.0"
"1572893367666","1742124.0"
"1572893367669","1734989.0"
"1572893367725","1733861.0"
"1572893367727","1733558.0"
"1572893367838","1733599.0"
"1572893367839","1735113.0"
"1572893367863","1733603.0"
"1572893367909","1735489.0"
"1572893367958","1739493.0"
"1572893368007","1743030.0"
"1572893368055","1741261.0"
"1572893368109","1741257.0"
"1572893368154","1733402.0"
"1572893368207","1731732.0"
"1572893368251","1731254.0"
"1572893368299","1729887.0"
"1572893368480","1728520.0"
"1572893368480","1724907.0"
"1572893368484","1723363.0"
"1572893368521","1723152.0"
"1572893368567","1722587.0"
"1572893368611","1723595.0"
"1572893368636","1725775.0"
"1572893368687","1728741.0"
"1572893368734","1726878.0"
"1572893368779","1729930.0"
"1572893368830","1724999.0"
"1572893368875","1716817.0"
"1572893368928","1712440.0"
"1572893368974","1713042.0"
"1572893369025","1709708.0"
"1572893369071","1705949.0"
"1572893369118","1704947.0"
"1572893369167","1696692.0"
"1572893369216","1696798.0"
"1572893369265","1693090.0"
"1572893369313","1691365.0"
"1572893369358","1690989.0"
"1572893369409","1692783.0"
"1572893369456","1696073.0"
"1572893369508","1697647.0"
"1572893369554","1696713.0"
"1572893369604","1689037.0"
"1572893369651","1679951.0"
"1572893369705","1677958.0"
"1572893369750","1678374.0"
"1572893369799","1678616.0"
"1572893369847","1679329.0"
"1572893369895","1674802.0"
"1572893369939","1670924.0"
"1572893369989","1669278.0"
"1572893370041","1669138.0"
"1572893370090","1677249.0"
"1572893370134","1678021.0"
"1572893370181","1680459.0"
"1572893370233","1683917.0"
"1572893370275","1683701.0"
"1572893370333","1679071.0"
"1572893370373","1672443.0"
"1572893370424","1666407.0"
"1572893370473","1664633.0"
"1572893370519","1664904.0"
"1572893370572","1663104.0"
"1572893370616","1663215.0"
"1572893370664","1662153.0"
"1572893370713","1663689.0"
"1572893370760","1664012.0"
"1572893370814","1671966.0"
"1572893370857","1676064.0"
"1572893370906","1674122.0"
"1572893370955","1675223.0"
"1572893371003","1676064.0"
"1572893371054","1676899.0"
"1572893371106","1676235.0"
"1572893371150","1669554.0"
"1572893371199","1664121.0"
"1572893371245","1658424.0"
"1572893371295","1656915.0"
"1572893371340","1655188.0"
"1572893371395","1657181.0"
"1572893371438","1658493.0"
"1572893371487","1657817.0"
"1572893371534","1658034.0"
"1572893371583","1663648.0"
"1572893371633","1663512.0"
"1572893371679","1671478.0"
"1572893371729","1671954.0"
"1572893371774","1674577.0"
"1572893371825","1676212.0"
"1572893371874","1681123.0"
"1572893371919","1683139.0"
"1572893371975","1685597.0"
"1572893372017","1689285.0"
"1572893372066","1696574.0"
"1572893372114","1696148.0"
"1572893372162","1695384.0"
"1572893372215","1693986.0"
"1572893372258","1682106.0"
"1572893372308","1677824.0"
"1572893372355","1679197.0"
"1572893372403","1678890.0"
"1572893372456","1679882.0"
"1572893372505","1679355.0"
"1572893372550","1681686.0"
"1572893372598","1687834.0"
"1572893372644","1684870.0"
"1572893372696","1688821.0"
"1572893372740","1687757.0"
"1572893372797","1685770.0"
"1572893372838","1693919.0"
"1572893372887","1694106.0"
"1572893372936","1698948.0"
"1572893372984","1699770.0"
"1572893373036","1703543.0"
"1572893373081","1703363.0"
"1572893373130","1705173.0"
"1572893373181","1695748.0"
"1572893373225","1691318.0"
"1572893373276","1686944.0"
"1572893373319","1688454.0"
"1572893373374","1688070.0"
"1572893373421","1684341.0"
"1572893373471","1684410.0"
"1572893373515","1684904.0"
"1572893373562","1686879.0"
"1572893373616","1687125.0"
"1572893373658","1687255.0"
"1572893373709","1694943.0"
"1572893373756","1694713.0"
"1572893373802","1701918.0"
"1572893373854","1699226.0"
"1572893373903","1703667.0"
"1572893373951","1697076.0"
"1572893373999","1694368.0"
"1572893374046","1690628.0"
"1572893374095","1691572.0"
"1572893374142","1686160.0"
"1572893374195","1691899.0"
"1572893374242","1687470.0"
"1572893374293","1691469.0"
"1572893374335","1689573.0"
"1572893374383","1692627.0"
"1572893374435","1695083.0"
"1572893374485","1705092.0"
"1572893374535","1703462.0"
"1572893374576","1708775.0"
"1572893374626","1689900.0"
"1572893374674","1694179.0"
"1572893374719","1686716.0"
"1572893374771","1686485.0"
"1572893374818","1684303.0"
"1572893374867","1686540.0"
"1572893374915","1686930.0"
"1572893374962","1690396.0"
"1572893375010","1688114.0"
"1572893375059","1689868.0"
"1572893375108","1690325.0"
"1572893375155","1696412.0"
"1572893375204","1695937.0"
"1572893375252","1700309.0"
"1572893375309","1702542.0"
"1572893375355","1700906.0"
"1572893375405","1693584.0"
"1572893375451","1693667.0"
"1572893375496","1691172.0"
"1572893375542","1693121.0"
"1572893375591","1688972.0"
"1572893375638","1692194.0"
"1572893375687","1689750.0"
"1572893375735","1690059.0"
"1572893375783","1689203.0"
"1572893375831","1692976.0"
"1572893375880","1693123.0"
"1572893375931","1697859.0"
"1572893375977","1698423.0"
"1572893376026","1701443.0"
"1572893376074","1700760.0"
"1572893376119","1692771.0"
"1572893376177","1687220.0"
"1572893376222","1683403.0"
"1572893376266","1682984.0"
"1572893376315","1684297.0"
"1572893376362","1683797.0"
"1572893376413","1684356.0"
"1572893376463","1682234.0"
"1572893376516","1684610.0"
"1572893376558","1687970.0"
"1572893376603","1689819.0"
"1572893376652","1693027.0"
"1572893376707","1696353.0"
"1572893376749","1698509.0"
"1572893376800","1705498.0"
"1572893376846","1708674.0"
"1572893376897","1729720.0"
"1572893377001","1613994.0"
"1572893377001","1607870.0"
"1572893377240","1651072.0"
"1572893377242","1948793.0"
"1572893377284","2085248.0"
"1572893377335","2564727.0"
"1572893377379","3278750.0"
"1572893377429","4550704.0"
"1572893377474","5010651.0"
"1572893377524","5336724.0"
"1572893377575","5661116.0"
"1572893377616","5513220.0"
"1572893377672","5505905.0"
"1572893377720","5502569.0"
"1572893377762","5280633.0"
"1572893377813","5124380.0"
"1572893377860","4855858.0"
"1572893377910","4411828.0"
"1572893377957","4158368.0"
"1572893378004","3984239.0"
"1572893378053","4018952.0"
"1572893378103","3822626.0"
"1572893378151","3745330.0"
"1572893378204","3764010.0"
"1572893378250","3685991.0"
"1572893378298","3949797.0"
"1572893378341","3877207.0"
"1572893378398","3921678.0"
"1572893378445","3848915.0"
"1572893378487","3827624.0"
"1572893378540","3749243.0"
"1572893378584","3742346.0"
"1572893378631","3725803.0"
"1572893378681","3728924.0"
"1572893378731","3711195.0"
"1572893378781","3684894.0"
"1572893378826","3705157.0"
"1572893378874","3678189.0"
"1572893378923","3683876.0"
"1572893378971","3668612.0"
"1572893379021","3697887.0"
"1572893379066","3698407.0"
"1572893379113","3716317.0"
"1572893379161","3701506.0"
"1572893379213","3698984.0"
"1572893379260","3671361.0"
"1572893379314","3663977.0"
"1572893379358","3653733.0"
"1572893379407","3663264.0"
"1572893379453","3617525.0"
"1572893379503","3618661.0"
"1572893379552","3607911.0"
"1572893379602","3602944.0"
"1572893379647","3615843.0"
"1572893379697","3616761.0"
"1572893379742","3626957.0"
"1572893379795","3624192.0"
"1572893379847","3635321.0"
"1572893379889","3613181.0"
"1572893379936","3582555.0"
"1572893379984","3572622.0"
"1572893380034","3563708.0"
"1572893380083","3566084.0"
"1572893380133","3558656.0"
"1572893380175","3561126.0"
"1572893380226","3563467.0"
"1572893380275","3567514.0"
"1572893380324","3564204.0"
"1572893380377","3573697.0"
"1572893380424","3584219.0"
"1572893380473","3596027.0"
"1572893380516","3606438.0"
"1572893380562","3602458.0"
"1572893380613","3579270.0"
"1572893380667","3555951.0"
"1572893380716","3537972.0"
"1572893380762","3535154.0"
"1572893380806","3532267.0"
"1572893380853","3529390.0"
"1572893380906","3532336.0"
"1572893380950","3523356.0"
"1572893380996","3524553.0"
"1572893381056","3525827.0"
"1572893381097","3539602.0"
"1572893381142","3539766.0"
"1572893381193","3556020.0"
"1572893381238","3570921.0"
"1572893381287","3568650.0"
"1572893381336","3539393.0"
"1572893381385","3519776.0"
"1572893381432","3514376.0"
"1572893381484","3513717.0"
"1572893381532","3524648.0"
"1572893381576","3527387.0"
"1572893381626","3524284.0"
"1572893381776","3525176.0"
"1572893381776","3529788.0"
"1572893381776","3539090.0"
"1572893381898","3551867.0"
"1572893381898","3556384.0"
"1572893381922","3573063.0"
"1572893381963","3587488.0"
"1572893382011","3592620.0"
"1572893382061","3558863.0"
"1572893382111","3533889.0"
"1572893382158","3521259.0"
"1572893382209","3520288.0"
"1572893382255","3525619.0"
"1572893382307","3537564.0"
"1572893382351","3531341.0"
"1572893382405","3533801.0"
"1572893382448","3535709.0"
"1572893382500","3546390.0"
"1572893382545","3560059.0"
"1572893382594","3569231.0"
"1572893382640","3577553.0"
"1572893382689","3596590.0"
"1572893382735","3597336.0"
"1572893382786","3575281.0"
"1572893382834","3546987.0"
"1572893382882","3540321.0"
"1572893382931","3535526.0"
"1572893382978","3535579.0"
"1572893383028","3544031.0"
"1572893383075","3545652.0"
"1572893383126","3544049.0"
"1572893383173","3546250.0"
"1572893383219","3552388.0"
"1572893383269","3563268.0"
"1572893383317","3577311.0"
"1572893383366","3589940.0"
"1572893383414","3592161.0"
"1572893383461","3601834.0"
"1572893383511","3615453.0"
"1572893383558","3622302.0"
"1572893383609","3594969.0"
"1572893383659","3570228.0"
"1572893383712","3561073.0"
"1572893383755","3560155.0"
"1572893383803","3568304.0"
"1572893383846","3568554.0"
"1572893383897","3568451.0"
"1572893383946","3568190.0"
"1572893383999","3573115.0"
"1572893384045","3583526.0"
"1572893384093","3599138.0"
"1572893384136","3605467.0"
"1572893384187","3611613.0"
"1572893384238","3619173.0"
"1572893384287","3633726.0"
"1572893384337","3636882.0"
"1572893384382","3606499.0"
"1572893384428","3589465.0"
"1572893384479","3588616.0"
"1572893384523","3586864.0"
"1572893384572","3599043.0"
"1572893384620","3599234.0"
"1572893384670","3604002.0"
"1572893384717","3604798.0"
"1572893384767","3608935.0"
"1572893384814","3617802.0"
"1572893384862","3632877.0"
"1572893384912","3640852.0"
"1572893384963","3651047.0"
"1572893385010","3654688.0"
"1572893385060","3663939.0"
"1572893385108","3674227.0"
"1572893385157","3659186.0"
"1572893385206","3627546.0"
"1572893385248","3612332.0"
"1572893385300","3604018.0"
"1572893385350","3600847.0"
"1572893385400","3607226.0"
"1572893385446","3600188.0"
"1572893385497","3600743.0"
"1572893385535","3604254.0"
"1572893385588","3614291.0"
"1572893385632","3620161.0"
"1572893385683","3629576.0"
"1572893385732","3633156.0"
"1572893385779","3638842.0"
"1572893385829","3648672.0"
"1572893385876","3663626.0"
"1572893385926","3667986.0"
"1572893385978","3639864.0"
"1572893386020","3614031.0"
"1572893386071","3604989.0"
"1572893386117","3604894.0"
"1572893386173","3603273.0"
"1572893386212","3605684.0"
"1572893386262","3606178.0"
"1572893386313","3601712.0"
"1572893386357","3609350.0"
"1572893386413","3613521.0"
"1572893386460","3617542.0"
"1572893386502","3625648.0"
"1572893386554","3638962.0"
"1572893386606","3647979.0"
"1572893386651","3658233.0"
"1572893386699","3660462.0"
"1572893386745","3634992.0"
"1572893386797","3616467.0"
"1572893386842","3609705.0"
"1572893386895","3616182.0"
"1572893386938","3621660.0"
"1572893386992","3624964.0"
"1572893387038","3621270.0"
"1572893387089","3621347.0"
"1572893387136","3626636.0"
"1572893387179","3637402.0"
"1572893387232","3644659.0"
"1572893387281","3653605.0"
"1572893387327","3658138.0"
"1572893387374","3666383.0"
"1572893387422","3681206.0"
"1572893387474","3683998.0"
"1572893387516","3656872.0"
"1572893387567","3632678.0"
"1572893387614","3619831.0"
"1572893387663","3611552.0"
"1572893387715","3611950.0"
"1572893387759","3616772.0"
"1572893387815","3620638.0"
"1572893387854","3618106.0"
"1572893387906","3621652.0"
"1572893387953","3627841.0"
"1572893388010","3636587.0"
"1572893388055","3643444.0"
"1572893388105","3651445.0"
"1572893388151","3652079.0"
"1572893388201","3669018.0"
"1572893388246","3680331.0"
"1572893388296","3684093.0"
"1572893388340","3650545.0"
"1572893388392","3626116.0"
"1572893388439","3612271.0"
"1572893388481","3608110.0"
"1572893388536","3610201.0"
"1572893388579","3612454.0"
"1572893388630","3612860.0"
"1572893388676","3613746.0"
"1572893388725","3611865.0"
"1572893388775","3618818.0"
"1572893388821","3622865.0"
"1572893388871","3631611.0"
"1572893388922","3636041.0"
"1572893388971","3649280.0"
"1572893389015","3660288.0"
"1572893389062","3669573.0"
"1572893389112","3665871.0"
"1572893389163","3630069.0"
"1572893389213","3614431.0"
"1572893389254","3610676.0"
"1572893389305","3612860.0"
"1572893389356","3623151.0"
"1572893389406","3621938.0"
"1572893389455","3625144.0"
"1572893389500","3623897.0"
"1572893389550","3628188.0"
"1572893389595","3639042.0"
"1572893389641","3650580.0"
"1572893389692","3657211.0"
"1572893389738","3665932.0"
"1572893389787","3674453.0"
"1572893389833","3682610.0"
"1572893389883","3661017.0"
"1572893389932","3634533.0"
"1572893389979","3622639.0"
"1572893390029","3624764.0"
"1572893390076","3626298.0"
"1572893390125","3635521.0"
"1572893390176","3636033.0"
"1572893390224","3632235.0"
"1572893390270","3634525.0"
"1572893390316","3640376.0"
"1572893390370","3652408.0"
"1572893390416","3663392.0"
"1572893390467","3664258.0"
"1572893390515","3677192.0"
"1572893390648","3685134.0"
"1572893390649","3695683.0"
"1572893390676","3670430.0"
"1572893390777","3643548.0"
"1572893390778","3633198.0"
"1572893390808","3635011.0"
"1572893390855","3651169.0"
"1572893390900","3653353.0"
"1572893390946","3667041.0"
"1572893390998","3672866.0"
"1572893391042","3669286.0"
"1572893391091","3675398.0"
"1572893391138","3674036.0"
"1572893391198","3646886.0"
"1572893391238","3643948.0"
"1572893391282","3613962.0"
"1572893391336","3631577.0"
"1572893391382","3625977.0"
"1572893391434","3595022.0"
"1572893391480","3602216.0"
"1572893391528","3647112.0"
"1572893391578","3646774.0"
"1572893391620","3665523.0"
"1572893391671","3677651.0"
"1572893391716","3690030.0"
"1572893391767","3712215.0"
"1572893391816","3701128.0"
"1572893391861","3725218.0"
"1572893391912","3725226.0"
"1572893391958","3697468.0"
"1572893392009","3697824.0"
"1572893392056","3701197.0"
"1572893392104","3712865.0"
"1572893392154","3715586.0"
"1572893392202","3685869.0"
"1572893392255","3689112.0"
"1572893392300","3680843.0"
"1572893392349","3677651.0"
"1572893392401","3681458.0"
"1572893392444","3688114.0"
"1572893392497","3689059.0"
"1572893392536","3669260.0"
"1572893392586","3618876.0"
"1572893392635","3638460.0"
"1572893392688","3625404.0"
"1572893392737","3631473.0"
"1572893392778","3650805.0"
"1572893392830","3718186.0"
"1572893392877","3770424.0"
"1572893392925","3754518.0"
"1572893392974","3754709.0"
"1572893393022","3744333.0"
"1572893393070","3749741.0"
"1572893393118","3751084.0"
"1572893393167","3768033.0"
"1572893393220","3771544.0"
"1572893393268","3763907.0"
"1572893393317","3763968.0"
"1572893393358","3767096.0"
"1572893393415","3769713.0"
"1572893393460","3772913.0"
"1572893393516","3797142.0"
"1572893393558","3807483.0"
"1572893393606","3808308.0"
"1572893393650","3787546.0"
"1572893393706","3766810.0"
"1572893393746","3756850.0"
"1572893393799","3762503.0"
"1572893393956","3768569.0"
"1572893393956","3771205.0"
"1572893393956","3768344.0"
"1572893394032","3769124.0"
"1572893394082","3769984.0"
"1572893394097","3783350.0"
"1572893394133","3797420.0"
"1572893394181","3806201.0"
"1572893394232","3821527.0"
"1572893394282","3821476.0"
"1572893394369","3825229.0"
"1572893394385","3820131.0"
"1572893394538","3804580.0"
"1572893394538","3805257.0"
"1572893394538","3809540.0"
"1572893394610","3810102.0"
"1572893394622","3812278.0"
"1572893394663","3820367.0"
"1572893394719","3819966.0"
"1572893394761","3822896.0"
"1572893394817","3835077.0"
"1572893394862","3845150.0"
"1572893394914","3853125.0"
"1572893394955","3862418.0"
"1572893395003","3873202.0"
"1572893395054","3880301.0"
"1572893395106","3856853.0"
"1572893395149","3843321.0"
"1572893395202","3843035.0"
"1572893395245","3843147.0"
"1572893395296","3842706.0"
"1572893395347","3847143.0"
"1572893395390","3850004.0"
"1572893395458","3852960.0"
"1572893395485","3855362.0"
"1572893395533","3874086.0"
"1572893395581","3887368.0"
"1572893395630","3889109.0"
"1572893395681","3896669.0"
"1572893395727","3910503.0"
"1572893395774","3915125.0"
"1572893395825","3892439.0"
"1572893395875","3877666.0"
"1572893395923","3866398.0"
"1572893395970","3878871.0"
"1572893396019","3883111.0"
"1572893396067","3880866.0"
"1572893396115","3877451.0"
"1572893396163","3877085.0"
"1572893396213","3880901.0"
"1572893396260","3894970.0"
"1572893396309","3910651.0"
"1572893396357","3914847.0"
"1572893396406","3911224.0"
"1572893396454","3924061.0"
"1572893396505","3937897.0"
"1572893396552","3942146.0"
"1572893396598","3930122.0"
"1572893396647","3911448.0"
"1572893396696","3904384.0"
"1572893396742","3897006.0"
"1572893396790","3899572.0"
"1572893396838","3904505.0"
"1572893396888","3903508.0"
"1572893396936","3910426.0"
"1572893396985","3918913.0"
"1572893397034","3933094.0"
"1572893397080","3938261.0"
"1572893397130","3936276.0"
"1572893397177","3942743.0"
"1572893397226","3958070.0"
"1572893397279","3964641.0"
"1572893397324","3980200.0"
"1572893397375","3967969.0"
"1572893397422","3955894.0"
"1572893397472","3939917.0"
"1572893397519","3942952.0"
"1572893397566","3947979.0"
"1572893397612","3956449.0"
"1572893397659","3962420.0"
"1572893397713","3968593.0"
"1572893397756","3975545.0"
"1572893397803","3979611.0"
"1572893397854","3983599.0"
"1572893397901","3997945.0"
"1572893397951","4006658.0"
"1572893397997","4021221.0"
"1572893398047","4028487.0"
"1572893398094","4037189.0"
"1572893398142","4047644.0"
"1572893398191","4058333.0"
"1572893398364","4047705.0"
"1572893398364","4034718.0"
"1572893398364","4025711.0"
"1572893398439","4025244.0"
"1572893398440","4025201.0"
"1572893398484","4030124.0"
"1572893398535","4031902.0"
"1572893398581","4033513.0"
"1572893398626","4036124.0"
"1572893398678","4049568.0"
"1572893398725","4062953.0"
"1572893398775","4066992.0"
"1572893398820","4073780.0"
"1572893398867","4078600.0"
"1572893398915","4086022.0"
"1572893398964","4093988.0"
"1572893399012","4114905.0"
"1572893399059","4120297.0"
"1572893399109","4131403.0"
"1572893399154","4107129.0"
"1572893399206","4097359.0"
"1572893399251","4084270.0"
"1572893399298","4086645.0"
"1572893399348","4090053.0"
"1572893399395","4096857.0"
"1572893399446","4096753.0"
"1572893399492","4106219.0"
"1572893399540","4111715.0"
"1572893399589","4116404.0"
"1572893399637","4122821.0"
"1572893399687","4129296.0"
"1572893399733","4131472.0"
"1572893399955","4139420.0"
"1572893399957","4148652.0"
"1572893399958","4168374.0"
"1572893399962","4174520.0"
"1572893400017","4178318.0"
"1572893400079","4150412.0"
"1572893400079","4135728.0"
"1572893400122","4129781.0"
"1572893400172","4132857.0"
"1572893400218","4134237.0"
"1572893400268","4141041.0"
"1572893400315","4141570.0"
"1572893400364","4142047.0"
"1572893400413","4135129.0"
"1572893400460","4142801.0"
"1572893400507","4147084.0"
"1572893400554","4161405.0"
"1572893400603","4169276.0"
"1572893400652","4177416.0"
"1572893400699","4179748.0"
"1572893400750","4185955.0"
"1572893400795","4192327.0"
"1572893400848","4202451.0"
"1572893400895","4196106.0"
"1572893400943","4171782.0"
"1572893400993","4150916.0"
"1572893401040","4140304.0"
"1572893401089","4122932.0"
"1572893401136","4123081.0"
"1572893401185","4117914.0"
"1572893401233","4112747.0"
"1572893401281","4107883.0"
"1572893401333","4108101.0"
"1572893401378","4113596.0"
"1572893401426","4115069.0"
"1572893401472","4111360.0"
"1572893401523","4116354.0"
"1572893401574","4121104.0"
"1572893401618","4130551.0"
"1572893401670","4131679.0"
"1572893401716","4148089.0"
"1572893401764","4157945.0"
"1572893401813","4162297.0"
"1572893401860","4117524.0"
"1572893401914","4089281.0"
"1572893401957","4066698.0"
"1572893402007","4059225.0"
"1572893402054","4053703.0"
"1572893402103","4055186.0"
"1572893402153","4046933.0"
"1572893402198","4034458.0"
"1572893402248","4005367.0"
"1572893402295","4006121.0"
"1572893402344","3990204.0"
"1572893402506","3999646.0"
"1572893402507","4006095.0"
"1572893402507","4016975.0"
"1572893402608","4017936.0"
"1572893402608","4034389.0"
"1572893402635","4039755.0"
"1572893402682","4018283.0"
"1572893402735","4000936.0"
"1572893402778","3992649.0"
"1572893402827","3987665.0"
"1572893403037","3989573.0"
"1572893403037","3986192.0"
"1572893403037","3986893.0"
"1572893403037","3983191.0"
"1572893403077","3992311.0"
"1572893403151","4002507.0"
"1572893403165","4002618.0"
"1572893403212","3997009.0"
"1572893403261","3994965.0"
"1572893403314","4002176.0"
"1572893403358","4005392.0"
"1572893403407","4014754.0"
"1572893403455","3978215.0"
"1572893403503","3952349.0"
"1572893403554","3930408.0"
"1572893403599","3925778.0"
"1572893403650","3920083.0"
"1572893403696","3916909.0"
"1572893403745","3913539.0"
"1572893403793","3914154.0"
"1572893403841","3911779.0"
"1572893403890","3909940.0"
"1572893403937","3916954.0"
"1572893403987","3919961.0"
"1572893404035","3924851.0"
"1572893404082","3935418.0"
"1572893404135","3945344.0"
"1572893404179","3951924.0"
"1572893404228","3930936.0"
"1572893404276","3892967.0"
"1572893404324","3870644.0"
"1572893404375","3868773.0"
"1572893404420","3862131.0"
"1572893404471","3868686.0"
"1572893404517","3871061.0"
"1572893404566","3866727.0"
"1572893404613","3862219.0"
"1572893404662","3863060.0"
"1572893404711","3870809.0"
"1572893404756","3878916.0"
"1572893404807","3887158.0"
"1572893404860","3890998.0"
"1572893404907","3894580.0"
"1572893404956","3902321.0"
"1572893405004","3904166.0"
"1572893405053","3875742.0"
"1572893405100","3857296.0"
"1572893405148","3851357.0"
"1572893405197","3853559.0"
"1572893405241","3856030.0"
"1572893405294","3845054.0"
"1572893405335","3844500.0"
"1572893405391","3846347.0"
"1572893405437","3851089.0"
"1572893405487","3863633.0"
"1572893405536","3873194.0"
"1572893405583","3878117.0"
"1572893405629","3874659.0"
"1572893405676","3886153.0"
"1572893405724","3894493.0"
"1572893405774","3904253.0"
"1572893405821","3881341.0"
"1572893405871","3861239.0"
"1572893405918","3852883.0"
"1572893405967","3857598.0"
"1572893406014","3863155.0"
"1572893406068","3867534.0"
"1572893406112","3868858.0"
"1572893406164","3874720.0"
"1572893406216","3876514.0"
"1572893406254","3878542.0"
"1572893406304","3884141.0"
"1572893406358","3893705.0"
"1572893406405","3901549.0"
"1572893406577","3903587.0"
"1572893406578","3924955.0"
"1572893406580","3938651.0"
"1572893406619","3941875.0"
"1572893406679","3912827.0"
"1572893406697","3893729.0"
"1572893406739","3882607.0"
"1572893406786","3884871.0"
"1572893406835","3882607.0"
"1572893406884","3891051.0"
"1572893406934","3890348.0"
"1572893406980","3892837.0"
"1572893407030","3892455.0"
"1572893407077","3895732.0"
"1572893407126","3901661.0"
"1572893407175","3908900.0"
"1572893407221","3918323.0"
"1572893407276","3928933.0"
"1572893407320","3936520.0"
"1572893407372","3940922.0"
"1572893407418","3931005.0"
"1572893407467","3905641.0"
"1572893407516","3894284.0"
"1572893407564","3891779.0"
"1572893407614","3894987.0"
"1572893407657","3896330.0"
"1572893407708","3897805.0"
"1572893407758","3888321.0"
"1572893407805","3885980.0"
"1572893407851","3888562.0"
"1572893407898","3893634.0"
"1572893407950","3910434.0"
"1572893407998","3912827.0"
"1572893408043","3914725.0"
"1572893408092","3920577.0"
"1572893408138","3930650.0"
"1572893408186","3935748.0"
"1572893408413","3933771.0"
"1572893408413","3915940.0"
"1572893408413","3905962.0"
"1572893408413","3904739.0"
"1572893408450","3907894.0"
"1572893408522","3910521.0"
"1572893408534","3912159.0"
"1572893408578","3919077.0"
"1572893408622","3927850.0"
"1572893408675","3934049.0"
"1572893408723","3941686.0"
"1572893408770","3947572.0"
"1572893408819","3949669.0"
"1572893408868","3952453.0"
"1572893408916","3973144.0"
"1572893408958","3971273.0"
"1572893409007","3955435.0"
"1572893409059","3933303.0"
"1572893409109","3922787.0"
"1572893409157","3918557.0"
"1572893409201","3917309.0"
"1572893409254","3922606.0"
"1572893409298","3926255.0"
"1572893409345","3925284.0"
"1572893409394","3923169.0"
"1572893409442","3928578.0"
"1572893409491","3933285.0"
"1572893409680","3942891.0"
"1572893409682","3955764.0"
"1572893409684","3964466.0"
"1572893409708","3967189.0"
"1572893409777","3972608.0"
"1572893409785","3969816.0"
"1572893409832","3941825.0"
"1572893409879","3930087.0"
"1572893409928","3935140.0"
"1572893409978","3931154.0"
"1572893410025","3937282.0"
"1572893410073","3929341.0"
"1572893410117","3927633.0"
"1572893410170","3925751.0"
"1572893410212","3936891.0"
"1572893410262","3940654.0"
"1572893410310","3943117.0"
"1572893410445","3948698.0"
"1572893410445","3961181.0"
"1572893410475","3965828.0"
"1572893410575","3980885.0"
"1572893410575","3982195.0"
"1572893410627","3978345.0"
"1572893410649","3951455.0"
"1572893410696","3945482.0"
"1572893410742","3942960.0"
"1572893410798","3942146.0"
"1572893410841","3954125.0"
"1572893410893","3951569.0"
"1572893410941","3954021.0"
"1572893410990","3947355.0"
"1572893411038","3951238.0"
"1572893411081","3956996.0"
"1572893411131","3972061.0"
"1572893411179","3984865.0"
"1572893411226","3995249.0"
"1572893411276","4000331.0"
"1572893411328","4008271.0"
"1572893411456","4010282.0"
"1572893411456","3992250.0"
"1572893411480","3984067.0"
"1572893411570","3980452.0"
"1572893411570","3993941.0"
"1572893411614","4002480.0"
"1572893411664","4006068.0"
"1572893411710","4009276.0"
"1572893411756","4007281.0"
"1572893411807","4004317.0"
"1572893411855","4013446.0"
"1572893411903","4022365.0"
"1572893411952","4034129.0"
"1572893412003","4047132.0"
"1572893412052","4054814.0"
"1572893412100","4068406.0"
"1572893412144","4068266.0"
"1572893412197","4045078.0"
"1572893412244","4024151.0"
"1572893412327","4029257.0"
"1572893412419","4031408.0"
"1572893412419","4036912.0"
"1572893412436","4038395.0"
"1572893412541","4033982.0"
"1572893412584","4034529.0"
"1572893412627","4039990.0"
"1572893412679","4042963.0"
"1572893412724","4045269.0"
"1572893412772","4050895.0"
"1572893412819","4063075.0"
"1572893412868","4075133.0"
"1572893412916","4078990.0"
"1572893412965","4051102.0"
"1572893413013","4039919.0"
"1572893413060","4028797.0"
"1572893413110","4016004.0"
"1572893413157","4012883.0"
"1572893413203","4018517.0"
"1572893413259","4018803.0"
"1572893413306","4024334.0"
"1572893413355","4023267.0"
"1572893413401","4022532.0"
"1572893413451","4018594.0"
"1572893413499","4030896.0"
"1572893413547","4036989.0"
"1572893413596","4041004.0"
"1572893413639","4049942.0"
"1572893413692","4054727.0"
"1572893413740","4045242.0"
"1572893413792","4020719.0"
"1572893413837","4005132.0"
"1572893413884","3996040.0"
"1572893413935","3994705.0"
"1572893413980","4002844.0"
"1572893414024","3993837.0"
"1572893414074","3992129.0"
"1572893414212","3985558.0"
"1572893414214","3991263.0"
"1572893414234","3988177.0"
"1572893414331","3999739.0"
"1572893414331","4005272.0"
"1572893414363","4013949.0"
"1572893414416","4016774.0"
"1572893414463","4017814.0"
"1572893414513","3998336.0"
"1572893414560","3978640.0"
"1572893414606","3967831.0"
"1572893414651","3966990.0"
"1572893414699","3966132.0"
"1572893414749","3959899.0"
"1572893414796","3950614.0"
"1572893414845","3952184.0"
"1572893414893","3953822.0"
"1572893414942","3963548.0"
"1572893415158","3970344.0"
"1572893415160","3963662.0"
"1572893415163","3963201.0"
"1572893415166","3969365.0"
"1572893415201","3990066.0"
"1572893415267","4000044.0"
"1572893415281","3990117.0"
"1572893415330","3976734.0"
"1572893415377","3950120.0"
"1572893415428","3916304.0"
"1572893415473","3618895.0"
"1572893415521","3315358.0"
"1572893415569","2896698.0"
"1572893415616","2813964.0"
"1572893415668","2886633.0"
"1572893415713","2854351.0"
"1572893415762","2858936.0"
"1572893415811","2867892.0"
"1572893415858","2875721.0"
"1572893415910","2892745.0"
"1572893415954","2906745.0"
"1572893416003","2923286.0"
"1572893416052","2926163.0"
"1572893416101","2916845.0"
"1572893416152","2915606.0"
"1572893416197","2914574.0"
"1572893416248","2921171.0"
"1572893416295","2922150.0"
"1572893416343","2924732.0"
"1572893416393","2930385.0"
"1572893416439","2931754.0"
"1572893416489","2938317.0"
"1572893416535","2946501.0"
"1572893416584","2954337.0"
"1572893416633","2960249.0"
"1572893416680","2968789.0"
"1572893416729","2992264.0"
"1572893416776","3023991.0"
"1572893416825","3044276.0"
"1572893416874","3086441.0"
"1572893416922","3386979.0"
"1572893416973","4767534.0"
"1572893417018","5256523.0"
"1572893417066","5424274.0"
"1572893417115","5465597.0"
"1572893417163","5741263.0"
"1572893417215","5705035.0"
"1572893417260","5673431.0"
"1572893417313","5707702.0"
"1572893417357","5637711.0"
"1572893417406","5391737.0"
"1572893417455","5400092.0"
"1572893417502","5165007.0"
"1572893417557","5093579.0"
"1572893417603","4904886.0"
"1572893417648","4793963.0"
"1572893417696","4652162.0"
"1572893417747","4456210.0"
"1572893417797","4461332.0"
"1572893417844","4443207.0"
"1572893417891","4392019.0"
"1572893417941","4324380.0"
"1572893417989","4341928.0"
"1572893418036","4372447.0"
"1572893418085","4394099.0"
"1572893418133","4374956.0"
"1572893418178","4362508.0"
"1572893418227","4300216.0"
"1572893418275","4258787.0"
"1572893418323","4223294.0"
"1572893418375","4193885.0"
"1572893418419","4167131.0"
"1572893418468","4152748.0"
"1572893418520","4142256.0"
"1572893418568","4134918.0"
"1572893418613","4124458.0"
"1572893418664","4134590.0"
"1572893418714","4130848.0"
"1572893418757","4132532.0"
"1572893418809","4128428.0"
"1572893418853","4129241.0"
"1572893418906","4111467.0"
"1572893418954","4069189.0"
"1572893419000","4051844.0"
"1572893419051","4026550.0"
"1572893419093","4030778.0"
"1572893419144","4031108.0"
"1572893419199","4029693.0"
"1572893419241","4032373.0"
"1572893419292","4033560.0"
"1572893419336","4047853.0"
"1572893419384","4051992.0"
"1572893419435","4055564.0"
"1572893419480","4073090.0"
"1572893419531","4089463.0"
"1572893419576","4106390.0"
"1572893419625","4081605.0"
"1572893419673","4072661.0"
"1572893419721","4063863.0"
"1572893419772","4078732.0"
"1572893419822","4079784.0"
"1572893419870","4093092.0"
"1572893419914","4086320.0"
"1572893419967","4107713.0"
"1572893420014","4122672.0"
"1572893420064","4136466.0"
"1572893420113","4142799.0"
"1572893420160","4158256.0"
"1572893420202","4172627.0"
"1572893420258","4177375.0"
"1572893420304","4198599.0"
"1572893420350","4184228.0"
"1572893420397","4185969.0"
"1572893420445","4182170.0"
"1572893420494","4183775.0"
"1572893420541","4201551.0"
"1572893420591","4205452.0"
"1572893420637","4217709.0"
"1572893420686","4221192.0"
"1572893420733","4240288.0"
"1572893420783","4249165.0"
"1572893420832","4269224.0"
"1572893420879","4283379.0"
"1572893420930","4306106.0"
"1572893420974","4323328.0"
"1572893421027","4322763.0"
"1572893421076","4322005.0"
"1572893421120","4324380.0"
"1572893421174","4392007.0"
"1572893421219","4367459.0"
"1572893421270","4319550.0"
"1572893421319","4272434.0"
"1572893421361","4399018.0"
"1572893421411","4413943.0"
"1572893421458","4233650.0"
"1572893421506","4292018.0"
"1572893421554","4643929.0"
"1572893421602","3737439.0"
"1572893421650","3242843.0"
"1572893421698","3305563.0"
"1572893421749","3339247.0"
"1572893421798","3318001.0"
"1572893421841","3301107.0"
"1572893421897","3291975.0"
"1572893421944","3304594.0"
"1572893421994","3318263.0"
"1572893422035","3306370.0"
"1572893422090","3355591.0"
"1572893422134","3355345.0"
"1572893422182","3358955.0"
"1572893422237","3351131.0"
"1572893422281","3317820.0"
"1572893422331","3293068.0"
"1572893422379","3285877.0"
"1572893422426","3290819.0"
"1572893422476","3302361.0"
"1572893422523","3313369.0"
"1572893422573","3312351.0"
"1572893422616","3292448.0"
"1572893422664","3325905.0"
"1572893422714","3397345.0"
"1572893422760","3452495.0"
"1572893422811","3446826.0"
"1572893422858","3437112.0"
"1572893422905","3439514.0"
"1572893422955","3447056.0"
"1572893423002","3456969.0"
"1572893423055","3468948.0"
"1572893423097","3484062.0"
"1572893423152","3498571.0"
"1572893423199","3513931.0"
"1572893423249","3519729.0"
"1572893423296","3511023.0"
"1572893423339","3506336.0"
"1572893423395","3508538.0"
"1572893423438","3513289.0"
"1572893423488","3520922.0"
"1572893423531","3530116.0"
"1572893423577","3533007.0"
"1572893423628","3538056.0"
"1572893423677","3547853.0"
"1572893423724","3556382.0"
"1572893423772","3567091.0"
"1572893423821","3576620.0"
"1572893423870","3586389.0"
"1572893423917","3580155.0"
"1572893423966","3561163.0"
"1572893424013","3555892.0"
"1572893424067","3551510.0"
"1572893424112","3554080.0"
"1572893424159","3551548.0"
"1572893424212","3544992.0"
"1572893424259","3536648.0"
"1572893424309","3534683.0"
"1572893424358","3534758.0"
"1572893424404","3533389.0"
"1572893424454","3532669.0"
"1572893424500","3513457.0"
"1572893424551","3485102.0"
"1572893424599","3439957.0"
"1572893424643","3401805.0"
"1572893424695","3369642.0"
"1572893424742","3354542.0"
"1572893424792","3377121.0"
"1572893424839","3504186.0"
"1572893424888","3349449.0"
"1572893424937","3048204.0"
"1572893424979","2918653.0"
"1572893425033","2801885.0"
"1572893425076","2577143.0"
"1572893425124","2381108.0"
"1572893425174","2248966.0"
"1572893425222","2197083.0"
"1572893425270","2182966.0"
"1572893425320","2174405.0"
"1572893425364","2171133.0"
"1572893425415","2185703.0"
"1572893425463","2200468.0"
"1572893425516","2214824.0"
"1572893425561","2226574.0"
"1572893425607","2238100.0"
"1572893425655","2248242.0"
"1572893425708","2244482.0"
"1572893425757","2228010.0"
"1572893425801","2218668.0"
"1572893425851","2222986.0"
"1572893425897","2238927.0"
"1572893425944","2261829.0"
"1572893425992","2290543.0"
"1572893426040","2316202.0"
"1572893426094","2344019.0"
"1572893426138","2363611.0"
"1572893426191","2374690.0"
"1572893426241","2382472.0"
"1572893426283","2392354.0"
"1572893426333","2400536.0"
"1572893426383","2410932.0"
"1572893426428","2420467.0"
"1572893426476","2426156.0"
"1572893426525","2435114.0"
"1572893426574","2442827.0"
"1572893426621","2454842.0"
"1572893426668","2463284.0"
"1572893426718","2468933.0"
"1572893426765","2470970.0"
"1572893426815","2470540.0"
"1572893426861","2471356.0"
"1572893426916","2472261.0"
"1572893426962","2474581.0"
"1572893427007","2476594.0"
"1572893427060","2477909.0"
"1572893427104","2479205.0"
"1572893427157","2487371.0"
"1572893427204","2497726.0"
"1572893427255","2511437.0"
"1572893427297","2523296.0"
"1572893427349","2535783.0"
"1572893427398","2553291.0"
"1572893427443","2567497.0"
"1572893427490","2581977.0"
"1572893427537","2593529.0"
"1572893427586","2603266.0"
"1572893427635","2615789.0"
"1572893427684","2615799.0"
"1572893427731","2590163.0"
"1572893427778","2653661.0"
"1572893427827","2877872.0"
"1572893427875","3027413.0"
"1572893427924","3215435.0"
"1572893427976","3392302.0"
"1572893428024","3893044.0"
"1572893428075","4659423.0"
"1572893428116","4667089.0"
"1572893428163","4870558.0"
"1572893428218","4810762.0"
"1572893428265","4777081.0"
"1572893428311","4640790.0"
"1572893428361","4730536.0"
"1572893428406","4701553.0"
"1572893428458","4653127.0"
"1572893428505","4616454.0"
"1572893428554","4578557.0"
"1572893428603","4598351.0"
"1572893428651","4482901.0"
"1572893428699","4400776.0"
"1572893428745","4564368.0"
"1572893428790","4127882.0"
"1572893428839","4243551.0"
"1572893428889","4131742.0"
"1572893428937","4074181.0"
"1572893428985","4002285.0"
"1572893429033","3910440.0"
"1572893429081","3865016.0"
"1572893429130","3845999.0"
"1572893429181","3809554.0"
"1572893429225","3991836.0"
"1572893429278","7361830.0"
"1572893429327","8925204.0"
"1572893429375","7796484.0"
"1572893429422","4916197.0"
"1572893429473","3947517.0"
"1572893429519","4558021.0"
"1572893429566","4446915.0"
"1572893429612","4647058.0"
"1572893429657","4611147.0"
"1572893429709","4667109.0"
"1572893429755","4496188.0"
"1572893429805","4505106.0"
"1572893429852","4473600.0"
"1572893429905","4456488.0"
"1572893429954","4433572.0"
"1572893430001","4449515.0"
"1572893430048","4431097.0"
"1572893430098","4509511.0"
"1572893430142","4385464.0"
"1572893430194","4456340.0"
"1572893430245","4251601.0"
"1572893430289","4494500.0"
"1572893430339","4495498.0"
"1572893430383","4556099.0"
"1572893430432","5022833.0"
"1572893430479","4825833.0"
"1572893430530","4723378.0"
"1572893430576","4688668.0"
"1572893430625","4650083.0"
"1572893430673","4063792.0"
"1572893430721","3914008.0"
"1572893430771","3969320.0"
"1572893430820","3972272.0"
"1572893430868","4030336.0"
"1572893430918","4032660.0"
"1572893430967","4012661.0"
"1572893431011","3997206.0"
"1572893431062","3991125.0"
"1572893431108","3972484.0"
"1572893431159","3968747.0"
"1572893431207","3957613.0"
"1572893431251","3943984.0"
"1572893431304","3939165.0"
"1572893431347","3949090.0"
"1572893431400","3959661.0"
"1572893431451","3986293.0"
"1572893431499","3980466.0"
"1572893431544","3995869.0"
"1572893431590","4014423.0"
"1572893431637","4014626.0"
"1572893431690","3996432.0"
"1572893431735","3994701.0"
"1572893431783","3987610.0"
"1572893431832","3982780.0"
"1572893431878","3983884.0"
"1572893431928","3985753.0"
"1572893431975","3996527.0"
"1572893432023","4005113.0"
"1572893432072","4007460.0"
"1572893432120","4014340.0"
"1572893432173","4003947.0"
"1572893432216","4013106.0"
"1572893432270","4015114.0"
"1572893432318","4030961.0"
"1572893432365","4029878.0"
"1572893432411","4012598.0"
"1572893432462","4000475.0"
"1572893432511","3989924.0"
"1572893432559","3984522.0"
"1572893432608","3967644.0"
"1572893432652","3952221.0"
"1572893432703","3952422.0"
"1572893432752","3928825.0"
"1572893432800","3927381.0"
"1572893432847","3942105.0"
"1572893432893","3947146.0"
"1572893432943","3948527.0"
"1572893432992","3945862.0"
"1572893433037","3949746.0"
"1572893433085","3961126.0"
"1572893433134","3968865.0"
"1572893433181","3975275.0"
"1572893433234","3975956.0"
"1572893433277","3958292.0"
"1572893433327","3935057.0"
"1572893433374","3917775.0"
"1572893433422","3908264.0"
"1572893433472","3950246.0"
"1572893433523","3958005.0"
"1572893433572","3914571.0"
"1572893433616","3882609.0"
"1572893433667","3879923.0"
"1572893433712","3873300.0"
"1572893433764","3872780.0"
"1572893433814","3872174.0"
"1572893433859","3858958.0"
"1572893433910","3848683.0"
"1572893433955","3829705.0"
"1572893434006","3793306.0"
"1572893434057","3809111.0"
"1572893434103","3779858.0"
"1572893434151","3753851.0"
"1572893434199","3747195.0"
"1572893434250","3716624.0"
"1572893434294","3687497.0"
"1572893434339","3670576.0"
"1572893434389","3647490.0"
"1572893434436","3630453.0"
"1572893434484","3611664.0"
"1572893434532","3568940.0"
"1572893434580","3530461.0"
"1572893434630","3503902.0"
"1572893434677","3484212.0"
"1572893434730","3470317.0"
"1572893434772","3449469.0"
"1572893434825","3419601.0"
"1572893434878","3390908.0"
"1572893434923","3420714.0"
"1572893434971","3381640.0"
"1572893435014","3288689.0"
"1572893435062","3226242.0"
"1572893435112","3212854.0"
"1572893435163","3167492.0"
"1572893435214","3146727.0"
"1572893435254","3126178.0"
"1572893435310","3080704.0"
"1572893435355","3079903.0"
"1572893435405","3086120.0"
"1572893435455","3120528.0"
"1572893435496","3178814.0"
"1572893435545","3321937.0"
"1572893435595","3367564.0"
"1572893435642","3501293.0"
"1572893435691","3581817.0"
"1572893435739","3603254.0"
"1572893435788","3652122.0"
"1572893435835","3689947.0"
"1572893435883","3785882.0"
"1572893435934","3840520.0"
"1572893435984","3914114.0"
"1572893436031","4011010.0"
"1572893436081","4114564.0"
"1572893436126","4249843.0"
"1572893436177","4325302.0"
"1572893436227","4430289.0"
"1572893436275","4508948.0"
"1572893436322","4553039.0"
"1572893436371","4568738.0"
"1572893436414","4554118.0"
"1572893436467","4468234.0"
"1572893436512","4559888.0"
"1572893436563","4857305.0"
"1572893436614","5059065.0"
"1572893436658","5147696.0"
"1572893436710","5293744.0"
"1572893436758","5385573.0"
"1572893436805","5328276.0"
"1572893436854","4984078.0"
"1572893436899","4855659.0"
"1572893436946","4663978.0"
"1572893436996","4349141.0"
"1572893437042","3998256.0"
"1572893437091","3796352.0"
"1572893437138","3674038.0"
"1572893437187","3657902.0"
"1572893437234","3591434.0"
"1572893437283","3547381.0"
"1572893437333","3578026.0"
"1572893437383","3679431.0"
"1572893437434","3601560.0"
"1572893437477","3327654.0"
"1572893437527","3559992.0"
"1572893437578","4026237.0"
"1572893437621","4087401.0"
"1572893437668","3963950.0"
"1572893437715","3987896.0"
"1572893437764","3622875.0"
"1572893437814","2998944.0"
"1572893437862","2319914.0"
"1572893437912","2145024.0"
"1572893437959","2133325.0"
"1572893438007","2101036.0"
"1572893438055","2087304.0"
"1572893438104","2075357.0"
"1572893438153","2051202.0"
"1572893438199","2016682.0"
"1572893438250","2011615.0"
"1572893438296","1990633.0"
"1572893438345","1983331.0"
"1572893438394","1984709.0"
"1572893438441","1979763.0"
"1572893438490","2006716.0"
"1572893438538","2169059.0"
"1572893438586","2395755.0"
"1572893438635","2439322.0"
"1572893438682","2498657.0"
"1572893438732","2574258.0"
"1572893438778","2610568.0"
"1572893438828","2614068.0"
"1572893438876","3501186.0"
"1572893438924","4104259.0"
"1572893438974","3822080.0"
"1572893439020","3917324.0"
"1572893439070","4180307.0"
"1572893439117","5108597.0"
"1572893439165","6205570.0"
"1572893439215","6857665.0"
"1572893439259","6799161.0"
"1572893439308","6112582.0"
"1572893439357","6279847.0"
"1572893439405","8049542.0"
"1572893439452","6418290.0"
"1572893439500","4619723.0"
"1572893439549","5194266.0"
"1572893439597","5625900.0"
"1572893439655","5299584.0"
"1572893439695","4813689.0"
"1572893439743","4373680.0"
"1572893439793","3943311.0"
"1572893439841","3621022.0"
"1572893439890","3375496.0"
"1572893439939","2739724.0"
"1572893439985","2988099.0"
"1572893440034","2916766.0"
"1572893440082","2807704.0"
"1572893440130","2749702.0"
"1572893440179","2711072.0"
"1572893440227","2672158.0"
"1572893440275","2650008.0"
"1572893440322","2612707.0"
"1572893440372","2571611.0"
"1572893440420","2545619.0"
"1572893440468","2469264.0"
"1572893440516","2445293.0"
"1572893440564","2405341.0"
"1572893440614","2385473.0"
"1572893440662","2330465.0"
"1572893440710","2273661.0"
"1572893440760","2243273.0"
"1572893440939","2229345.0"
"1572893440940","2191555.0"
"1572893440946","2178070.0"
"1572893440986","2171434.0"
"1572893441004","2169100.0"
"1572893441334","2242787.0"
"1572893441335","2332170.0"
"1572893441342","2416896.0"
"1572893441342","2562023.0"
"1572893441398","2609172.0"
"1572893441402","2668570.0"
"1572893441472","2774649.0"
"1572893441486","2770688.0"
"1572893441531","2793622.0"
"1572893441576","2806509.0"
"1572893441627","2841402.0"
"1572893441675","2872334.0"
"1572893441723","2621261.0"
"1572893441773","2592528.0"
"1572893441821","2621251.0"
"1572893441868","2746042.0"
"1572893441916","2772136.0"
"1572893441964","2818389.0"
"1572893442013","2948748.0"
"1572893442062","3309273.0"
"1572893442107","3284163.0"
"1572893442155","3488071.0"
"1572893442206","3919701.0"
"1572893442255","3882335.0"
"1572893442301","3777170.0"
"1572893442356","3676399.0"
"1572893442402","3534354.0"
"1572893442451","3350137.0"
"1572893442499","2986483.0"
"1572893442543","2724441.0"
"1572893442598","2927323.0"
"1572893442643","2686161.0"
"1572893442686","2263188.0"
"1572893442735","2166395.0"
"1572893442785","2138786.0"
"1572893442835","2073486.0"
"1572893442882","2101388.0"
"1572893442930","2086172.0"
"1572893442978","2073209.0"
"1572893443027","2047321.0"
"1572893443074","2014679.0"
"1572893443121","2005955.0"
"1572893443173","2010105.0"
"1572893443219","2001891.0"
"1572893443268","2003661.0"
"1572893443320","2014522.0"
"1572893443363","2038523.0"
"1572893443416","2029269.0"
"1572893443462","2053583.0"
"1572893443514","2110736.0"
"1572893443561","2143299.0"
"1572893443609","2149250.0"
"1572893443658","2182068.0"
"1572893443705","2197851.0"
"1572893443754","2231389.0"
"1572893443802","2426493.0"
"1572893443853","2922455.0"
"1572893443899","3416545.0"
"1572893443946","3182657.0"
"1572893443996","2678974.0"
"1572893444044","1987929.0"
"1572893444090","1933387.0"
"1572893444136","1956803.0"
"1572893444186","1958798.0"
"1572893444234","1976939.0"
"1572893444281","2014624.0"
"1572893444331","2035653.0"
"1572893444377","2054511.0"
"1572893444427","2158234.0"
"1572893444475","2326278.0"
"1572893444528","3002319.0"
"1572893444576","3231205.0"
"1572893444619","3373706.0"
"1572893444674","3247731.0"
"1572893444721","2503123.0"
"1572893444768","2090682.0"
"1572893444817","2014791.0"
"1572893444865","1962857.0"
"1572893444913","1955984.0"
"1572893444961","1989394.0"
"1572893445005","2078673.0"
"1572893445058","2113865.0"
"1572893445107","2180498.0"
"1572893445155","2251629.0"
"1572893445195","2631462.0"
"1572893445248","3048746.0"
"1572893445300","3229746.0"
"1572893445346","2954046.0"
"1572893445392","2540466.0"
"1572893445439","2548122.0"
"1572893445491","2517455.0"
"1572893445536","2442693.0"
"1572893445586","2250827.0"
"1572893445633","2142923.0"
"1572893445681","2101205.0"
"1572893445730","2052961.0"
"1572893445781","2017117.0"
"1572893445826","2002580.0"
"1572893445878","1995721.0"
"1572893445924","1991448.0"
"1572893445975","1991391.0"
"1572893446022","1995629.0"
"1572893446066","2004823.0"
"1572893446115","2015252.0"
"1572893446167","2020096.0"
"1572893446210","2021410.0"
"1572893446267","2018872.0"
"1572893446314","2019943.0"
"1572893446360","2020059.0"
"1572893446407","2019183.0"
"1572893446458","2023074.0"
"1572893446505","2024088.0"
"1572893446554","2022406.0"
"1572893446602","2024007.0"
"1572893446647","2024827.0"
"1572893446700","2022334.0"
"1572893446746","2022899.0"
"1572893446792","2022074.0"
"1572893446843","2023226.0"
"1572893446889","2026857.0"
"1572893446939","2023237.0"
"1572893446984","2022129.0"
"1572893447034","2025898.0"
"1572893447080","2027550.0"
"1572893447132","2031028.0"
"1572893447177","2023568.0"
"1572893447225","2025469.0"
"1572893447274","2032991.0"
"1572893447322","2052191.0"
"1572893447372","2066060.0"
"1572893447422","2086095.0"
"1572893447471","2084203.0"
"1572893447519","2067626.0"
"1572893447568","2100000.0"
"1572893447613","2105177.0"
"1572893447663","2115748.0"
"1572893447708","2129913.0"
"1572893447760","2124239.0"
"1572893447803","2113107.0"
"1572893447853","2093194.0"
"1572893447901","2095477.0"
"1572893447952","2136124.0"
"1572893447997","2149111.0"
"1572893448046","2165640.0"
"1572893448099","2158510.0"
"1572893448142","2144528.0"
"1572893448191","2144160.0"
"1572893448236","2136513.0"
"1572893448287","2133365.0"
"1572893448334","2122034.0"
"1572893448383","2126915.0"
"1572893448434","2124013.0"
"1572893448479","2108960.0"
"1572893448530","2086499.0"
"1572893448575","2066316.0"
"1572893448624","2049804.0"
"1572893448673","2044464.0"
"1572893448725","2047203.0"
"1572893448772","2047534.0"
"1572893448821","2055801.0"
"1572893448869","2050574.0"
"1572893448918","2084963.0"
"1572893448966","2125844.0"
"1572893449013","2151921.0"
"1572893449057","2158179.0"
"1572893449110","2146486.0"
"1572893449156","2156909.0"
"1572893449207","2180549.0"
"1572893449254","2189316.0"
"1572893449299","2242393.0"
"1572893449350","2285529.0"
"1572893449396","2328076.0"
"1572893449445","2374816.0"
"1572893449494","2407105.0"
"1572893449542","2457630.0"
"1572893449594","2491942.0"
"1572893449638","2503747.0"
"1572893449691","2538636.0"
"1572893449733","2568181.0"
"1572893449782","2563878.0"
"1572893449838","2561353.0"
"1572893449883","2539223.0"
"1572893449932","2536102.0"
"1572893449977","2533373.0"
"1572893450027","2524976.0"
"1572893450075","2516510.0"
"1572893450120","2522926.0"
"1572893450173","2514706.0"
"1572893450219","2493864.0"
"1572893450266","2449308.0"
"1572893450314","2415240.0"
"1572893450362","2387728.0"
"1572893450414","2395739.0"
"1572893450458","2456492.0"
"1572893450507","2545938.0"
"1572893450555","2595937.0"
"1572893450603","2627935.0"
"1572893450653","2629057.0"
"1572893450703","2626681.0"
"1572893450747","2633059.0"
"1572893450795","2652371.0"
"1572893450846","2652290.0"
"1572893450892","2642667.0"
"1572893450946","2677888.0"
"1572893450994","2841555.0"
"1572893451044","2879294.0"
"1572893451091","2760939.0"
"1572893451135","2698733.0"
"1572893451186","2679785.0"
"1572893451233","2681528.0"
"1572893451284","2688489.0"
"1572893451333","2693445.0"
"1572893451379","2684822.0"
"1572893451428","2659015.0"
"1572893451474","2627074.0"
"1572893451520","2614580.0"
"1572893451570","2602735.0"
"1572893451617","2583403.0"
"1572893451665","2571282.0"
"1572893451714","2568907.0"
"1572893451762","2591516.0"
"1572893451810","2645410.0"
"1572893451858","2648673.0"
"1572893451911","2639878.0"
"1572893451955","2628731.0"
"1572893452007","2606752.0"
"1572893452056","2585896.0"
"1572893452099","2564486.0"
"1572893452153","2551450.0"
"1572893452200","2541068.0"
"1572893452248","2539432.0"
"1572893452296","2514980.0"
"1572893452346","2550824.0"
"1572893452393","2805656.0"
"1572893452440","2945804.0"
"1572893452487","3153304.0"
"1572893452539","2938583.0"
"1572893452586","2654839.0"
"1572893452631","2566127.0"
"1572893452684","2566790.0"
"1572893452728","2789067.0"
"1572893452775","2721838.0"
"1572893452823","3055459.0"
"1572893452873","2888242.0"
"1572893452919","2716296.0"
"1572893452970","2474430.0"
"1572893453017","2531559.0"
"1572893453065","2645701.0"
"1572893453114","2647257.0"
"1572893453165","2546795.0"
"1572893453215","2360968.0"
"1572893453259","2017347.0"
"1572893453398","1880716.0"
"1572893453399","1824936.0"
"1572893453419","1806077.0"
"1572893453705","1775473.0"
"1572893453705","1764831.0"
"1572893453705","1755345.0"
"1572893453797","1755469.0"
"1572893453797","1749914.0"
"1572893453840","1751755.0"
"1572893453888","1750471.0"
"1572893453938","1748508.0"
"1572893453983","1749569.0"
"1572893454033","1743703.0"
"1572893454080","1739517.0"
"1572893454129","1735769.0"
"1572893454176","1735265.0"
"1572893454225","1732226.0"
"1572893454274","1733384.0"
"1572893454321","1735214.0"
"1572893454373","1731262.0"
"1572893454419","1729952.0"
"1572893454471","1733560.0"
"1572893454519","1734570.0"
"1572893454566","1738471.0"
"1572893454612","1735694.0"
"1572893454796","1737748.0"
"1572893454796","1739916.0"
"1572893454796","1743642.0"
"1572893454818","1741155.0"
"1572893454940","1742705.0"
"1572893454940","1738177.0"
"1572893454963","1735346.0"
"1572893455001","1734867.0"
"1572893455049","1739885.0"
"1572893455097","1738599.0"
"1572893455142","1733154.0"
"1572893455193","1743841.0"
"1572893455238","1735235.0"
"1572893455292","1760434.0"
"1572893455338","1757874.0"
"1572893455387","1752464.0"
"1572893455436","1755335.0"
"1572893455477","1754835.0"
"1572893455532","1776048.0"
"1572893455575","1782215.0"
"1572893455623","1806782.0"
"1572893455673","1868472.0"
"1572893455721","2200187.0"
"1572893455770","2694822.0"
"1572893455818","3138750.0"
"1572893455864","3024755.0"
"1572893455913","2648693.0"
"1572893455962","2402226.0"
"1572893456010","2063979.0"
"1572893456178","1898906.0"
"1572893456178","1847596.0"
"1572893456178","1802240.0"
"1572893456233","1807191.0"
"1572893456316","1803473.0"
"1572893456316","1789399.0"
"1572893456369","1774136.0"
"1572893456400","1774468.0"
"1572893456448","1783702.0"
"1572893456498","1773309.0"
"1572893456542","1761735.0"
"1572893456587","1765666.0"
"1572893456637","1759756.0"
"1572893456685","1752348.0"
"1572893456734","1744969.0"
"1572893456782","1733904.0"
"1572893456830","1711924.0"
"1572893456877","1764488.0"
"1572893456926","1930741.0"
"1572893456974","2552543.0"
"1572893457027","2649541.0"
"1572893457076","2802285.0"
"1572893457121","2825589.0"
"1572893457172","2881284.0"
"1572893457219","2713053.0"
"1572893457268","2402062.0"
"1572893457317","2453209.0"
"1572893457367","2698105.0"
"1572893457414","3067989.0"
"1572893457457","3225077.0"
"1572893457510","3342319.0"
"1572893457557","3575641.0"
"1572893457602","3655690.0"
"1572893457649","3927909.0"
"1572893457697","3822368.0"
"1572893457746","3776603.0"
"1572893457795","3516637.0"
"1572893457843","3224527.0"
"1572893457891","3285768.0"
"1572893457938","3051257.0"
"1572893457987","2739403.0"
"1572893458035","2691246.0"
"1572893458183","2622553.0"
"1572893458185","2710469.0"
"1572893458185","2521447.0"
"1572893458358","2309534.0"
"1572893458358","2152632.0"
"1572893458359","2036912.0"
"1572893458387","2016073.0"
"1572893458424","1975497.0"
"1572893458471","1944606.0"
"1572893458518","1931357.0"
"1572893458567","1890068.0"
"1572893458615","1905310.0"
"1572893458839","1917279.0"
"1572893458839","1981509.0"
"1572893458839","2001641.0"
"1572893458844","1983079.0"
"1572893458882","2046342.0"
"1572893458976","2036597.0"
"1572893458976","1976783.0"
"1572893459006","1944535.0"
"1572893459053","1892016.0"
"1572893459101","1902017.0"
"1572893459146","1919343.0"
"1572893459199","2095004.0"
"1572893459244","2603056.0"
"1572893459384","2555664.0"
"1572893459385","2701442.0"
"1572893459403","2622193.0"
"1572893459557","2805461.0"
"1572893459557","2866679.0"
"1572893459557","3066055.0"
"1572893459587","3052511.0"
"1572893459633","3257636.0"
"1572893459679","3204987.0"
"1572893459724","3306112.0"
"1572893459772","3246845.0"
"1572893459822","3220272.0"
"1572893460040","3127109.0"
"1572893460041","2823728.0"
"1572893460042","2604627.0"
"1572893460043","2333322.0"
"1572893460090","2072131.0"
"1572893460188","1906505.0"
"1572893460188","1866207.0"
"1572893460207","1795403.0"
"1572893460256","1738936.0"
"1572893460305","1730381.0"
"1572893460353","1723471.0"
"1572893460400","1722465.0"
"1572893460452","1728800.0"
"1572893460606","1726984.0"
"1572893460606","1729015.0"
"1572893460606","1728751.0"
"1572893460731","1729103.0"
"1572893460731","1729054.0"
"1572893460760","1728239.0"
"1572893460801","1727309.0"
"1572893460834","1727674.0"
"1572893460883","1724925.0"
"1572893460932","1724259.0"
"1572893460978","1723079.0"
"1572893461029","1723977.0"
"1572893461075","1723140.0"
"1572893461126","1728808.0"
"1572893461173","1731374.0"
"1572893461225","1729682.0"
"1572893461272","1731047.0"
"1572893461316","1724820.0"
"1572893461366","1720419.0"
"1572893461413","1718462.0"
"1572893461461","1715990.0"
"1572893461511","1719842.0"
"1572893461557","1720147.0"
"1572893461606","1722250.0"
"1572893461654","1721157.0"
"1572893461703","1723452.0"
"1572893461756","1724550.0"
"1572893461803","1722747.0"
"1572893461845","1723079.0"
"1572893461898","1722465.0"
"1572893461947","1723249.0"
"1572893461997","1721734.0"
"1572893462044","1722924.0"
"1572893462093","1723893.0"
"1572893462136","1722522.0"
"1572893462190","1722231.0"
"1572893462238","1721888.0"
"1572893462287","1720059.0"
"1572893462334","1723652.0"
"1572893462381","1723981.0"
"1572893462428","1724767.0"
"1572893462479","1725687.0"
"1572893462526","1727067.0"
"1572893462573","1726878.0"
"1572893462618","1728138.0"
"1572893462669","1729954.0"
"1572893462715","1731555.0"
"1572893462763","1736990.0"
"1572893462813","1766517.0"
"1572893462860","1836915.0"
"1572893462912","1861534.0"
"1572893462956","1825097.0"
"1572893463005","1723471.0"
"1572893463053","1720297.0"
"1572893463105","1719649.0"
"1572893463150","1717855.0"
"1572893463201","1720230.0"
"1572893463245","1719714.0"
"1572893463295","1720275.0"
"1572893463347","1718790.0"
"1572893463394","1720588.0"
"1572893463443","1722085.0"
"1572893463489","1721768.0"
"1572893463540","1723806.0"
"1572893463589","1726705.0"
"1572893463633","1728028.0"
"1572893463680","1728544.0"
"1572893463730","1733172.0"
"1572893463781","1737043.0"
"1572893463826","1750001.0"
"1572893463874","1742478.0"
"1572893463922","1746685.0"
"1572893463973","1743459.0"
"1572893464017","1742165.0"
"1572893464067","1736829.0"
"1572893464115","1767803.0"
"1572893464162","1784740.0"
"1572893464214","1791713.0"
"1572893464263","1811301.0"
"1572893464313","1816626.0"
"1572893464356","1836237.0"
"1572893464409","1809763.0"
"1572893464452","1757031.0"
"1572893464504","1739558.0"
"1572893464553","1735381.0"
"1572893464601","1726512.0"
"1572893464649","1723603.0"
"1572893464693","1722865.0"
"1572893464745","1723245.0"
"1572893464793","1724361.0"
"1572893464835","1723298.0"
"1572893464891","1722638.0"
"1572893464935","1722680.0"
"1572893464983","1720120.0"
"1572893465033","1720366.0"
"1572893465076","1719273.0"
"1572893465129","1719310.0"
"1572893465175","1720754.0"
"1572893465224","1722977.0"
"1572893465274","1723664.0"
"1572893465321","1726701.0"
"1572893465373","1726057.0"
"1572893465420","1728782.0"
"1572893465465","1729682.0"
"1572893465515","1734103.0"
"1572893465563","1734229.0"
"1572893465613","1733211.0"
"1572893465659","1732000.0"
"1572893465713","1732577.0"
"1572893465754","1737945.0"
"1572893465808","1743778.0"
"1572893465852","1748331.0"
"1572893465904","1739753.0"
"1572893465953","1741062.0"
"1572893465996","1739603.0"
"1572893466050","1739717.0"
"1572893466092","1741754.0"
"1572893466141","1745290.0"
"1572893466194","1744186.0"
"1572893466238","1748555.0"
"1572893466287","1752443.0"
"1572893466334","1753703.0"
"1572893466383","1755528.0"
"1572893466433","1755320.0"
"1572893466479","1756133.0"
"1572893466529","1757811.0"
"1572893466575","1757411.0"
"1572893466624","1759112.0"
"1572893466674","1761064.0"
"1572893466724","1761722.0"
"1572893466773","1765564.0"
"1572893466820","1767716.0"
"1572893466870","1769435.0"
"1572893466914","1773679.0"
"1572893466966","1774470.0"
"1572893467009","1776475.0"
"1572893467057","1777357.0"
"1572893467110","1776381.0"
"1572893467155","1778578.0"
"1572893467208","1782765.0"
"1572893467253","1784074.0"
"1572893467299","1787375.0"
"1572893467349","1790183.0"
"1572893467396","1794216.0"
"1572893467445","1796851.0"
"1572893467493","1800401.0"
"1572893467541","1804980.0"
"1572893467589","1807774.0"
"1572893467637","1811584.0"
"1572893467690","1815978.0"
"1572893467734","1820320.0"
"1572893467786","1823475.0"
"1572893467837","1826566.0"
"1572893467882","1830920.0"
"1572893467932","1833494.0"
"1572893467975","1835574.0"
"1572893468027","1838608.0"
"1572893468077","1841958.0"
"1572893468120","1844443.0"
"1572893468173","1848344.0"
"1572893468214","1849707.0"
"1572893468270","1853031.0"
"1572893468317","1856081.0"
"1572893468365","1858143.0"
"1572893468415","1860819.0"
"1572893468457","1863736.0"
"1572893468506","1864234.0"
"1572893468555","1865862.0"
"1572893468602","1866898.0"
"1572893468651","1868828.0"
"1572893468699","1870886.0"
"1572893468748","1871892.0"
"1572893468796","1872830.0"
"1572893468843","1874086.0"
"1572893468896","1875009.0"
"1572893468944","1875157.0"
"1572893468995","1874576.0"
"1572893469035","1874840.0"
"1572893469091","1875488.0"
"1572893469133","1875880.0"
"1572893469185","1874779.0"
"1572893469228","1875130.0"
"1572893469282","1874037.0"
"1572893469331","1874505.0"
"1572893469378","1874568.0"
"1572893469427","1875096.0"
"1572893469471","1876321.0"
"1572893469520","1876388.0"
"1572893469568","1878111.0"
"1572893469617","1879275.0"
"1572893469664","1880945.0"
"1572893469713","1881006.0"
"1572893469761","1881478.0"
"1572893469810","1884005.0"
"1572893469858","1884934.0"
"1572893469910","1884308.0"
"1572893469955","1882951.0"
"1572893470003","1882034.0"
"1572893470052","1881262.0"
"1572893470099","1881945.0"
"1572893470150","1881443.0"
"1572893470196","1882008.0"
"1572893470245","1881413.0"
"1572893470293","1879649.0"
"1572893470341","1875571.0"
"1572893470395","1866981.0"
"1572893470438","1864504.0"
"1572893470490","1859898.0"
"1572893470534","1860514.0"
"1572893470581","1864994.0"
"1572893470631","1860295.0"
"1572893470679","1858998.0"
"1572893470726","1866272.0"
"1572893470775","1861067.0"
"1572893470823","1862670.0"
"1572893470873","1845325.0"
"1572893470920","1844156.0"
"1572893470974","1837576.0"
"1572893471020","2013344.0"
"1572893471098","2649935.0"
"1572893471194","2565560.0"
"1572893471195","2526283.0"
"1572893471227","2456074.0"
"1572893471342","2215560.0"
"1572893471342","1996395.0"
"1572893471362","1907537.0"
"1572893471405","1882152.0"
"1572893471456","1891770.0"
"1572893471499","1884190.0"
"1572893471547","1866967.0"
"1572893471599","1880104.0"
"1572893471644","1884229.0"
"1572893471697","1887522.0"
"1572893471741","1879291.0"
"1572893471789","1878903.0"
"1572893471836","1875051.0"
"1572893471885","1874889.0"
"1572893471933","1879230.0"
"1572893471982","1871463.0"
"1572893472031","1861987.0"
"1572893472079","1858700.0"
"1572893472127","1851329.0"
"1572893472179","1838260.0"
"1572893472228","1834416.0"
"1572893472276","1833565.0"
"1572893472322","1835280.0"
"1572893472373","1835438.0"
"1572893472420","1834093.0"
"1572893472469","1833671.0"
"1572893472517","1832110.0"
"1572893472568","1821289.0"
"1572893472699","1801392.0"
"1572893472699","1812914.0"
"1572893472720","1825028.0"
"1572893472864","1831111.0"
"1572893472865","1826939.0"
"1572893472865","1831436.0"
"1572893472916","1839603.0"
"1572893472947","1836602.0"
"1572893472995","1840361.0"
"1572893473044","1843364.0"
"1572893473093","1845916.0"
"1572893473144","1851012.0"
"1572893473192","1853387.0"
"1572893473241","1863566.0"
"1572893473388","1877595.0"
"1572893473388","1885543.0"
"1572893473388","1879690.0"
"1572893473539","1877674.0"
"1572893473539","1871937.0"
"1572893473539","1868131.0"
"1572893473586","1865474.0"
"1572893473623","1860047.0"
"1572893473675","1854415.0"
"1572893473723","1847023.0"
"1572893473772","1837198.0"
"1572893473815","1834416.0"
"1572893473864","1835253.0"
"1572893473917","1832740.0"
"1572893473964","1837188.0"
"1572893474008","1844593.0"
"1572893474056","1858259.0"
"1572893474105","1820306.0"
"1572893474154","1806443.0"
"1572893474202","1825133.0"
"1572893474250","1834341.0"
"1572893474296","1813623.0"
"1572893474347","1790998.0"
"1572893474395","1811388.0"
"1572893474446","1811027.0"
"1572893474496","1847356.0"
"1572893474542","1864513.0"
"1572893474591","1915627.0"
"1572893474635","1964227.0"
"1572893474687","2086003.0"
"1572893474737","2070404.0"
"1572893474785","2145015.0"
"1572893474833","2152399.0"
"1572893474881","2001883.0"
"1572893474930","1875021.0"
"1572893474978","1847982.0"
"1572893475025","1865417.0"
"1572893475076","1926755.0"
"1572893475118","2347979.0"
"1572893475172","2423844.0"
"1572893475214","2417139.0"
"1572893475263","2282363.0"
"1572893475312","2451098.0"
"1572893475359","2444340.0"
"1572893475410","2457035.0"
"1572893475456","2467974.0"
"1572893475504","2356293.0"
"1572893475553","2434360.0"
"1572893475601","2507650.0"
"1572893475654","2558742.0"
"1572893475700","2619702.0"
"1572893475745","2761348.0"
"1572893475791","2584858.0"
"1572893475842","2459820.0"
"1572893475891","2468335.0"
"1572893475938","2475367.0"
"1572893475988","2509964.0"
"1572893476036","2569918.0"
"1572893476088","2784926.0"
"1572893476132","3014686.0"
"1572893476272","3244560.0"
"1572893476273","3432141.0"
"1572893476290","3600796.0"
"1572893476439","3772458.0"
"1572893476439","3910003.0"
"1572893476439","3945892.0"
"1572893476472","3987868.0"
"1572893476738","3982612.0"
"1572893476739","4107483.0"
"1572893476739","4147258.0"
"1572893476740","4175213.0"
"1572893476741","4232356.0"
"1572893476785","4258421.0"
"1572893476854","4319725.0"
"1572893476868","4329723.0"
"1572893476908","4377092.0"
"1572893476956","4455980.0"
"1572893477003","4447012.0"
"1572893477052","4477655.0"
"1572893477100","4475136.0"
"1572893477149","4501142.0"
"1572893477197","4547531.0"
"1572893477245","4633165.0"
"1572893477293","4552716.0"
"1572893477345","4413842.0"
"1572893477390","4320755.0"
"1572893477438","4273371.0"
"1572893477482","4178143.0"
"1572893477615","4061742.0"
"1572893477615","4044300.0"
"1572893477645","3920562.0"
"1572893477794","3844482.0"
"1572893477795","3854632.0"
"1572893477795","3854982.0"
"1572893477829","3758839.0"
"1572893478070","3686263.0"
"1572893478070","3627517.0"
"1572893478070","3548592.0"
"1572893478070","3472572.0"
"1572893478070","3460654.0"
"1572893478113","3376323.0"
"1572893478203","3278592.0"
"1572893478218","3182791.0"
"1572893478260","3153062.0"
"1572893478308","3127352.0"
"1572893478352","3036895.0"
"1572893478403","2995114.0"
"1572893478450","2918753.0"
"1572893478600","2867029.0"
"1572893478600","2861047.0"
"1572893478611","2836313.0"
"1572893478763","2783914.0"
"1572893478763","2789664.0"
"1572893478763","2777541.0"
"1572893478817","2797003.0"
"1572893478837","2836209.0"
"1572893478886","2862616.0"
"1572893478931","2888271.0"
"1572893478982","2905998.0"
"1572893479030","2946216.0"
"1572893479079","2976629.0"
"1572893479124","3019068.0"
"1572893479172","3042391.0"
"1572893479220","3096055.0"
"1572893479273","3134657.0"
"1572893479316","3194640.0"
"1572893479365","3213421.0"
"1572893479413","3224870.0"
"1572893479461","3234238.0"
"1572893479514","3218440.0"
"1572893479561","3247173.0"
"1572893479611","3264302.0"
"1572893479657","3255747.0"
"1572893479707","3267006.0"
"1572893479756","3244212.0"
"1572893479803","3243538.0"
"1572893479852","3225510.0"
"1572893479900","3228665.0"
"1572893479944","3184455.0"
"1572893479990","3156931.0"
"1572893480044","3117836.0"
"1572893480093","3106950.0"
"1572893480137","3076085.0"
"1572893480189","3063385.0"
"1572893480232","3052202.0"
"1572893480281","3012912.0"
"1572893480332","2982371.0"
"1572893480377","2945710.0"
"1572893480427","2919267.0"
"1572893480474","2900240.0"
"1572893480523","2892734.0"
"1572893480573","2902146.0"
"1572893480619","2877517.0"
"1572893480668","2856915.0"
"1572893480719","2837664.0"
"1572893480768","2826510.0"
"1572893480812","2820106.0"
"1572893480858","2797072.0"
"1572893480912","2789581.0"
"1572893480957","2786840.0"
"1572893481006","2783640.0"
"1572893481054","2790481.0"
"1572893481102","2794697.0"
"1572893481152","2795948.0"
"1572893481202","2800446.0"
"1572893481251","2787317.0"
"1572893481293","2793313.0"
"1572893481349","2799146.0"
"1572893481391","2804805.0"
"1572893481439","2811404.0"
"1572893481488","2819494.0"
"1572893481535","2822046.0"
"1572893481584","2842802.0"
"1572893481634","2844988.0"
"1572893481680","2856240.0"
"1572893481730","2862173.0"
"1572893481776","2864696.0"
"1572893481826","2872681.0"
"1572893481872","2875471.0"
"1572893481925","2879555.0"
"1572893481974","2896424.0"
"1572893482017","2906686.0"
"1572893482071","2915915.0"
"1572893482115","2894218.0"
"1572893482162","2887287.0"
"1572893482213","2854448.0"
"1572893482259","2836524.0"
"1572893482308","2831232.0"
"1572893482355","2818728.0"
"1572893482403","2819234.0"
"1572893482455","2796602.0"
"1572893482499","2777961.0"
"1572893482549","2758211.0"
"1572893482596","2744252.0"
"1572893482645","2730904.0"
"1572893482693","2718055.0"
"1572893482741","2710542.0"
"1572893482795","2692014.0"
"1572893482841","2684655.0"
"1572893482891","2671280.0"
"1572893482933","2672755.0"
"1572893482985","2652611.0"
"1572893483035","2615141.0"
"1572893483082","2583751.0"
"1572893483128","2568153.0"
"1572893483175","2555270.0"
"1572893483222","2552915.0"
"1572893483276","2540220.0"
"1572893483324","2539454.0"
"1572893483373","2550568.0"
"1572893483414","2526234.0"
"1572893483469","2531378.0"
"1572893483515","2534450.0"
"1572893483565","2536545.0"
"1572893483610","2537165.0"
"1572893483661","2561911.0"
"1572893483710","2557350.0"
"1572893483756","2571465.0"
"1572893483807","2600198.0"
"1572893483855","2611606.0"
"1572893483902","2637710.0"
"1572893483951","2661798.0"
"1572893483994","2654622.0"
"1572893484044","2614796.0"
"1572893484092","2592493.0"
"1572893484139","2591144.0"
"1572893484186","2614247.0"
"1572893484237","2636586.0"
"1572893484285","2662127.0"
"1572893484333","2677585.0"
"1572893484381","2665299.0"
"1572893484430","2687053.0"
"1572893484479","2701305.0"
"1572893484531","2712805.0"
"1572893484576","2746439.0"
"1572893484622","2769836.0"
"1572893484676","2777961.0"
"1572893484718","2805331.0"
"1572893484772","2812958.0"
"1572893484817","2820100.0"
"1572893484867","2826607.0"
"1572893484916","2824913.0"
"1572893484965","2824886.0"
"1572893485009","2806070.0"
"1572893485055","2791816.0"
"1572893485105","2758725.0"
"1572893485158","2737674.0"
"1572893485205","2726968.0"
"1572893485251","2707084.0"
"1572893485297","2682666.0"
"1572893485346","2647972.0"
"1572893485394","2628081.0"
"1572893485442","2605307.0"
"1572893485491","2588137.0"
"1572893485539","2580010.0"
"1572893485589","2564457.0"
"1572893485637","2562011.0"
"1572893485687","2556029.0"
"1572893485737","2548853.0"
"1572893485784","2552732.0"
"1572893485833","2544481.0"
"1572893485878","2545338.0"
"1572893485929","2545627.0"
"1572893485978","2552832.0"
"1572893486026","2543223.0"
"1572893486071","2517463.0"
"1572893486116","2488996.0"
"1572893486170","2484181.0"
"1572893486219","2474707.0"
"1572893486266","2471446.0"
"1572893486312","2474046.0"
"1572893486359","2476456.0"
"1572893486408","2489973.0"
"1572893486455","2501465.0"
"1572893486504","2519184.0"
"1572893486553","2543869.0"
"1572893486600","2557667.0"
"1572893486650","2577475.0"
"1572893486697","2593007.0"
"1572893486749","2616638.0"
"1572893486797","2628579.0"
"1572893486845","2659092.0"
"1572893486894","2682315.0"
"1572893486939","2695466.0"
"1572893486991","2706881.0"
"1572893487039","2713691.0"
"1572893487087","2711759.0"
"1572893487132","2713305.0"
"1572893487180","2722631.0"
"1572893487230","2736625.0"
"1572893487275","2738671.0"
"1572893487324","2732564.0"
"1572893487373","2735979.0"
"1572893487421","2721893.0"
"1572893487470","2711259.0"
"1572893487517","2715568.0"
"1572893487565","2706746.0"
"1572893487614","2689885.0"
"1572893487665","2677900.0"
"1572893487714","2658304.0"
"1572893487760","2634792.0"
"1572893487811","2607339.0"
"1572893487858","2572560.0"
"1572893487940","2528034.0"
"1572893488040","2501991.0"
"1572893488040","2488167.0"
"1572893488059","2470580.0"
"1572893488157","2462498.0"
"1572893488157","2439078.0"
"1572893488209","2421597.0"
"1572893488240","2420319.0"
"1572893488292","2405508.0"
"1572893488340","2403401.0"
"1572893488390","2392815.0"
"1572893488438","2382376.0"
"1572893488480","2392336.0"
"1572893488534","2370659.0"
"1572893488581","2354255.0"
"1572893488761","2319778.0"
"1572893488761","2319420.0"
"1572893488761","2315174.0"
"1572893488782","2314705.0"
"1572893488909","2331489.0"
"1572893488911","2344829.0"
"1572893488929","2363497.0"
"1572893488972","2360202.0"
"1572893489013","2289070.0"
"1572893489063","2213020.0"
"1572893489109","2126488.0"
"1572893489157","2186014.0"
"1572893489207","2237051.0"
"1572893489254","2151084.0"
"1572893489303","2083919.0"
"1572893489355","2036620.0"
"1572893489402","2036116.0"
"1572893489452","1964036.0"
"1572893489499","1945963.0"
"1572893489641","2027969.0"
"1572893489641","2079152.0"
"1572893489662","2118253.0"
"1572893489783","2148924.0"
"1572893489783","2178180.0"
"1572893489805","2195153.0"
"1572893489847","2205039.0"
"1572893489884","2219954.0"
"1572893489934","2234177.0"
"1572893489978","2263958.0"
"1572893490032","2318279.0"
"1572893490080","2360076.0"
"1572893490125","2386935.0"
"1572893490170","2422469.0"
"1572893490220","2450354.0"
"1572893490269","2475028.0"
"1572893490315","2480140.0"
"1572893490366","2472141.0"
"1572893490413","2467831.0"
"1572893490463","2459351.0"
"1572893490510","2458528.0"
"1572893490557","2461086.0"
"1572893490607","2465412.0"
"1572893490658","2472576.0"
"1572893490707","2467878.0"
"1572893490756","2450523.0"
"1572893490803","2427696.0"
"1572893490853","2445620.0"
"1572893490900","2486158.0"
"1572893490946","2508487.0"
"1572893490993","2522949.0"
"1572893491044","2532104.0"
"1572893491093","2550097.0"
"1572893491136","2566109.0"
"1572893491185","2576215.0"
"1572893491233","2584202.0"
"1572893491282","2577450.0"
"1572893491331","2566682.0"
"1572893491377","2573204.0"
"1572893491427","2580992.0"
"1572893491475","2588820.0"
"1572893491525","2614916.0"
"1572893491572","2641040.0"
"1572893491619","2654303.0"
"1572893491675","2659439.0"
"1572893491719","2661174.0"
"1572893491768","2663659.0"
"1572893491817","2666000.0"
"1572893491865","2665760.0"
"1572893491915","2658011.0"
"1572893491961","2654472.0"
"1572893492007","2644573.0"
"1572893492058","2634983.0"
"1572893492107","2625005.0"
"1572893492149","2612819.0"
"1572893492196","2600882.0"
"1572893492246","2582954.0"
"1572893492292","2565514.0"
"1572893492343","2543993.0"
"1572893492393","2525480.0"
"1572893492440","2509844.0"
"1572893492488","2499134.0"
"1572893492540","2491148.0"
"1572893492587","2484087.0"
"1572893492633","2478392.0"
"1572893492686","2469550.0"
"1572893492729","2460405.0"
"1572893492782","2452041.0"
"1572893492830","2443050.0"
"1572893492874","2430238.0"
"1572893492922","2418371.0"
"1572893492971","2409758.0"
"1572893493149","2398632.0"
"1572893493149","2391495.0"
"1572893493149","2380852.0"
"1572893493193","2369613.0"
"1572893493240","2359497.0"
"1572893493333","2348647.0"
"1572893493333","2340601.0"
"1572893493547","2333570.0"
"1572893493547","2325636.0"
"1572893493547","2321123.0"
"1572893493547","2315668.0"
"1572893493610","2299973.0"
"1572893493712","2292262.0"
"1572893493713","2282449.0"
"1572893493747","2278812.0"
"1572893493796","2273580.0"
"1572893493839","2267418.0"
"1572893493891","2259238.0"
"1572893493936","2253263.0"
"1572893494116","2247275.0"
"1572893494116","2239676.0"
"1572893494116","2232533.0"
"1572893494156","2223063.0"
"1572893494276","2210692.0"
"1572893494276","2202030.0"
"1572893494276","2193306.0"
"1572893494344","2184112.0"
"1572893494372","2175372.0"
"1572893494422","2166889.0"
"1572893494468","2160308.0"
"1572893494519","2153283.0"
"1572893494567","2146399.0"
"1572893494613","2138857.0"
"1572893494664","2130476.0"
"1572893494709","2122924.0"
"1572893494760","2110892.0"
"1572893494974","2101254.0"
"1572893494975","2095427.0"
"1572893494975","2089656.0"
"1572893494977","2081186.0"
"1572893495027","2075257.0"
"1572893495112","2070024.0"
"1572893495112","2080040.0"
"1572893495142","2074520.0"
"1572893495197","2063288.0"
"1572893495242","2052695.0"
"1572893495286","2047420.0"
"1572893495335","2039279.0"
"1572893495384","2033121.0"
"1572893495533","2031567.0"
"1572893495533","2027146.0"
"1572893495533","2025415.0"
"1572893495697","2024374.0"
"1572893495697","2025092.0"
"1572893495697","2022379.0"
"1572893495732","2026154.0"
"1572893495776","2059786.0"
"1572893495822","2140194.0"
"1572893495872","2231137.0"
"1572893495919","2296773.0"
"1572893495967","2260666.0"
"1572893496011","2186654.0"
"1572893496063","2123422.0"
"1572893496111","2112924.0"
"1572893496160","2116601.0"
"1572893496209","2118694.0"
"1572893496251","2116851.0"
"1572893496307","2119159.0"
"1572893496355","2117727.0"
"1572893496401","2115791.0"
"1572893496450","2112690.0"
"1572893496492","2109687.0"
"1572893496542","2106195.0"
"1572893496593","2093728.0"
"1572893496638","2085150.0"
"1572893496688","2086345.0"
"1572893496734","2088198.0"
"1572893496783","2090187.0"
"1572893496833","2092511.0"
"1572893496879","2092464.0"
"1572893496929","2091392.0"
"1572893496979","2083559.0"
"1572893497029","2077131.0"
"1572893497078","2073427.0"
"1572893497121","2067163.0"
"1572893497169","2061761.0"
"1572893497214","2053969.0"
"1572893497264","2046384.0"
"1572893497313","2042908.0"
"1572893497362","2038918.0"
"1572893497412","2040580.0"
"1572893497458","2037282.0"
"1572893497512","2036037.0"
"1572893497559","2034937.0"
"1572893497607","2033160.0"
"1572893497653","2033641.0"
"1572893497703","2031916.0"
"1572893497747","2029381.0"
"1572893497795","2025878.0"
"1572893497845","2024131.0"
"1572893497892","2021605.0"
"1572893497940","2020463.0"
"1572893497989","2020898.0"
"1572893498036","2021239.0"
"1572893498086","2021089.0"
"1572893498135","2023239.0"
"1572893498185","2024433.0"
"1572893498235","2025500.0"
"1572893498282","2024641.0"
"1572893498332","2026365.0"
"1572893498374","2027979.0"
"1572893498427","2028934.0"
"1572893498474","2032225.0"
"1572893498522","2035458.0"
"1572893498571","2034369.0"
"1572893498616","2033785.0"
"1572893498664","2030309.0"
"1572893498715","2027060.0"
"1572893498758","2029232.0"
"1572893498810","2041975.0"
"1572893498856","2054771.0"
"1572893498907","2055753.0"
"1572893498953","2065816.0"
"1572893499002","2058380.0"
"1572893499052","2056157.0"
"1572893499098","2053816.0"
"1572893499145","2046518.0"
"1572893499193","2046815.0"
"1572893499241","2053258.0"
"1572893499290","2069388.0"
"1572893499338","2085443.0"
"1572893499387","2101965.0"
"1572893499435","2115864.0"
"1572893499484","2125344.0"
"1572893499697","2124633.0"
"1572893499697","2126638.0"
"1572893499697","2117451.0"
"1572893499700","2106693.0"
"1572893499740","2104124.0"
"1572893499841","2107288.0"
"1572893499842","2113796.0"
"1572893499869","2121394.0"
"1572893499919","2130980.0"
"1572893499965","2147433.0"
"1572893500015","2165898.0"
"1572893500062","2188487.0"
"1572893500111","2205460.0"
"1572893500160","2211181.0"
"1572893500208","2216265.0"
"1572893500257","2218516.0"
"1572893500303","2218128.0"
"1572893500351","2214806.0"
"1572893500401","2214891.0"
"1572893500449","2213436.0"
"1572893500496","2213207.0"
"1572893500547","2213760.0"
"1572893500596","2214704.0"
"1572893500641","2216317.0"
"1572893500692","2216366.0"
"1572893500739","2214753.0"
"1572893500790","2215027.0"
"1572893500925","2217878.0"
"1572893500927","2216897.0"
"1572893500951","2216775.0"
"1572893501096","2217947.0"
"1572893501096","2226954.0"
"1572893501098","2233053.0"
"1572893501137","2237968.0"
"1572893501179","2243163.0"
"1572893501223","2246284.0"
"1572893501272","2247149.0"
"1572893501319","2242935.0"
"1572893501369","2240138.0"
"1572893501417","2236322.0"
"1572893501464","2229363.0"
"1572893501513","2224125.0"
"1572893501560","2224560.0"
"1572893501609","2222104.0"
"1572893501658","2223016.0"
"1572893501706","2226631.0"
"1572893501754","2227098.0"
"1572893501974","2222151.0"
"1572893501974","2215972.0"
"1572893501974","2215537.0"
"1572893501976","2223849.0"
"1572893502019","2226269.0"
"1572893502114","2227592.0"
"1572893502114","2230186.0"
"1572893502146","2230308.0"
"1572893502187","2231358.0"
"1572893502238","2233136.0"
"1572893502285","2219211.0"
"1572893502331","2253437.0"
"1572893502379","2627149.0"
"1572893502428","3181949.0"
"1572893502479","3156252.0"
"1572893502525","3203265.0"
"1572893502575","3275751.0"
"1572893502622","3314488.0"
"1572893502679","3291471.0"
"1572893502718","3271338.0"
"1572893502774","3308590.0"
"1572893502819","3323450.0"
"1572893502862","3344339.0"
"1572893502913","3383285.0"
"1572893502961","3412329.0"
"1572893503009","3456318.0"
"1572893503056","3482408.0"
"1572893503105","3514477.0"
"1572893503153","3537991.0"
"1572893503202","3565513.0"
"1572893503250","3585235.0"
"1572893503300","3606660.0"
"1572893503351","3612153.0"
"1572893503400","3605640.0"
"1572893503445","3624720.0"
"1572893503496","3641039.0"
"1572893503540","3660101.0"
"1572893503592","3680467.0"
"1572893503636","3697334.0"
"1572893503687","3693350.0"
"1572893503737","3681121.0"
"1572893503780","3680087.0"
"1572893503830","3676643.0"
"1572893503878","3678780.0"
"1572893503926","3682562.0"
"1572893503974","3685632.0"
"1572893504021","3684636.0"
"1572893504072","3683525.0"
"1572893504118","3682104.0"
"1572893504165","3684059.0"
"1572893504213","3684349.0"
"1572893504264","3693954.0"
"1572893504313","3701432.0"
"1572893504362","3705573.0"
"1572893504413","3701292.0"
"1572893504460","3682688.0"
"1572893504505","3662372.0"
"1572893504557","3641400.0"
"1572893504603","3625315.0"
"1572893504653","3613740.0"
"1572893504703","3608082.0"
"1572893504751","3605302.0"
"1572893504798","3608240.0"
"1572893504841","3605772.0"
"1572893504895","3608823.0"
"1572893504942","3610638.0"
"1572893504992","3628062.0"
"1572893505038","3652146.0"
"1572893505087","3669678.0"
"1572893505133","3678628.0"
"1572893505187","3685554.0"
"1572893505226","3683067.0"
"1572893505280","3681115.0"
"1572893505329","3697105.0"
"1572893505378","3699382.0"
"1572893505424","3707103.0"
"1572893505474","3682472.0"
"1572893505521","3671448.0"
"1572893505567","3689455.0"
"1572893505615","3690959.0"
"1572893505663","3676688.0"
"1572893505712","3670844.0"
"1572893505759","3661242.0"
"1572893505809","3649076.0"
"1572893505855","3639302.0"
"1572893505905","3616912.0"
"1572893505952","3581962.0"
"1572893506001","3552117.0"
"1572893506049","3527950.0"
"1572893506097","3506669.0"
"1572893506146","3480809.0"
"1572893506198","3471713.0"
"1572893506247","3458716.0"
"1572893506295","3451745.0"
"1572893506338","3450128.0"
"1572893506386","3450203.0"
"1572893506435","3455114.0"
"1572893506485","3461095.0"
"1572893506532","3466219.0"
"1572893506579","3466810.0"
"1572893506630","3464405.0"
"1572893506676","3448289.0"
"1572893506726","3429621.0"
"1572893506773","3419548.0"
"1572893506821","3411023.0"
"1572893506875","3408625.0"
"1572893506921","3399123.0"
"1572893506971","3385829.0"
"1572893507013","3370599.0"
"1572893507067","3368411.0"
"1572893507113","3366800.0"
"1572893507160","3358445.0"
"1572893507214","3346001.0"
"1572893507257","3349319.0"
"1572893507306","3357108.0"
"1572893507358","3358116.0"
"1572893507404","3353689.0"
"1572893507453","3347579.0"
"1572893507501","3341505.0"
"1572893507547","3335655.0"
"1572893507597","3339359.0"
"1572893507641","3342602.0"
"1572893507694","3345145.0"
"1572893507742","3346228.0"
"1572893507786","3349313.0"
"1572893507834","3342671.0"
"1572893507883","3360540.0"
"1572893507932","3402626.0"
"1572893507979","3428967.0"
"1572893508029","3451745.0"
"1572893508075","3463511.0"
"1572893508125","3462515.0"
"1572893508173","3448098.0"
"1572893508226","3449431.0"
"1572893508275","3458444.0"
"1572893508321","3479363.0"
"1572893508368","3522748.0"
"1572893508413","3573353.0"
"1572893508462","3630947.0"
"1572893508512","3695741.0"
"1572893508559","3741557.0"
"1572893508609","3788153.0"
"1572893508655","3845831.0"
"1572893508708","3903299.0"
"1572893508756","3929171.0"
"1572893508804","3947895.0"
"1572893508850","3955382.0"
"1572893508900","3969798.0"
"1572893508948","3981698.0"
"1572893508998","3992894.0"
"1572893509045","4013133.0"
"1572893509094","4068173.0"
"1572893509137","4104596.0"
"1572893509191","4087298.0"
"1572893509237","4085329.0"
"1572893509286","4066501.0"
"1572893509336","4046437.0"
"1572893509385","4037839.0"
"1572893509427","4031203.0"
"1572893509474","4019927.0"
"1572893509523","3997450.0"
"1572893509572","3993455.0"
"1572893509620","3985536.0"
"1572893509671","3979387.0"
"1572893509716","3982319.0"
"1572893509765","3986448.0"
"1572893509813","3990688.0"
"1572893509866","3989932.0"
"1572893509911","3987529.0"
"1572893509962","3985401.0"
"1572893510009","3968229.0"
"1572893510059","3946595.0"
"1572893510107","3936611.0"
"1572893510152","3935752.0"
"1572893510205","3931969.0"
"1572893510253","3924443.0"
"1572893510301","3915696.0"
"1572893510349","3914615.0"
"1572893510392","3933419.0"
"1572893510441","3942576.0"
"1572893510491","3965084.0"
"1572893510541","3985865.0"
"1572893510590","4008153.0"
"1572893510634","4018350.0"
"1572893510687","4034324.0"
"1572893510731","4045728.0"
"1572893510782","4048920.0"
"1572893510831","4026372.0"
"1572893510875","4016475.0"
"1572893510924","4009579.0"
"1572893510973","4010762.0"
"1572893511021","4006639.0"
"1572893511073","4008372.0"
"1572893511117","4003510.0"
"1572893511168","3996787.0"
"1572893511211","3991019.0"
"1572893511259","3984958.0"
"1572893511312","3968843.0"
"1572893511356","3936863.0"
"1572893511405","3901037.0"
"1572893511452","3865126.0"
"1572893511503","3837212.0"
"1572893511553","3804168.0"
"1572893511599","3767570.0"
"1572893511649","3733581.0"
"1572893511696","3715653.0"
"1572893511745","3705730.0"
"1572893511793","3695691.0"
"1572893511841","3686312.0"
"1572893511894","3690087.0"
"1572893511937","3682860.0"
"1572893511986","3712554.0"
"1572893512034","3716707.0"
"1572893512082","3717739.0"
"1572893512133","3726047.0"
"1572893512178","3739885.0"
"1572893512229","3725021.0"
"1572893512275","3688401.0"
"1572893512323","3686849.0"
"1572893512371","3668959.0"
"1572893512420","3706556.0"
"1572893512469","3721492.0"
"1572893512516","3712247.0"
"1572893512565","3706085.0"
"1572893512614","3694768.0"
"1572893512661","3675255.0"
"1572893512712","3661858.0"
"1572893512756","3699529.0"
"1572893512807","3708111.0"
"1572893512853","3712012.0"
"1572893512903","3667185.0"
"1572893512952","3628734.0"
"1572893512999","3606897.0"
"1572893513048","3596275.0"
"1572893513095","3586927.0"
"1572893513144","3565312.0"
"1572893513192","3565043.0"
"1572893513244","3573042.0"
"1572893513294","3584170.0"
"1572893513341","3630659.0"
"1572893513392","3627018.0"
"1572893513434","3607001.0"
"1572893513485","3588142.0"
"1572893513532","3576620.0"
"1572893513582","3562703.0"
"1572893513628","3546792.0"
"1572893513675","3526995.0"
"1572893513723","3524213.0"
"1572893513774","3519028.0"
"1572893513819","3502667.0"
"1572893513867","3478836.0"
"1572893513915","3465155.0"
"1572893513965","3455620.0"
"1572893514012","3446361.0"
"1572893514061","3432293.0"
"1572893514111","3421513.0"
"1572893514156","3412583.0"
"1572893514212","3397894.0"
"1572893514255","3374740.0"
"1572893514307","3399484.0"
"1572893514356","3409533.0"
"1572893514402","3387001.0"
"1572893514453","3376859.0"
"1572893514494","3372084.0"
"1572893514545","3460616.0"
"1572893514600","3449252.0"
"1572893514639","3431434.0"
"1572893514692","3434839.0"
"1572893514737","3407555.0"
"1572893514785","3366393.0"
"1572893514834","3333209.0"
"1572893514881","3363683.0"
"1572893514928","3457944.0"
"1572893514977","3505410.0"
"1572893515027","3495946.0"
"1572893515074","3654938.0"
"1572893515122","3775813.0"
"1572893515176","3970830.0"
"1572893515222","4087677.0"
"1572893515273","4130397.0"
"1572893515316","4123794.0"
"1572893515364","4202869.0"
"1572893515413","4367229.0"
"1572893515460","4232468.0"
"1572893515509","4106274.0"
"1572893515557","4090711.0"
"1572893515605","4153173.0"
"1572893515655","4223548.0"
"1572893515701","4275348.0"
"1572893515751","4232287.0"
"1572893515800","4129351.0"
"1572893515852","4217685.0"
"1572893515900","4370058.0"
"1572893515947","4463776.0"
"1572893515996","4445547.0"
"1572893516044","4331686.0"
"1572893516092","4357678.0"
"1572893516135","4344580.0"
"1572893516182","4341308.0"
"1572893516237","4296539.0"
"1572893516286","4229867.0"
"1572893516334","4157586.0"
"1572893516375","4047754.0"
"1572893516430","4090829.0"
"1572893516475","4113936.0"
"1572893516526","4080292.0"
"1572893516575","4059999.0"
"1572893516619","4027310.0"
"1572893516666","3997592.0"
"1572893516718","3970176.0"
"1572893516767","3905365.0"
"1572893516813","3866142.0"
"1572893516859","3810513.0"
"1572893516909","3766751.0"
"1572893516956","3740153.0"
"1572893517005","3718229.0"
"1572893517053","3681133.0"
"1572893517101","3629933.0"
"1572893517150","3597409.0"
"1572893517199","3544805.0"
"1572893517245","3438464.0"
"1572893517298","3296359.0"
"1572893517340","3324082.0"
"1572893517389","3320055.0"
"1572893517440","3204327.0"
"1572893517488","3281842.0"
"1572893517537","3087622.0"
"1572893517584","3236701.0"
"1572893517633","2940190.0"
"1572893517684","2984913.0"
"1572893517734","2954776.0"
"1572893517779","2909779.0"
"1572893517824","2863975.0"
"1572893517874","2836567.0"
"1572893517921","2873764.0"
"1572893517971","2937754.0"
"1572893518019","3058787.0"
"1572893518067","3011494.0"
"1572893518115","3016876.0"
"1572893518163","2924783.0"
"1572893518213","2883772.0"
"1572893518258","2868500.0"
"1572893518312","2900061.0"
"1572893518360","2882125.0"
"1572893518408","2869097.0"
"1572893518457","2969876.0"
"1572893518504","2943357.0"
"1572893518555","3097805.0"
"1572893518605","3119530.0"
"1572893518647","3254306.0"
"1572893518699","3247221.0"
"1572893518747","3174751.0"
"1572893518796","3114077.0"
"1572893518838","3045855.0"
"1572893518892","3016728.0"
"1572893518940","2959939.0"
"1572893518989","2961160.0"
"1572893519037","2913617.0"
"1572893519083","2826597.0"
"1572893519132","2771401.0"
"1572893519181","2808913.0"
"1572893519230","2861635.0"
"1572893519275","2907414.0"
"1572893519323","2822918.0"
"1572893519372","2945430.0"
"1572893519420","3015285.0"
"1572893519466","3001573.0"
"1572893519516","3003810.0"
"1572893519564","3035097.0"
"1572893519613","3031031.0"
"1572893519660","2987727.0"
"1572893519713","2976024.0"
"1572893519760","2951428.0"
"1572893519810","2988222.0"
"1572893519857","3086283.0"
"1572893519900","3055012.0"
"1572893519955","3006008.0"
"1572893520002","2932150.0"
"1572893520052","2933270.0"
"1572893520093","3036641.0"
"1572893520143","2951113.0"
"1572893520192","3056162.0"
"1572893520242","3206905.0"
"1572893520288","3248617.0"
"1572893520336","3447361.0"
"1572893520384","3546138.0"
"1572893520433","3605219.0"
"1572893520485","3384535.0"
"1572893520532","3599853.0"
"1572893520580","3684508.0"
"1572893520626","3763510.0"
"1572893520677","3835534.0"
"1572893520721","3748861.0"
"1572893520775","3766261.0"
"1572893520822","3942442.0"
"1572893520873","3990792.0"
"1572893520919","3977843.0"
"1572893520968","3991011.0"
"1572893521012","3909808.0"
"1572893521063","3869224.0"
"1572893521109","3694333.0"
"1572893521156","3447259.0"
"1572893521206","3275412.0"
"1572893521253","3098268.0"
"1572893521304","2935035.0"
"1572893521356","2995559.0"
"1572893521405","3006151.0"
"1572893521451","3022701.0"
"1572893521496","3012173.0"
"1572893521543","2982359.0"
"1572893521595","3008483.0"
"1572893521639","3039061.0"
"1572893521693","3105393.0"
"1572893521740","3222918.0"
"1572893521782","3303680.0"
"1572893521837","3331553.0"
"1572893521885","3332492.0"
"1572893521931","3350830.0"
"1572893521980","3345566.0"
"1572893522031","3333650.0"
"1572893522078","3333776.0"
"1572893522124","3340688.0"
"1572893522175","3403253.0"
"1572893522223","3416980.0"
"1572893522273","3364173.0"
"1572893522321","3405200.0"
"1572893522365","3491193.0"
"1572893522413","3442759.0"
"1572893522459","3510920.0"
"1572893522508","3500846.0"
"1572893522558","3430418.0"
"1572893522606","3385553.0"
"1572893522654","3471957.0"
"1572893522707","3486671.0"
"1572893522756","3486866.0"
"1572893522803","3415389.0"
"1572893522854","3440686.0"
"1572893522899","3319749.0"
"1572893522947","3265056.0"
"1572893522996","3234007.0"
"1572893523044","3232012.0"
"1572893523094","3224793.0"
"1572893523137","3197431.0"
"1572893523185","3142306.0"
"1572893523238","3093493.0"
"1572893523287","3046595.0"
"1572893523336","3019375.0"
"1572893523378","2987245.0"
"1572893523429","2955446.0"
"1572893523474","2940623.0"
"1572893523524","3057093.0"
"1572893523572","3170883.0"
"1572893523619","3001132.0"
"1572893523669","2815754.0"
"1572893523715","2792261.0"
"1572893523766","2779975.0"
"1572893523816","2769265.0"
"1572893523866","2731359.0"
"1572893523914","2705101.0"
"1572893523960","2695194.0"
"1572893524009","2702689.0"
"1572893524058","2673277.0"
"1572893524107","2645404.0"
"1572893524151","2631448.0"
"1572893524202","2612272.0"
"1572893524253","2603534.0"
"1572893524298","2595305.0"
"1572893524348","2593202.0"
"1572893524396","2597867.0"
"1572893524444","2583673.0"
"1572893524490","2579646.0"
"1572893524540","2570530.0"
"1572893524586","2567795.0"
"1572893524633","2571286.0"
"1572893524682","2575376.0"
"1572893524731","2571278.0"
"1572893524778","2578056.0"
"1572893524827","2787059.0"
"1572893524874","2882779.0"
"1572893524923","2888848.0"
"1572893524972","2920007.0"
"1572893525017","2850295.0"
"1572893525070","2794845.0"
"1572893525116","2789046.0"
"1572893525168","2764702.0"
"1572893525217","2770557.0"
"1572893525265","2772914.0"
"1572893525311","2823917.0"
"1572893525361","2852352.0"
"1572893525413","2842130.0"
"1572893525459","2873912.0"
"1572893525506","2861815.0"
"1572893525555","2816345.0"
"1572893525598","2791844.0"
"1572893525651","2768493.0"
"1572893525699","2735449.0"
"1572893525748","2707630.0"
"1572893525798","2678960.0"
"1572893525840","2659779.0"
"1572893525893","2643655.0"
"1572893525936","2638878.0"
"1572893525986","2634372.0"
"1572893526033","2642078.0"
"1572893526081","2616679.0"
"1572893526132","2591595.0"
"1572893526178","2580254.0"
"1572893526227","2569016.0"
"1572893526278","2551812.0"
"1572893526328","2535854.0"
"1572893526371","2520289.0"
"1572893526420","2499919.0"
"1572893526473","2464337.0"
"1572893526519","2471688.0"
"1572893526569","2512946.0"
"1572893526611","2533648.0"
"1572893526660","2502070.0"
"1572893526717","2475814.0"
"1572893526761","2461523.0"
"1572893526810","2452947.0"
"1572893526857","2445370.0"
"1572893526902","2432217.0"
"1572893526955","2429958.0"
"1572893527002","2419929.0"
"1572893527048","2418669.0"
"1572893527095","2447364.0"
"1572893527144","2520834.0"
"1572893527193","2518013.0"
"1572893527241","2520238.0"
"1572893527292","2513773.0"
"1572893527337","2511045.0"
"1572893527386","2516252.0"
"1572893527434","2517934.0"
"1572893527486","2521234.0"
"1572893527537","2518824.0"
"1572893527583","2510512.0"
"1572893527629","2495290.0"
"1572893527679","2473815.0"
"1572893527728","2463240.0"
"1572893527771","2457321.0"
"1572893527824","2447173.0"
"1572893527868","2442266.0"
"1572893527921","2444970.0"
"1572893527970","2456378.0"
"1572893528011","2484941.0"
"1572893528061","2526671.0"
"1572893528112","2566231.0"
"1572893528158","2571085.0"
"1572893528207","2557163.0"
"1572893528254","2550731.0"
"1572893528303","2549662.0"
"1572893528352","2540200.0"
"1572893528399","2537618.0"
"1572893528449","2535848.0"
"1572893528500","2528926.0"
"1572893528548","2520320.0"
"1572893528591","2516258.0"
"1572893528640","2498803.0"
"1572893528694","2475572.0"
"1572893528741","2455980.0"
"1572893528790","2439399.0"
"1572893528838","2420079.0"
"1572893528885","2401570.0"
"1572893528935","2301076.0"
"1572893528982","2347117.0"
"1572893529032","2352891.0"
"1572893529078","2283408.0"
"1572893529124","2190502.0"
"1572893529173","2171540.0"
"1572893529220","2177064.0"
"1572893529269","2185307.0"
"1572893529316","2181278.0"
"1572893529365","2182550.0"
"1572893529413","2191888.0"
"1572893529462","2206273.0"
"1572893529515","2220842.0"
"1572893529562","2230107.0"
"1572893529610","2209082.0"
"1572893529653","2194033.0"
"1572893529708","2184399.0"
"1572893529757","2170703.0"
"1572893529804","2157208.0"
"1572893529852","2143794.0"
"1572893529900","2133536.0"
"1572893529949","2123973.0"
"1572893529993","2120307.0"
"1572893530045","2119665.0"
"1572893530093","2120921.0"
"1572893530137","2126717.0"
"1572893530186","2130224.0"
"1572893530235","2135275.0"
"1572893530282","2136964.0"
"1572893530332","2141870.0"
"1572893530378","2160479.0"
"1572893530429","2180874.0"
"1572893530475","2186814.0"
"1572893530525","2189954.0"
"1572893530577","2189935.0"
"1572893530621","2184665.0"
"1572893530671","2198749.0"
"1572893530722","2243035.0"
"1572893530772","2262944.0"
"1572893530819","2270023.0"
"1572893530866","2289690.0"
"1572893530916","2291898.0"
"1572893530964","2288794.0"
"1572893531012","2286303.0"
"1572893531056","2280309.0"
"1572893531109","2267757.0"
"1572893531156","2264417.0"
"1572893531205","2255928.0"
"1572893531254","2270063.0"
"1572893531297","2302392.0"
"1572893531347","2321418.0"
"1572893531395","2321198.0"
"1572893531442","2320459.0"
"1572893531491","2343003.0"
"1572893531538","2355665.0"
"1572893531589","2396529.0"
"1572893531635","2420317.0"
"1572893531684","2419271.0"
"1572893531733","2398142.0"
"1572893531780","2386092.0"
"1572893531834","2361449.0"
"1572893531882","2339234.0"
"1572893531931","2315678.0"
"1572893531980","2305930.0"
"1572893532027","2310385.0"
"1572893532076","2324376.0"
"1572893532120","2335524.0"
"1572893532173","2343511.0"
"1572893532220","2342853.0"
"1572893532268","2349862.0"
"1572893532317","2359509.0"
"1572893532361","2367906.0"
"1572893532410","2370407.0"
"1572893532457","2372794.0"
"1572893532506","2366663.0"
"1572893532554","2370253.0"
"1572893532602","2373784.0"
"1572893532652","2371842.0"
"1572893532699","2370883.0"
"1572893532749","2373101.0"
"1572893532801","2379394.0"
"1572893532847","2381897.0"
"1572893532897","2383150.0"
"1572893532944","2381689.0"
"1572893532992","2377025.0"
"1572893533039","2372240.0"
"1572893533091","2365842.0"
"1572893533134","2362577.0"
"1572893533187","2354129.0"
"1572893533235","2347066.0"
"1572893533278","2333635.0"
"1572893533334","2318610.0"
"1572893533378","2302791.0"
"1572893533426","2289089.0"
"1572893533476","2274907.0"
"1572893533523","2253228.0"
"1572893533574","2238510.0"
"1572893533619","2220300.0"
"1572893533666","2205257.0"
"1572893533713","2192965.0"
"1572893533761","2178846.0"
"1572893533811","2168553.0"
"1572893533858","2162761.0"
"1572893533907","2157145.0"
"1572893533955","2156550.0"
"1572893534002","2153226.0"
"1572893534056","2160172.0"
"1572893534098","2170355.0"
"1572893534152","2167109.0"
"1572893534199","2176152.0"
"1572893534250","2209145.0"
"1572893534297","2245213.0"
"1572893534341","2264897.0"
"1572893534395","2274738.0"
"1572893534440","2281721.0"
"1572893534491","2291238.0"
"1572893534538","2298567.0"
"1572893534586","2314749.0"
"1572893534633","2345622.0"
"1572893534681","2361866.0"
"1572893534733","2376915.0"
"1572893534779","2376529.0"
"1572893534824","2382845.0"
"1572893534873","2389156.0"
"1572893534923","2398634.0"
"1572893534970","2381070.0"
"1572893535017","2357451.0"
"1572893535065","2343113.0"
"1572893535114","2327261.0"
"1572893535162","2313102.0"
"1572893535211","2315794.0"
"1572893535261","2358219.0"
"1572893535311","2441439.0"
"1572893535360","2450688.0"
"1572893535406","2391964.0"
"1572893535457","2402604.0"
"1572893535502","2344234.0"
"1572893535552","2344216.0"
"1572893535600","2365212.0"
"1572893535645","2391080.0"
"1572893535697","2396720.0"
"1572893535741","2374875.0"
"1572893535794","2395981.0"
"1572893535841","2392634.0"
"1572893535891","2426057.0"
"1572893535938","2432637.0"
"1572893535982","2421410.0"
"1572893536036","2382833.0"
"1572893536078","2339120.0"
"1572893536128","2355047.0"
"1572893536175","2435649.0"
"1572893536224","2483829.0"
"1572893536273","2481385.0"
"1572893536323","2514933.0"
"1572893536369","2608302.0"
"1572893536417","2572657.0"
"1572893536465","2443792.0"
"1572893536518","2490910.0"
"1572893536562","2485969.0"
"1572893536613","2501780.0"
"1572893536658","2639516.0"
"1572893536711","2631084.0"
"1572893536759","2628033.0"
"1572893536804","2642856.0"
"1572893536854","2645457.0"
"1572893536903","2453577.0"
"1572893536953","2482306.0"
"1572893536999","2439035.0"
"1572893537048","2388098.0"
"1572893537097","2450369.0"
"1572893537143","2432528.0"
"1572893537195","2415034.0"
"1572893537241","2422341.0"
"1572893537287","2430748.0"
"1572893537334","2380180.0"
"1572893537383","2256881.0"
"1572893537431","2242486.0"
"1572893537479","2264147.0"
"1572893537529","2276016.0"
"1572893537575","2295527.0"
"1572893537624","2329352.0"
"1572893537673","2352776.0"
"1572893537724","2357861.0"
"1572893537773","2358509.0"
"1572893537820","2358641.0"
"1572893537866","2349539.0"
"1572893537918","2344281.0"
"1572893537965","2346453.0"
"1572893538010","2332249.0"
"1572893538063","2329088.0"
"1572893538109","2355543.0"
"1572893538158","2401536.0"
"1572893538205","2395952.0"
"1572893538256","2429551.0"
"1572893538303","2377488.0"
"1572893538349","2343050.0"
"1572893538396","2286378.0"
"1572893538447","2282615.0"
"1572893538493","2240105.0"
"1572893538542","2169685.0"
"1572893538591","2197575.0"
"1572893538638","2226287.0"
"1572893538687","2265539.0"
"1572893538739","2316749.0"
"1572893538788","2354330.0"
"1572893538837","2405152.0"
"1572893538878","2461442.0"
"1572893538934","2502150.0"
"1572893538981","2499642.0"
"1572893539026","2479461.0"
"1572893539077","2473809.0"
"1572893539122","2454680.0"
"1572893539175","2454808.0"
"1572893539221","2468717.0"
"1572893539274","2498568.0"
"1572893539318","2557734.0"
"1572893539369","2553539.0"
"1572893539416","2560394.0"
"1572893539464","2552072.0"
"1572893539513","2464603.0"
"1572893539556","2463343.0"
"1572893539606","2484004.0"
"1572893539653","2504988.0"
"1572893539701","2517863.0"
"1572893539751","2547175.0"
"1572893539797","2621669.0"
"1572893539845","2651381.0"
"1572893539895","2692506.0"
"1572893539943","2671977.0"
"1572893539996","2654126.0"
"1572893540044","2643787.0"
"1572893540089","2623618.0"
"1572893540136","2605805.0"
"1572893540188","2598582.0"
"1572893540230","2584261.0"
"1572893540278","2568496.0"
"1572893540333","2563571.0"
"1572893540374","2568212.0"
"1572893540427","2570235.0"
"1572893540471","2569333.0"
"1572893540519","2568976.0"
"1572893540568","2559398.0"
"1572893540615","2540674.0"
"1572893540668","2524649.0"
"1572893540712","2513720.0"
"1572893540761","2512056.0"
"1572893540812","2502284.0"
"1572893540859","2489622.0"
"1572893540911","2494181.0"
"1572893540957","2501648.0"
"1572893541007","2542258.0"
"1572893541058","2608637.0"
"1572893541107","3482548.0"
"1572893541151","3729194.0"
"1572893541203","3614823.0"
"1572893541249","3538915.0"
"1572893541291","3492715.0"
"1572893541341","3410809.0"
"1572893541393","3300612.0"
"1572893541440","3301280.0"
"1572893541490","3322843.0"
"1572893541541","3372917.0"
"1572893541589","3380002.0"
"1572893541633","3340113.0"
"1572893541685","3323688.0"
"1572893541731","3219774.0"
"1572893541781","3215888.0"
"1572893541831","3170003.0"
"1572893541874","3144750.0"
"1572893541926","3122476.0"
"1572893541971","3113626.0"
"1572893542018","3113128.0"
"1572893542069","3106950.0"
"1572893542115","3103786.0"
"1572893542164","3106535.0"
"1572893542213","3090881.0"
"1572893542261","3053565.0"
"1572893542312","3083621.0"
"1572893542357","3081660.0"
"1572893542406","3082890.0"
"1572893542453","3102183.0"
"1572893542506","3090763.0"
"1572893542553","3077940.0"
"1572893542603","3074019.0"
"1572893542652","3103638.0"
"1572893542697","3075848.0"
"1572893542748","3062633.0"
"1572893542795","3016762.0"
"1572893542844","2966184.0"
"1572893542896","2894604.0"
"1572893542940","2833243.0"
"1572893542989","2788955.0"
"1572893543031","2809717.0"
"1572893543085","2851896.0"
"1572893543132","2830080.0"
"1572893543181","2714886.0"
"1572893543224","2812283.0"
"1572893543274","2903566.0"
"1572893543322","3089426.0"
"1572893543371","3047430.0"
"1572893543418","2956007.0"
"1572893543469","2865940.0"
"1572893543515","2847258.0"
"1572893543564","2851265.0"
"1572893543611","2858252.0"
"1572893543663","2837095.0"
"1572893543712","2704560.0"
"1572893543754","2645843.0"
"1572893543809","2709924.0"
"1572893543853","2847764.0"
"1572893543905","3551756.0"
"1572893543954","3722674.0"
"1572893544001","3405206.0"
"1572893544051","3318570.0"
"1572893544097","3082882.0"
"1572893544143","3043023.0"
"1572893544195","2966121.0"
"1572893544243","2901260.0"
"1572893544292","2864908.0"
"1572893544340","3083782.0"
"1572893544389","3230957.0"
"1572893544433","3710437.0"
"1572893544480","3716116.0"
"1572893544529","3569672.0"
"1572893544576","3272982.0"
"1572893544626","3394994.0"
"1572893544674","3472394.0"
"1572893544721","3440505.0"
"1572893544771","3405565.0"
"1572893544818","3303915.0"
"1572893544871","3445193.0"
"1572893544918","3389947.0"
"1572893544967","3128443.0"
"1572893545013","3095795.0"
"1572893545059","2984986.0"
"1572893545113","2873573.0"
"1572893545160","2855834.0"
"1572893545209","2909511.0"
"1572893545256","3104144.0"
"1572893545305","3200473.0"
"1572893545355","3206097.0"
"1572893545395","3341421.0"
"1572893545446","3587827.0"
"1572893545492","3717436.0"
"1572893545546","3660342.0"
"1572893545596","3817963.0"
"1572893545638","3942105.0"
"1572893545688","3743197.0"
"1572893545735","3603403.0"
"1572893545784","3491035.0"
"1572893545834","3805718.0"
"1572893545880","3675111.0"
"1572893545929","3366907.0"
"1572893545976","3153424.0"
"1572893546026","3033626.0"
"1572893546073","3091086.0"
"1572893546121","3055941.0"
"1572893546175","2889213.0"
"1572893546222","2842323.0"
"1572893546272","2630962.0"
"1572893546315","2569244.0"
"1572893546367","2567824.0"
"1572893546416","2529060.0"
"1572893546464","2513785.0"
"1572893546511","2533067.0"
"1572893546556","2572716.0"
"1572893546609","2597591.0"
"1572893546658","2605836.0"
"1572893546705","2617756.0"
"1572893546748","2633683.0"
"1572893546796","2649581.0"
"1572893546844","2666845.0"
"1572893546894","2678991.0"
"1572893546943","2699353.0"
"1572893546992","2745439.0"
"1572893547039","2775298.0"
"1572893547090","2788112.0"
"1572893547135","2834234.0"
"1572893547184","2983277.0"
"1572893547233","3045229.0"
"1572893547280","3151018.0"
"1572893547329","3224470.0"
"1572893547376","3190759.0"
"1572893547426","3229277.0"
"1572893547475","3177841.0"
"1572893547522","3169477.0"
"1572893547575","3185538.0"
"1572893547618","3177518.0"
"1572893547673","3225656.0"
"1572893547717","3241366.0"
"1572893547768","3239405.0"
"1572893547816","3131064.0"
"1572893547864","3061128.0"
"1572893547912","3008335.0"
"1572893547958","3004505.0"
"1572893548010","2958010.0"
"1572893548058","2987101.0"
"1572893548105","2937065.0"
"1572893548155","2883076.0"
"1572893548196","2894870.0"
"1572893548252","2932193.0"
"1572893548297","3452743.0"
"1572893548341","3376262.0"
"1572893548392","3454689.0"
"1572893548437","2813141.0"
"1572893548486","2581558.0"
"1572893548537","2361902.0"
"1572893548582","2257091.0"
"1572893548633","2249301.0"
"1572893548681","2275006.0"
"1572893548730","2329612.0"
"1572893548776","2331322.0"
"1572893548826","2363207.0"
"1572893548874","2518223.0"
"1572893548922","2610937.0"
"1572893548973","2818637.0"
"1572893549023","2940826.0"
"1572893549066","2913416.0"
"1572893549115","2968860.0"
"1572893549168","2901331.0"
"1572893549217","2899053.0"
"1572893549263","2925395.0"
"1572893549314","2964890.0"
"1572893549359","3053675.0"
"1572893549410","3144986.0"
"1572893549458","3262327.0"
"1572893549506","3301540.0"
"1572893549555","3481498.0"
"1572893549600","3545537.0"
"1572893549653","3554921.0"
"1572893549698","3705730.0"
"1572893549748","3722997.0"
"1572893549793","3780849.0"
"1572893549840","3746157.0"
"1572893549888","3732234.0"
"1572893549936","3705935.0"
"1572893549986","3651628.0"
"1572893550033","3661409.0"
"1572893550081","3570151.0"
"1572893550131","3612170.0"
"1572893550179","3500413.0"
"1572893550231","3551055.0"
"1572893550278","3631589.0"
"1572893550327","3686635.0"
"1572893550376","3772133.0"
"1572893550418","3857757.0"
"1572893550472","3962445.0"
"1572893550520","4059235.0"
"1572893550569","4102515.0"
"1572893550614","4081844.0"
"1572893550660","4121793.0"
"1572893550714","4096928.0"
"1572893550761","4072964.0"
"1572893550806","4024118.0"
"1572893550854","3966472.0"
"1572893550902","3919351.0"
"1572893550952","3884615.0"
"1572893551000","3858173.0"
"1572893551048","3825982.0"
"1572893551095","3813585.0"
"1572893551144","3798739.0"
"1572893551193","3786790.0"
"1572893551244","3844272.0"
"1572893551293","3904434.0"
"1572893551340","3972855.0"
"1572893551385","3954564.0"
"1572893551440","3927052.0"
"1572893551480","3887995.0"
"1572893551536","3854464.0"
"1572893551582","3825698.0"
"1572893551628","3789462.0"
"1572893551679","3760682.0"
"1572893551727","3721933.0"
"1572893551776","3682986.0"
"1572893551821","3645624.0"
"1572893551866","3617387.0"
"1572893551914","3577551.0"
"1572893551963","3548840.0"
"1572893552013","3516206.0"
"1572893552061","3488231.0"
"1572893552109","3466211.0"
"1572893552157","3446093.0"
"1572893552207","3424026.0"
"1572893552258","3402930.0"
"1572893552301","3385805.0"
"1572893552356","3368167.0"
"1572893552403","3349262.0"
"1572893552454","3313554.0"
"1572893552499","3283584.0"
"1572893552546","3261062.0"
"1572893552596","3238513.0"
"1572893552643","3221932.0"
"1572893552693","3206968.0"
"1572893552741","3189575.0"
"1572893552791","3180330.0"
"1572893552838","3165263.0"
"1572893552886","3158903.0"
"1572893552935","3155033.0"
"1572893552981","3149722.0"
"1572893553032","3146814.0"
"1572893553074","3138405.0"
"1572893553122","3132550.0"
"1572893553172","3131619.0"
"1572893553219","3122793.0"
"1572893553268","3104353.0"
"1572893553315","3087079.0"
"1572893553365","3081908.0"
"1572893553412","3077331.0"
"1572893553461","3071081.0"
"1572893553513","3068708.0"
"1572893553562","3066187.0"
"1572893553612","3065776.0"
"1572893553654","3063767.0"
"1572893553708","3063870.0"
"1572893553754","3069921.0"
"1572893553802","3067944.0"
"1572893553852","3072215.0"
"1572893553894","3077441.0"
"1572893553949","3078631.0"
"1572893553996","3084627.0"
"1572893554043","3092406.0"
"1572893554092","3086825.0"
"1572893554136","3086732.0"
"1572893554185","3084903.0"
"1572893554236","3082445.0"
"1572893554285","3082138.0"
"1572893554330","3082445.0"
"1572893554377","3081539.0"
"1572893554428","3079474.0"
"1572893554474","3079552.0"
"1572893554522","3085171.0"
"1572893554571","3091917.0"
"1572893554618","3094052.0"
"1572893554669","3099759.0"
"1572893554719","3107458.0"
"1572893554767","3114780.0"
"1572893554816","3118553.0"
"1572893554865","3122054.0"
"1572893554913","3124668.0"
"1572893554960","3114953.0"
"1572893555007","3110855.0"
"1572893555057","3109932.0"
"1572893555101","3111777.0"
"1572893555154","3113124.0"
"1572893555202","3117167.0"
"1572893555245","3126089.0"
"1572893555298","3158816.0"
"1572893555342","3176169.0"
"1572893555391","3173182.0"
"1572893555445","3172876.0"
"1572893555488","3172449.0"
"1572893555539","3169936.0"
"1572893555588","3170023.0"
"1572893555632","3172884.0"
"1572893555680","3171718.0"
"1572893555730","3175170.0"
"1572893555776","3172591.0"
"1572893555827","3174365.0"
"1572893555873","3176659.0"
"1572893555921","3178101.0"
"1572893555971","3176155.0"
"1572893556018","3173103.0"
"1572893556071","3175501.0"
"1572893556114","3179142.0"
"1572893556163","3182356.0"
"1572893556212","3184666.0"
"1572893556259","3189944.0"
"1572893556311","3194294.0"
"1572893556356","3198866.0"
"1572893556405","3209520.0"
"1572893556452","3217897.0"
"1572893556500","3241831.0"
"1572893556552","3257561.0"
"1572893556596","3276129.0"
"1572893556645","3289795.0"
"1572893556693","3299590.0"
"1572893556741","3321372.0"
"1572893556792","3359475.0"
"1572893556838","3428620.0"
"1572893556891","3483148.0"
"1572893556934","3524008.0"
"1572893556983","3551213.0"
"1572893557032","3554870.0"
"1572893557079","3555130.0"
"1572893557132","3554948.0"
"1572893557176","3545484.0"
"1572893557225","3530888.0"
"1572893557272","3512157.0"
"1572893557321","3492343.0"
"1572893557372","3484259.0"
"1572893557417","3473572.0"
"1572893557466","3463397.0"
"1572893557514","3450237.0"
"1572893557562","3440371.0"
"1572893557613","3426761.0"
"1572893557656","3422624.0"
"1572893557713","3413024.0"
"1572893557759","3410842.0"
"1572893557808","3405427.0"
"1572893557851","3395175.0"
"1572893557898","3389610.0"
"1572893557957","3373675.0"
"1572893557996","3360759.0"
"1572893558046","3348339.0"
"1572893558093","3338504.0"
"1572893558142","3327244.0"
"1572893558193","3315738.0"
"1572893558238","3319527.0"
"1572893558288","3391857.0"
"1572893558335","3524914.0"
"1572893558384","3652307.0"
"1572893558430","3781014.0"
"1572893558483","3882542.0"
"1572893558536","3959206.0"
"1572893558581","4022944.0"
"1572893558625","4029328.0"
"1572893558671","4034214.0"
"1572893558724","4020910.0"
"1572893558775","4001107.0"
"1572893558821","3987994.0"
"1572893558872","3942231.0"
"1572893558918","3892187.0"
"1572893558968","3854273.0"
"1572893559015","3820757.0"
"1572893559058","3803798.0"
"1572893559112","3774986.0"
"1572893559153","3750304.0"
"1572893559208","3724966.0"
"1572893559250","3692121.0"
"1572893559303","3643796.0"
"1572893559352","3593297.0"
"1572893559396","3552396.0"
"1572893559445","3522913.0"
"1572893559493","3503857.0"
"1572893559541","3491760.0"
"1572893559592","3463791.0"
"1572893559637","3438858.0"
"1572893559687","3411740.0"
"1572893559734","3382424.0"
"1572893559782","3364770.0"
"1572893559833","3349924.0"
"1572893559883","3323217.0"
"1572893559932","3293072.0"
"1572893559979","3282568.0"
"1572893560024","3227544.0"
"1572893560072","3274561.0"
"1572893560120","3250958.0"
"1572893560173","3274782.0"
"1572893560221","3274473.0"
"1572893560270","3318747.0"
"1572893560314","3454587.0"
"1572893560367","3600546.0"
"1572893560414","3837377.0"
"1572893560458","4004110.0"
"1572893560508","4129751.0"
"1572893560555","4201758.0"
"1572893560603","4233461.0"
"1572893560653","4244778.0"
"1572893560697","4288808.0"
"1572893560750","4204564.0"
"1572893560795","4041094.0"
"1572893560845","3814444.0"
"1572893560891","3680969.0"
"1572893560941","3653632.0"
"1572893560990","4445397.0"
"1572893561037","5216312.0"
"1572893561091","7708761.0"
"1572893561135","7706886.0"
"1572893561187","1.158496E7"
"1572893561236","1.1864617E7"
"1572893561283","5440418.0"
"1572893561332","3406774.0"
"1572893561376","3225688.0"
"1572893561431","3204248.0"
"1572893561473","3011899.0"
"1572893561520","3126928.0"
"1572893561570","1.0321111E7"
"1572893561617","1.2415737E7"
"1572893561667","1.445821E7"
"1572893561713","1.7333788E7"
"1572893561762","2.170606E7"
"1572893561812","2.699145E7"
"1572893561858","1.9423434E7"
"1572893561911","1.4458448E7"
"1572893561956","1.1865088E7"
"1572893562007","8032916.0"
"1572893562052","6682044.0"
"1572893562099","6679077.0"
"1572893562153","6882296.0"
"1572893562195","6719186.0"
"1572893562252","4947553.0"
"1572893562297","5253296.0"
"1572893562345","8939143.0"
"1572893562394","1.2449405E7"
"1572893562440","1.2295216E7"
"1572893562491","9109393.0"
"1572893562537","6465393.0"
"1572893562585","4092817.0"
"1572893562631","3367076.0"
"1572893562679","3084606.0"
"1572893562734","2842858.0"
"1572893562777","2835586.0"
"1572893562828","2631033.0"
"1572893562872","2580463.0"
"1572893562919","2528765.0"
"1572893562969","2493155.0"
"1572893563017","2557094.0"
"1572893563064","2555684.0"
"1572893563113","2412117.0"
"1572893563161","2273178.0"
"1572893563210","2141761.0"
"1572893563258","2132199.0"
"1572893563311","2160969.0"
"1572893563360","2223154.0"
"1572893563406","2374215.0"
"1572893563458","2519621.0"
"1572893563503","2875406.0"
"1572893563553","3369799.0"
"1572893563597","3550852.0"
"1572893563643","3621063.0"
"1572893563696","3693366.0"
"1572893563745","3829329.0"
"1572893563794","4447329.0"
"1572893563836","5205445.0"
"1572893563889","4562968.0"
"1572893563937","3384086.0"
"1572893563985","2369936.0"
"1572893564034","2052664.0"
"1572893564082","2028590.0"
"1572893564128","2000753.0"
"1572893564177","1991698.0"
"1572893564223","1944758.0"
"1572893564273","1972352.0"
"1572893564320","2009484.0"
"1572893564369","2044281.0"
"1572893564417","2486032.0"
"1572893564466","3304043.0"
"1572893564513","4220253.0"
"1572893564567","4758345.0"
"1572893564613","4623453.0"
"1572893564659","3625140.0"
"1572893564710","3140427.0"
"1572893564758","2722513.0"
"1572893564807","2615950.0"
"1572893564857","2281311.0"
"1572893564900","2288887.0"
"1572893564951","2351741.0"
"1572893565000","2295755.0"
"1572893565049","2334390.0"
"1572893565096","2657475.0"
"1572893565141","3012043.0"
"1572893565195","3440197.0"
"1572893565240","3652608.0"
"1572893565291","3621717.0"
"1572893565334","3433925.0"
"1572893565382","3358082.0"
"1572893565431","3346269.0"
"1572893565478","3426629.0"
"1572893565528","3441651.0"
"1572893565726","3524727.0"
"1572893565726","3521540.0"
"1572893565726","3447647.0"
"1572893565726","3365048.0"
"1572893565863","3281172.0"
"1572893565863","3242101.0"
"1572893565891","3245125.0"
"1572893565930","3286723.0"
"1572893565961","3303763.0"
"1572893566010","3309505.0"
"1572893566059","3266553.0"
"1572893566113","3234805.0"
"1572893566154","2663165.0"
"1572893566208","2431284.0"
"1572893566256","2140027.0"
"1572893566299","2104494.0"
"1572893566353","2107457.0"
"1572893566399","2091347.0"
"1572893566449","2104781.0"
"1572893566611","2221462.0"
"1572893566611","2490861.0"
"1572893566611","2928709.0"
"1572893566671","3345887.0"
"1572893566768","3459608.0"
"1572893566769","3404785.0"
"1572893566788","3176116.0"
"1572893566832","2866716.0"
"1572893566881","2743675.0"
"1572893566928","2737241.0"
"1572893566975","2358954.0"
"1572893567024","2386421.0"
"1572893567073","2581650.0"
"1572893567120","2801915.0"
"1572893567170","3013347.0"
"1572893567221","3033193.0"
"1572893567271","2947000.0"
"1572893567317","3058141.0"
"1572893567360","3225313.0"
"1572893567416","3481004.0"
"1572893567464","3558473.0"
"1572893567512","3925235.0"
"1572893567559","4408336.0"
"1572893567609","4476186.0"
"1572893567654","4424423.0"
"1572893567702","4495266.0"
"1572893567753","4413484.0"
"1572893567800","4318959.0"
"1572893567851","3798434.0"
"1572893567898","3115776.0"
"1572893567945","2633159.0"
"1572893567992","2740193.0"
"1572893568039","2972151.0"
"1572893568088","3225947.0"
"1572893568135","3413540.0"
"1572893568184","3521145.0"
"1572893568232","3665099.0"
"1572893568281","4152112.0"
"1572893568329","3784372.0"
"1572893568376","3355841.0"
"1572893568425","2850121.0"
"1572893568479","2773221.0"
"1572893568526","2812377.0"
"1572893568575","2808996.0"
"1572893568617","2840724.0"
"1572893568671","2850407.0"
"1572893568718","2881649.0"
"1572893568762","2908088.0"
"1572893568815","2953419.0"
"1572893568863","2996191.0"
"1572893568908","3028264.0"
"1572893568960","3028463.0"
"1572893569005","3037740.0"
"1572893569052","3053299.0"
"1572893569101","3064829.0"
"1572893569150","3081325.0"
"1572893569197","3102167.0"
"1572893569247","3134699.0"
"1572893569294","3151613.0"
"1572893569344","3197913.0"
"1572893569391","3230620.0"
"1572893569438","3235474.0"
"1572893569493","3229649.0"
"1572893569539","3232111.0"
"1572893569588","3232276.0"
"1572893569632","3258863.0"
"1572893569684","3284809.0"
"1572893569733","3287574.0"
"1572893569781","3290833.0"
"1572893569826","3285692.0"
"1572893569878","3283968.0"
"1572893569926","3297422.0"
"1572893569974","3302363.0"
"1572893570021","3311630.0"
"1572893570069","3310902.0"
"1572893570114","3324182.0"
"1572893570164","3329349.0"
"1572893570212","3331750.0"
"1572893570260","3342750.0"
"1572893570309","3354705.0"
"1572893570356","3371028.0"
"1572893570405","3374738.0"
"1572893570452","3372225.0"
"1572893570505","3365654.0"
"1572893570554","3354670.0"
"1572893570601","3344562.0"
"1572893570647","3345326.0"
"1572893570698","3322674.0"
"1572893570746","3382948.0"
"1572893570796","3089233.0"
"1572893570842","3097189.0"
"1572893570892","3095291.0"
"1572893570938","3085677.0"
"1572893570990","3070126.0"
"1572893571036","3072138.0"
"1572893571085","3098420.0"
"1572893571130","3113071.0"
"1572893571180","3236670.0"
"1572893571227","3260389.0"
"1572893571273","3214756.0"
"1572893571322","3193362.0"
"1572893571371","3190753.0"
"1572893571418","3146880.0"
"1572893571470","3184485.0"
"1572893571515","3125182.0"
"1572893571564","3132194.0"
"1572893571612","3163255.0"
"1572893571659","3177360.0"
"1572893571711","3156987.0"
"1572893571759","3075675.0"
"1572893571807","3105737.0"
"1572893571858","3091728.0"
"1572893571905","3102088.0"
"1572893571955","3113679.0"
"1572893572003","3124670.0"
"1572893572048","3126716.0"
"1572893572099","3114051.0"
"1572893572144","3103622.0"
"1572893572191","3126629.0"
"1572893572244","3122113.0"
"1572893572291","3123084.0"
"1572893572340","3113392.0"
"1572893572389","3107817.0"
"1572893572437","3132836.0"
"1572893572486","3148613.0"
"1572893572532","3164806.0"
"1572893572577","3170641.0"
"1572893572627","3211357.0"
"1572893572674","3252733.0"
"1572893572722","3263943.0"
"1572893572772","3273679.0"
"1572893572818","3275672.0"
"1572893572872","3694894.0"
"1572893572914","4000660.0"
"1572893572967","4178941.0"
"1572893573010","4374162.0"
"1572893573059","4208026.0"
"1572893573111","4209881.0"
"1572893573160","4201914.0"
"1572893573210","4096318.0"
"1572893573253","4003563.0"
"1572893573306","4022166.0"
"1572893573350","4004717.0"
