"1572977878031","3447220.0"
"1572977878086","3476601.0"
"1572977878132","3499326.0"
"1572977878178","3537401.0"
"1572977878228","3582220.0"
"1572977878274","3528194.0"
"1572977878328","3521859.0"
"1572977878372","3592736.0"
"1572977878420","3578319.0"
"1572977878470","3549326.0"
"1572977878517","3536615.0"
"1572977878570","3529774.0"
"1572977878614","3535002.0"
"1572977878662","3546664.0"
"1572977878713","3550325.0"
"1572977878759","3556961.0"
"1572977878812","3575084.0"
"1572977878855","3607580.0"
"1572977878904","3639253.0"
"1572977878952","3657858.0"
"1572977879001","3677137.0"
"1572977879049","3685757.0"
"1572977879097","3683592.0"
"1572977879150","3665787.0"
"1572977879196","3656665.0"
"1572977879243","3661440.0"
"1572977879294","3657959.0"
"1572977879339","3663739.0"
"1572977879393","3673543.0"
"1572977879435","3588301.0"
"1572977879488","3546591.0"
"1572977879533","3469145.0"
"1572977879588","3373848.0"
"1572977879631","3343128.0"
"1572977879678","3299764.0"
"1572977879729","3259513.0"
"1572977879775","3193226.0"
"1572977879833","3134010.0"
"1572977879872","3104877.0"
"1572977879926","3093554.0"
"1572977879978","3076595.0"
"1572977880014","3054291.0"
"1572977880070","3038506.0"
"1572977880115","3025391.0"
"1572977880166","3020255.0"
"1572977880218","3028752.0"
"1572977880259","3046402.0"
"1572977880320","3072495.0"
"1572977880354","3108697.0"
"1572977880409","3135983.0"
"1572977880452","3151142.0"
"1572977880501","3178294.0"
"1572977880553","3211503.0"
"1572977880598","3229208.0"
"1572977880647","3218990.0"
"1572977880697","3156122.0"
"1572977880743","3088520.0"
"1572977880797","3042301.0"
"1572977880843","2987648.0"
"1572977880895","2959335.0"
"1572977880941","2924665.0"
"1572977880992","2883096.0"
"1572977881033","2829423.0"
"1572977881085","2779643.0"
"1572977881137","2739494.0"
"1572977881183","2752965.0"
"1572977881235","2878827.0"
"1572977881277","2927514.0"
"1572977881329","2999417.0"
"1572977881372","2990461.0"
"1572977881426","2933674.0"
"1572977881474","2888730.0"
"1572977881517","2926427.0"
"1572977881566","2883508.0"
"1572977881615","2882301.0"
"1572977881663","2843526.0"
"1572977881714","2964715.0"
"1572977881759","3035125.0"
"1572977881808","3287401.0"
"1572977881856","3390447.0"
"1572977881905","3511810.0"
"1572977881962","3603484.0"
"1572977882004","3673096.0"
"1572977882054","3713017.0"
"1572977882101","3729275.0"
"1572977882153","3726848.0"
"1572977882195","3736764.0"
"1572977882253","3755635.0"
"1572977882292","3770485.0"
"1572977882339","3770439.0"
"1572977882390","3776414.0"
"1572977882436","3751194.0"
"1572977882488","3773133.0"
"1572977882531","3826887.0"
"1572977882587","3828906.0"
"1572977882634","3786256.0"
"1572977882678","3740978.0"
"1572977882729","3722087.0"
"1572977882775","3704350.0"
"1572977882829","3679630.0"
"1572977882874","3644168.0"
"1572977882920","3678943.0"
"1572977882970","3724314.0"
"1572977883018","3881100.0"
"1572977883072","4072787.0"
"1572977883121","4271762.0"
"1572977883165","4420758.0"
"1572977883221","4611059.0"
"1572977883260","4727885.0"
"1572977883314","4815297.0"
"1572977883360","4853457.0"
"1572977883413","4885697.0"
"1572977883457","4913840.0"
"1572977883511","4913109.0"
"1572977883559","4891763.0"
"1572977883599","4906693.0"
"1572977883648","4945192.0"
"1572977883698","4973184.0"
"1572977883746","5032738.0"
"1572977883797","5050345.0"
"1572977883842","5108638.0"
"1572977883893","5107742.0"
"1572977883939","5007492.0"
"1572977883993","4774003.0"
"1572977884035","4507930.0"
"1572977884084","4294977.0"
"1572977884140","4189978.0"
"1572977884184","4114887.0"
"1572977884233","4061043.0"
"1572977884275","4014868.0"
"1572977884335","3983083.0"
"1572977884387","3961439.0"
"1572977884427","3950864.0"
"1572977884477","3940211.0"
"1572977884520","3926032.0"
"1572977884574","3914619.0"
"1572977884618","3895895.0"
"1572977884672","3865476.0"
"1572977884716","3831369.0"
"1572977884766","3801799.0"
"1572977884814","3776140.0"
"1572977884867","3758512.0"
"1572977884906","3738026.0"
"1572977884958","3728306.0"
"1572977885003","3715120.0"
"1572977885053","3702686.0"
"1572977885100","3697678.0"
"1572977885149","3686688.0"
"1572977885196","3679136.0"
"1572977885246","3674975.0"
"1572977885297","3666547.0"
"1572977885347","3660787.0"
"1572977885394","3652774.0"
"1572977885437","3643257.0"
"1572977885495","3640145.0"
"1572977885536","3632574.0"
"1572977885587","3632054.0"
"1572977885634","3626660.0"
"1572977885687","3628722.0"
"1572977885730","3626353.0"
"1572977885777","3624080.0"
"1572977885828","3620439.0"
"1572977885877","3621961.0"
"1572977885921","3616085.0"
"1572977885970","3616778.0"
"1572977886018","3619090.0"
"1572977886067","3619610.0"
"1572977886119","3620583.0"
"1572977886164","3619831.0"
"1572977886213","3620565.0"
"1572977886260","3620496.0"
"1572977886311","3619360.0"
"1572977886361","3621103.0"
"1572977886409","3623271.0"
"1572977886460","3620284.0"
"1572977886505","3623155.0"
"1572977886554","3627605.0"
"1572977886601","3630561.0"
"1572977886651","3628789.0"
"1572977886697","3631670.0"
"1572977886752","3632296.0"
"1572977886794","3632585.0"
"1572977886842","3636244.0"
"1572977886895","3639944.0"
"1572977886940","3641715.0"
"1572977886995","3644653.0"
"1572977887039","3646080.0"
"1572977887087","3647496.0"
"1572977887131","3650143.0"
"1572977887183","3651000.0"
"1572977887231","3654834.0"
"1572977887281","3654729.0"
"1572977887328","3655298.0"
"1572977887375","3659515.0"
"1572977887428","3662289.0"
"1572977887477","3662242.0"
"1572977887518","3663821.0"
"1572977887575","3668723.0"
"1572977887628","3670044.0"
"1572977887672","3668087.0"
"1572977887717","3672393.0"
"1572977887761","3674118.0"
"1572977887810","3675341.0"
"1572977887870","3677980.0"
"1572977887909","3678616.0"
"1572977887961","3678374.0"
"1572977888010","3683240.0"
"1572977888059","3684780.0"
"1572977888101","3682352.0"
"1572977888150","3689683.0"
"1572977888197","3689520.0"
"1572977888246","3691956.0"
"1572977888294","3695134.0"
"1572977888342","3695242.0"
"1572977888392","3696282.0"
"1572977888442","3698110.0"
"1572977888494","3698631.0"
"1572977888543","3700289.0"
"1572977888588","3701501.0"
"1572977888639","3701367.0"
"1572977888688","3707030.0"
"1572977888734","3703736.0"
"1572977888784","3705951.0"
"1572977888833","3708281.0"
"1572977888882","3705740.0"
"1572977888923","3708389.0"
"1572977888976","3710277.0"
"1572977889029","3710478.0"
"1572977889073","3710565.0"
"1572977889117","3711095.0"
"1572977889163","3714427.0"
"1572977889215","3712347.0"
"1572977889264","3711981.0"
"1572977889309","3704978.0"
"1572977889360","3703631.0"
"1572977889407","3701260.0"
"1572977889456","3698015.0"
"1572977889504","3697505.0"
"1572977889553","3694220.0"
"1572977889602","3694094.0"
"1572977889654","3690319.0"
"1572977889706","3689278.0"
"1572977889747","3692023.0"
"1572977889801","3689528.0"
"1572977889845","3689451.0"
"1572977889890","3689770.0"
"1572977889941","3689472.0"
"1572977890000","3689307.0"
"1572977890037","3687718.0"
"1572977890089","3688189.0"
"1572977890133","3686196.0"
"1572977890186","3684270.0"
"1572977890236","3683653.0"
"1572977890285","3684587.0"
"1572977890334","3685272.0"
"1572977890375","3685166.0"
"1572977890424","3687564.0"
"1572977890472","3687535.0"
"1572977890525","3686322.0"
"1572977890568","3691475.0"
"1572977890617","3690069.0"
"1572977890665","3693622.0"
"1572977890714","3693681.0"
"1572977890766","3692602.0"
"1572977890815","3693007.0"
"1572977890864","3694346.0"
"1572977890912","3693545.0"
"1572977890958","3688305.0"
"1572977891006","3691387.0"
"1572977891056","3689665.0"
"1572977891100","3692062.0"
"1572977891149","3688035.0"
"1572977891196","3690069.0"
"1572977891245","3691861.0"
"1572977891298","3694990.0"
"1572977891350","3692322.0"
"1572977891392","3693352.0"
"1572977891438","3692495.0"
"1572977891489","3693594.0"
"1572977891536","3694171.0"
"1572977891586","3696946.0"
"1572977891632","3696465.0"
"1572977891685","3693643.0"
"1572977891729","3691745.0"
"1572977891777","3696318.0"
"1572977891831","3693450.0"
"1572977891873","3691812.0"
"1572977891922","3695164.0"
"1572977891969","3693429.0"
"1572977892018","3692747.0"
"1572977892066","3691292.0"
"1572977892115","3692842.0"
"1572977892165","3691985.0"
"1572977892212","3691465.0"
"1572977892267","3693787.0"
"1572977892308","3690491.0"
"1572977892357","3694923.0"
"1572977892407","3753862.0"
"1572977892454","3965244.0"
"1572977892506","4274960.0"
"1572977892551","4383110.0"
"1572977892599","4429033.0"
"1572977892649","4314355.0"
"1572977892697","4155217.0"
"1572977892746","4042762.0"
"1572977892792","3953194.0"
"1572977892847","3915351.0"
"1572977892890","3907173.0"
"1572977892939","3872268.0"
"1572977892990","3902435.0"
"1572977893036","3895354.0"
"1572977893088","3885704.0"
"1572977893133","3847474.0"
"1572977893183","3812731.0"
"1572977893230","3791290.0"
"1572977893277","3762673.0"
"1572977893330","3740424.0"
"1572977893375","3727719.0"
"1572977893423","3706886.0"
"1572977893472","3697995.0"
"1572977893520","3690146.0"
"1572977893570","3697726.0"
"1572977893617","3696406.0"
"1572977893670","3686408.0"
"1572977893714","3635783.0"
"1572977893762","3588845.0"
"1572977893811","3562540.0"
"1572977893859","3543326.0"
"1572977893911","3537064.0"
"1572977893955","3526757.0"
"1572977894004","3519900.0"
"1572977894053","3517915.0"
"1572977894101","3516172.0"
"1572977894150","3520333.0"
"1572977894197","3524417.0"
"1572977894249","3528464.0"
"1572977894295","3505326.0"
"1572977894349","3452245.0"
"1572977894390","3414786.0"
"1572977894444","3392420.0"
"1572977894490","3385553.0"
"1572977894540","3377741.0"
"1572977894585","3360095.0"
"1572977894633","3347429.0"
"1572977894682","3337065.0"
"1572977894730","3326201.0"
"1572977894777","3327299.0"
"1572977894834","3337730.0"
"1572977894874","3350985.0"
"1572977894925","3364585.0"
"1572977894970","3355656.0"
"1572977895020","3337654.0"
"1572977895072","3353604.0"
"1572977895117","3359286.0"
"1572977895172","3393133.0"
"1572977895215","3427405.0"
"1572977895262","3476624.0"
"1572977895312","3502908.0"
"1572977895362","3533925.0"
"1572977895410","3559651.0"
"1572977895456","3578733.0"
"1572977895506","3627682.0"
"1572977895554","3679049.0"
"1572977895602","3700595.0"
"1572977895651","3709342.0"
"1572977895708","3717270.0"
"1572977895752","3733731.0"
"1572977895803","3761345.0"
"1572977895843","3799247.0"
"1572977895901","3847281.0"
"1572977895940","3858791.0"
"1572977895993","3900844.0"
"1572977896044","3940394.0"
"1572977896089","3981330.0"
"1572977896134","4012913.0"
"1572977896193","4002078.0"
"1572977896236","4072929.0"
"1572977896276","4065946.0"
"1572977896334","4051557.0"
"1572977896373","4021254.0"
"1572977896422","3994168.0"
"1572977896472","3978237.0"
"1572977896519","3989459.0"
"1572977896574","3970793.0"
"1572977896618","3989122.0"
"1572977896668","4026880.0"
"1572977896715","4079961.0"
"1572977896763","4128997.0"
"1572977896811","4195112.0"
"1572977896858","4217555.0"
"1572977896914","4242655.0"
"1572977896960","4239591.0"
"1572977897005","4209907.0"
"1572977897056","4162643.0"
"1572977897102","4117006.0"
"1572977897156","4076503.0"
"1572977897204","4055430.0"
"1572977897256","4054899.0"
"1572977897300","4038794.0"
"1572977897348","4021369.0"
"1572977897400","4041366.0"
"1572977897448","4111506.0"
"1572977897500","4164618.0"
"1572977897538","4182032.0"
"1572977897589","4178054.0"
"1572977897634","4172227.0"
"1572977897696","4153646.0"
"1572977897735","4104734.0"
"1572977897779","4093100.0"
"1572977897834","4127650.0"
"1572977897873","4189352.0"
"1572977897930","4249138.0"
"1572977897977","4316387.0"
"1572977898026","4375210.0"
"1572977898073","4411879.0"
"1572977898117","4444541.0"
"1572977898167","4490630.0"
"1572977898215","4465733.0"
"1572977898263","4471078.0"
"1572977898314","4479274.0"
"1572977898360","4444369.0"
"1572977898409","4428928.0"
"1572977898455","4377821.0"
"1572977898506","4349551.0"
"1572977898553","4359220.0"
"1572977898601","4366205.0"
"1572977898655","4377955.0"
"1572977898705","4385603.0"
"1572977898755","4381163.0"
"1572977898797","4381624.0"
"1572977898848","4365732.0"
"1572977898896","4358257.0"
"1572977898939","4365992.0"
"1572977898998","4376309.0"
"1572977899034","4374267.0"
"1572977899089","4375913.0"
"1572977899132","4368997.0"
"1572977899187","4367215.0"
"1572977899238","4340959.0"
"1572977899278","4338801.0"
"1572977899329","4323419.0"
"1572977899376","4299715.0"
"1572977899424","4257345.0"
"1572977899475","4229258.0"
"1572977899521","4200285.0"
"1572977899570","4172641.0"
"1572977899618","4170491.0"
"1572977899668","4155148.0"
"1572977899714","4140411.0"
"1572977899769","4157576.0"
"1572977899824","4159357.0"
"1572977899865","4152114.0"
"1572977899912","4156064.0"
"1572977899956","4152750.0"
"1572977900013","4153039.0"
"1572977900059","4153955.0"
"1572977900102","4151035.0"
"1572977900157","4136722.0"
"1572977900203","4121860.0"
"1572977900255","4138890.0"
"1572977900299","4170290.0"
"1572977900343","4170154.0"
"1572977900397","4108895.0"
"1572977900440","4061151.0"
"1572977900491","4034671.0"
"1572977900536","4022121.0"
"1572977900589","3982774.0"
"1572977900636","3915948.0"
"1572977900688","3870764.0"
"1572977900732","3862249.0"
"1572977900777","3842716.0"
"1572977900833","3841300.0"
"1572977900877","3887658.0"
"1572977900930","3869175.0"
"1572977900970","3795258.0"
"1572977901029","3740058.0"
"1572977901075","3709314.0"
"1572977901115","3693236.0"
"1572977901165","3644702.0"
"1572977901220","3602994.0"
"1572977901261","3561289.0"
"1572977901310","3454663.0"
"1572977901362","3326953.0"
"1572977901408","3218275.0"
"1572977901457","3169970.0"
"1572977901505","3117389.0"
"1572977901554","3069529.0"
"1572977901600","3011437.0"
"1572977901652","2944247.0"
"1572977901699","2868445.0"
"1572977901748","2856953.0"
"1572977901797","2859068.0"
"1572977901842","2872921.0"
"1572977901893","2888285.0"
"1572977901940","2886861.0"
"1572977902018","2890221.0"
"1572977902102","2885081.0"
"1572977902104","2850096.0"
"1572977902195","2820366.0"
"1572977902197","2825465.0"
"1572977902229","2832337.0"
"1572977902276","2830502.0"
"1572977902326","2818149.0"
"1572977902376","2807856.0"
"1572977902423","2802649.0"
"1572977902472","2802620.0"
"1572977902520","2807411.0"
"1572977902569","2810833.0"
"1572977902620","2812783.0"
"1572977902665","2812619.0"
"1572977902713","2810313.0"
"1572977902762","2780761.0"
"1572977902811","2729646.0"
"1572977902859","2699341.0"
"1572977902908","2694763.0"
"1572977902959","2698404.0"
"1572977903004","2707651.0"
"1572977903052","2705871.0"
"1572977903100","2700800.0"
"1572977903150","2699479.0"
"1572977903197","2706568.0"
"1572977903246","2717389.0"
"1572977903298","2733342.0"
"1572977903343","2747637.0"
"1572977903392","2753318.0"
"1572977903439","2718880.0"
"1572977903489","2687311.0"
"1572977903538","2679411.0"
"1572977903585","2682491.0"
"1572977903631","2691197.0"
"1572977903682","2694784.0"
"1572977903731","2692983.0"
"1572977903781","2695064.0"
"1572977903829","2698430.0"
"1572977903875","2706192.0"
"1572977903924","2726381.0"
"1572977903977","2747418.0"
"1572977904023","2762715.0"
"1572977904071","2760874.0"
"1572977904124","2796044.0"
"1572977904171","2871956.0"
"1572977904218","2960020.0"
"1572977904262","3011411.0"
"1572977904318","3078828.0"
"1572977904363","3094926.0"
"1572977904412","3116682.0"
"1572977904460","3137178.0"
"1572977904505","3162782.0"
"1572977904553","3190184.0"
"1572977904600","3213104.0"
"1572977904651","3223218.0"
"1572977904700","3195152.0"
"1572977904746","3148635.0"
"1572977904799","3117208.0"
"1572977904844","3098122.0"
"1572977904892","3090421.0"
"1572977904942","3080874.0"
"1572977904991","3073202.0"
"1572977905040","3065996.0"
"1572977905085","3064854.0"
"1572977905137","3070931.0"
"1572977905180","3080013.0"
"1572977905236","3090291.0"
"1572977905282","3099223.0"
"1572977905327","3114520.0"
"1572977905380","3130205.0"
"1572977905429","3144679.0"
"1572977905476","3120652.0"
"1572977905522","3054281.0"
"1572977905573","3017447.0"
"1572977905621","2989291.0"
"1572977905671","2969986.0"
"1572977905715","2950940.0"
"1572977905763","2927485.0"
"1572977905813","2903779.0"
"1572977905861","2889721.0"
"1572977905909","2884971.0"
"1572977905956","2881653.0"
"1572977906006","2883850.0"
"1572977906053","2884471.0"
"1572977906103","2884760.0"
"1572977906155","2887667.0"
"1572977906207","2891912.0"
"1572977906253","2894327.0"
"1572977906311","2895833.0"
"1572977906342","2899945.0"
"1572977906396","2906871.0"
"1572977906445","2915132.0"
"1572977906494","2923674.0"
"1572977906537","2931791.0"
"1572977906586","2942563.0"
"1572977906638","2952622.0"
"1572977906681","2955073.0"
"1572977906731","2916748.0"
"1572977906786","2872324.0"
"1572977906835","2849993.0"
"1572977906874","2845025.0"
"1572977906925","2852636.0"
"1572977906973","2855113.0"
"1572977907022","2856049.0"
"1572977907070","2847762.0"
"1572977907115","2864392.0"
"1572977907168","2903566.0"
"1572977907212","2958159.0"
"1572977907263","2991632.0"
"1572977907312","3018296.0"
"1572977907363","3038321.0"
"1572977907412","3046629.0"
"1572977907460","3045575.0"
"1572977907511","3046595.0"
"1572977907554","3042448.0"
"1572977907604","3047046.0"
"1572977907655","3056223.0"
"1572977907703","3067585.0"
"1572977907753","3078001.0"
"1572977907806","3085754.0"
"1572977907844","3062779.0"
"1572977907897","3017884.0"
"1572977907946","2997682.0"
"1572977907993","2993131.0"
"1572977908041","2987239.0"
"1572977908090","2989121.0"
"1572977908138","2984411.0"
"1572977908185","2974537.0"
"1572977908231","2966727.0"
"1572977908279","2965134.0"
"1572977908330","2968322.0"
"1572977908375","2976664.0"
"1572977908423","2981380.0"
"1572977908472","2986095.0"
"1572977908521","2993631.0"
"1572977908570","3005779.0"
"1572977908621","3015763.0"
"1572977908673","3025414.0"
"1572977908719","3033167.0"
"1572977908770","3040715.0"
"1572977908812","3057757.0"
"1572977908859","3076453.0"
"1572977908910","3051782.0"
"1572977908956","3030595.0"
"1572977909009","3026541.0"
"1572977909057","3032057.0"
"1572977909101","3034126.0"
"1572977909154","3040243.0"
"1572977909201","3048094.0"
"1572977909247","3052657.0"
"1572977909313","3060898.0"
"1572977909348","3076788.0"
"1572977909392","3086890.0"
"1572977909440","3125694.0"
"1572977909490","3186070.0"
"1572977909536","3237638.0"
"1572977909587","3286442.0"
"1572977909633","3313590.0"
"1572977909681","3311435.0"
"1572977909730","3324541.0"
"1572977909778","3341013.0"
"1572977909832","3360820.0"
"1572977909880","3374323.0"
"1572977909927","3386278.0"
"1572977909976","3391939.0"
"1572977910020","3400076.0"
"1572977910073","3410568.0"
"1572977910115","3419436.0"
"1572977910171","3427313.0"
"1572977910217","3431558.0"
"1572977910261","3428033.0"
"1572977910309","3425282.0"
"1572977910363","3420277.0"
"1572977910409","3388694.0"
"1572977910459","3356180.0"
"1572977910508","3343101.0"
"1572977910557","3335976.0"
"1572977910600","3335115.0"
"1572977910651","3335745.0"
"1572977910696","3327264.0"
"1572977910748","3324178.0"
"1572977910797","3322522.0"
"1572977910843","3324239.0"
"1572977910891","3329030.0"
"1572977910939","3335155.0"
"1572977910990","3340501.0"
"1572977911035","3347474.0"
"1572977911086","3353626.0"
"1572977911136","3350548.0"
"1572977911184","3324042.0"
"1572977911229","3293996.0"
"1572977911281","3264349.0"
"1572977911335","3234106.0"
"1572977911379","3195692.0"
"1572977911429","3155220.0"
"1572977911471","3106320.0"
"1572977911524","3060557.0"
"1572977911571","3009686.0"
"1572977911615","2984994.0"
"1572977911669","2976349.0"
"1572977911717","2973763.0"
"1572977911764","2964776.0"
"1572977911811","2989681.0"
"1572977911857","3037377.0"
"1572977911911","3100667.0"
"1572977911954","3150949.0"
"1572977912003","3204849.0"
"1572977912052","3143578.0"
"1572977912099","3044630.0"
"1572977912151","2993582.0"
"1572977912196","2989045.0"
"1572977912246","3100503.0"
"1572977912295","3211426.0"
"1572977912348","3315720.0"
"1572977912393","3410458.0"
"1572977912442","3455360.0"
"1572977912492","3495594.0"
"1572977912538","3540154.0"
"1572977912586","3660824.0"
"1572977912630","3706766.0"
"1572977912685","3721474.0"
"1572977912736","3629958.0"
"1572977912781","3565716.0"
"1572977912831","3562650.0"
"1572977912871","3555634.0"
"1572977912927","3599024.0"
"1572977912977","3658313.0"
"1572977913023","3709155.0"
"1572977913072","3751202.0"
"1572977913115","3796522.0"
"1572977913164","3849226.0"
"1572977913214","3902848.0"
"1572977913260","3964680.0"
"1572977913313","4028499.0"
"1572977913357","4081024.0"
"1572977913408","4133749.0"
"1572977913454","4213304.0"
"1572977913506","4243445.0"
"1572977913553","4271160.0"
"1572977913599","4289399.0"
"1572977913655","4307646.0"
"1572977913700","4329770.0"
"1572977913750","4349596.0"
"1572977913793","4362814.0"
"1572977913840","4379806.0"
"1572977913891","4400698.0"
"1572977913937","4413702.0"
"1572977913987","4426686.0"
"1572977914035","4434966.0"
"1572977914085","4443954.0"
"1572977914137","4428621.0"
"1572977914184","4398157.0"
"1572977914236","4385960.0"
"1572977914281","4406800.0"
"1572977914332","4419527.0"
"1572977914376","4429539.0"
"1572977914427","4418842.0"
"1572977914477","4426365.0"
"1572977914517","4431081.0"
"1572977914565","4413736.0"
"1572977914615","4418702.0"
"1572977914665","4437341.0"
"1572977914714","4407182.0"
"1572977914760","4355750.0"
"1572977914814","4307665.0"
"1572977914857","4259344.0"
"1572977914907","4206535.0"
"1572977914959","4147500.0"
"1572977915008","4087625.0"
"1572977915056","4038213.0"
"1572977915100","4002541.0"
"1572977915154","3986832.0"
"1572977915200","3964042.0"
"1572977915251","3952278.0"
"1572977915294","3942838.0"
"1572977915347","3923949.0"
"1572977915399","3889621.0"
"1572977915442","3841024.0"
"1572977915492","3790579.0"
"1572977915535","3746525.0"
"1572977915590","3695632.0"
"1572977915637","3642829.0"
"1572977915685","3571139.0"
"1572977915734","3505741.0"
"1572977915776","3453572.0"
"1572977915832","3413713.0"
"1572977915874","3372042.0"
"1572977915923","3313233.0"
"1572977915973","3231798.0"
"1572977916019","3163375.0"
"1572977916069","3127635.0"
"1572977916116","3102520.0"
"1572977916165","3075986.0"
"1572977916218","3050258.0"
"1572977916260","3023628.0"
"1572977916316","3004192.0"
"1572977916362","2985831.0"
"1572977916412","2980083.0"
"1572977916458","2991969.0"
"1572977916507","3012565.0"
"1572977916557","3034455.0"
"1572977916600","3016545.0"
"1572977916653","3003507.0"
"1572977916695","3020281.0"
"1572977916745","3044736.0"
"1572977916799","3070309.0"
"1572977916848","3086362.0"
"1572977916895","3103717.0"
"1572977916943","3130782.0"
"1572977916988","3147131.0"
"1572977917035","3167892.0"
"1572977917084","3189339.0"
"1572977917131","3209971.0"
"1572977917180","3232589.0"
"1572977917229","3237225.0"
"1572977917275","3221751.0"
"1572977917327","3228558.0"
"1572977917375","3248312.0"
"1572977917425","3273252.0"
"1572977917475","3291008.0"
"1572977917523","3301896.0"
"1572977917570","3318460.0"
"1572977917618","3336413.0"
"1572977917669","3354758.0"
"1572977917716","3376404.0"
"1572977917764","3390472.0"
"1572977917815","3412752.0"
"1572977917854","3429560.0"
"1572977917910","3418524.0"
"1572977917959","3408763.0"
"1572977918006","3415732.0"
"1572977918055","3427072.0"
"1572977918099","3446074.0"
"1572977918152","3463090.0"
"1572977918199","3472426.0"
"1572977918248","3485066.0"
"1572977918297","3498528.0"
"1572977918340","3514498.0"
"1572977918395","3529555.0"
"1572977918438","3541603.0"
"1572977918492","3556835.0"
"1572977918540","3566189.0"
"1572977918587","3567697.0"
"1572977918832","3535605.0"
"1572977918832","3514107.0"
"1572977918832","3508480.0"
"1572977918832","3507232.0"
"1572977918832","3506054.0"
"1572977918895","3503774.0"
"1572977918983","3499473.0"
"1572977918983","3490935.0"
"1572977919021","3489850.0"
"1572977919073","3490925.0"
"1572977919118","3491766.0"
"1572977919166","3488386.0"
"1572977919214","3494428.0"
"1572977919259","3552016.0"
"1572977919312","3599607.0"
"1572977919358","3643150.0"
"1572977919409","3691365.0"
"1572977919457","3741167.0"
"1572977919505","3814444.0"
"1572977919555","3897587.0"
"1572977919598","3971740.0"
"1572977919648","3992502.0"
"1572977919698","3967640.0"
"1572977919743","3935461.0"
"1572977919801","3911050.0"
"1572977919840","3898601.0"
"1572977919888","3886951.0"
"1572977919938","3870004.0"
"1572977919985","3863917.0"
"1572977920033","3861768.0"
"1572977920080","3856290.0"
"1572977920131","3852450.0"
"1572977920181","3791707.0"
"1572977920226","3726848.0"
"1572977920278","3690160.0"
"1572977920336","3669607.0"
"1572977920376","3658615.0"
"1572977920427","3648446.0"
"1572977920698","3610400.0"
"1572977920698","3575568.0"
"1572977920698","3532405.0"
"1572977920698","3500948.0"
"1572977920699","3469515.0"
"1572977920741","3448606.0"
"1572977920820","3405765.0"
"1572977920859","3366217.0"
"1572977920904","3283431.0"
"1572977920952","3172358.0"
"1572977921002","3128744.0"
"1572977921050","3155053.0"
"1572977921101","3252033.0"
"1572977921146","3338875.0"
"1572977921194","3399470.0"
"1572977921241","3450504.0"
"1572977921299","3483341.0"
"1572977921347","3517279.0"
"1572977921393","3528315.0"
"1572977921439","3547316.0"
"1572977921485","3575828.0"
"1572977921536","3593695.0"
"1572977921579","3605839.0"
"1572977921634","3604981.0"
"1572977921684","3584394.0"
"1572977921732","3577354.0"
"1572977921779","3573548.0"
"1572977921834","3561142.0"
"1572977921877","3555787.0"
"1572977921920","3550766.0"
"1572977921969","3535579.0"
"1572977922017","3511151.0"
"1572977922066","3496829.0"
"1572977922113","3480594.0"
"1572977922162","3466298.0"
"1572977922211","3460715.0"
"1572977922262","3460455.0"
"1572977922307","3465709.0"
"1572977922359","3479233.0"
"1572977922408","3498573.0"
"1572977922456","3517435.0"
"1572977922508","3576462.0"
"1572977922554","3611345.0"
"1572977922596","3646374.0"
"1572977922651","3646782.0"
"1572977922695","3624980.0"
"1572977922745","3596166.0"
"1572977922800","3594077.0"
"1572977922847","3625415.0"
"1572977922892","3651230.0"
"1572977922935","3658217.0"
"1572977922986","3656232.0"
"1572977923036","3689146.0"
"1572977923087","3707282.0"
"1572977923129","3694027.0"
"1572977923177","3671037.0"
"1572977923226","3671019.0"
"1572977923274","3672911.0"
"1572977923322","3715620.0"
"1572977923371","3734310.0"
"1572977923419","3738766.0"
"1572977923468","3726553.0"
"1572977923515","3719929.0"
"1572977923565","3726778.0"
"1572977923613","3733835.0"
"1572977923664","3740432.0"
"1572977923710","3743093.0"
"1572977923764","3749577.0"
"1572977923805","3754067.0"
"1572977923861","3746403.0"
"1572977923906","3722530.0"
"1572977923958","3698387.0"
"1572977924006","3688748.0"
"1572977924051","3673317.0"
"1572977924096","3661683.0"
"1572977924151","3647510.0"
"1572977924380","3630380.0"
"1572977924380","3628283.0"
"1572977924380","3626055.0"
"1572977924380","3615471.0"
"1572977924410","3600794.0"
"1572977924477","3586249.0"
"1572977924497","3574363.0"
"1572977924539","3561516.0"
"1572977924580","3532450.0"
"1572977924629","3447712.0"
"1572977924678","3380754.0"
"1572977924727","3349148.0"
"1572977924774","3326246.0"
"1572977924825","3312973.0"
"1572977924871","3294630.0"
"1572977924920","3268987.0"
"1572977924970","3254156.0"
"1572977925023","3243467.0"
"1572977925066","3236264.0"
"1572977925111","3236957.0"
"1572977925165","3232873.0"
"1572977925214","3232233.0"
"1572977925256","3226745.0"
"1572977925307","3215770.0"
"1572977925360","3158036.0"
"1572977925406","3103561.0"
"1572977925457","3079046.0"
"1572977925505","3064492.0"
"1572977925546","3054618.0"
"1572977925596","3046495.0"
"1572977925647","3028108.0"
"1572977925700","3011179.0"
"1572977925748","3004678.0"
"1572977925793","3002441.0"
"1572977925838","3004694.0"
"1572977925886","3006437.0"
"1572977925934","3012557.0"
"1572977925983","3018971.0"
"1572977926032","3024631.0"
"1572977926079","2992272.0"
"1572977926130","2943414.0"
"1572977926176","2918899.0"
"1572977926229","2914261.0"
"1572977926280","2911575.0"
"1572977926328","2916455.0"
"1572977926374","2913300.0"
"1572977926425","2907708.0"
"1572977926466","2910084.0"
"1572977926521","2919637.0"
"1572977926570","2929865.0"
"1572977926611","2943101.0"
"1572977926666","2956877.0"
"1572977926709","2969108.0"
"1572977926758","2983602.0"
"1572977926810","2979380.0"
"1572977926858","2942366.0"
"1572977926908","2917564.0"
"1572977926950","2913629.0"
"1572977927002","2913810.0"
"1572977927050","2922185.0"
"1572977927095","2924743.0"
"1572977927143","2921335.0"
"1572977927192","2919982.0"
"1572977927240","2926051.0"
"1572977927293","2935456.0"
"1572977927615","2979677.0"
"1572977927638","2953453.0"
"1572977927710","2938083.0"
"1572977927731","2936661.0"
"1572977927770","2940233.0"
"1572977927825","2947082.0"
"1572977927870","2955507.0"
"1572977927922","2959687.0"
"1572977927972","2969195.0"
"1572977928012","2978358.0"
"1572977928067","2987981.0"
"1572977928114","3001236.0"
"1572977928336","3013969.0"
"1572977928336","3027208.0"
"1572977928336","3040081.0"
"1572977928336","3032504.0"
"1572977928376","3007918.0"
"1572977928457","2996658.0"
"1572977928457","2996380.0"
"1572977928496","2999190.0"
"1572977928546","3008526.0"
"1572977928593","3010598.0"
"1572977928642","3013632.0"
"1572977928692","3018520.0"
"1572977928746","3026921.0"
"1572977928795","3040296.0"
"1572977928841","3050691.0"
"1572977928891","3062247.0"
"1572977928932","3070203.0"
"1572977928988","3058450.0"
"1572977929035","3031619.0"
"1572977929082","3020420.0"
"1572977929131","3021208.0"
"1572977929174","3026444.0"
"1572977929230","3027155.0"
"1572977929272","3027043.0"
"1572977929323","3025907.0"
"1572977929374","3027874.0"
"1572977929423","3032659.0"
"1572977929466","3040540.0"
"1572977929513","3050109.0"
"1572977929561","3058050.0"
"1572977929610","3049937.0"
"1572977929658","3021954.0"
"1572977929707","3001841.0"
"1572977929754","2996104.0"
"1572977929803","2995202.0"
"1572977929852","2994092.0"
"1572977929907","2995705.0"
"1572977929954","2991804.0"
"1572977930001","2984252.0"
"1572977930053","2984929.0"
"1572977930093","2987373.0"
"1572977930149","2991500.0"
"1572977930193","2994039.0"
"1572977930467","2994708.0"
"1572977930467","2965520.0"
"1572977930467","2932640.0"
"1572977930467","2920858.0"
"1572977930467","2914271.0"
"1572977930514","2910240.0"
"1572977930538","2911020.0"
"1572977930616","2909598.0"
"1572977930635","2917140.0"
"1572977930673","2923467.0"
"1572977930723","2932709.0"
"1572977930773","2940649.0"
"1572977930819","2949361.0"
"1572977930868","2958142.0"
"1572977930915","2948356.0"
"1572977930965","2910023.0"
"1572977931013","2883443.0"
"1572977931061","2871419.0"
"1572977931110","2865024.0"
"1572977931157","2862967.0"
"1572977931205","2861234.0"
"1572977931254","2858002.0"
"1572977931303","2859326.0"
"1572977931353","2861425.0"
"1572977931401","2864278.0"
"1572977931658","2874957.0"
"1572977931658","2880930.0"
"1572977931658","2887172.0"
"1572977931658","2891349.0"
"1572977931658","2862405.0"
"1572977931737","2836321.0"
"1572977931753","2824608.0"
"1572977931790","2821315.0"
"1572977931835","2824478.0"
"1572977931884","2826664.0"
"1572977931933","2826967.0"
"1572977931980","2828225.0"
"1572977932030","2833676.0"
"1572977932076","2841400.0"
"1572977932126","2848526.0"
"1572977932175","2861027.0"
"1572977932219","2868941.0"
"1572977932278","2878346.0"
"1572977932317","2878650.0"
"1572977932369","2855245.0"
"1572977932416","2834482.0"
"1572977932465","2830963.0"
"1572977932514","2828570.0"
"1572977932567","2832940.0"
"1572977932610","2837152.0"
"1572977932661","2839277.0"
"1572977932714","2842709.0"
"1572977932754","2849895.0"
"1572977932802","2859682.0"
"1572977932852","2869036.0"
"1572977932899","2880367.0"
"1572977932948","2891704.0"
"1572977932996","2904206.0"
"1572977933045","2904890.0"
"1572977933094","2883175.0"
"1572977933139","2868187.0"
"1572977933194","2863697.0"
"1572977933293","2865533.0"
"1572977933294","2870440.0"
"1572977933354","2876596.0"
"1572977933381","2878476.0"
"1572977933432","2886564.0"
"1572977933480","2908046.0"
"1572977933528","2978653.0"
"1572977933580","3068574.0"
"1572977933923","3139667.0"
"1572977933923","3191844.0"
"1572977933923","3242530.0"
"1572977933924","3251945.0"
"1572977933925","3242410.0"
"1572977933926","3262459.0"
"1572977933927","3287356.0"
"1572977933988","3313538.0"
"1572977934072","3320706.0"
"1572977934074","3298895.0"
"1572977934109","3278724.0"
"1572977934158","3246778.0"
"1572977934206","3232682.0"
"1572977934258","3254928.0"
"1572977934302","3263934.0"
"1572977934351","3250748.0"
"1572977934399","3237363.0"
"1572977934449","3177793.0"
"1572977934496","3110540.0"
"1572977934545","3085608.0"
"1572977934593","3078170.0"
"1572977934640","3080935.0"
"1572977934691","3071963.0"
"1572977934739","3043886.0"
"1572977934790","3014135.0"
"1572977934837","2992696.0"
"1572977934883","2973635.0"
"1572977934932","2958222.0"
"1572977934980","2949449.0"
"1572977935029","2944004.0"
"1572977935077","2954892.0"
"1572977935125","3018504.0"
"1572977935173","3127661.0"
"1572977935221","3232501.0"
"1572977935271","3331299.0"
"1572977935321","3398838.0"
"1572977935370","3439485.0"
"1572977935418","3402365.0"
"1572977935464","3370932.0"
"1572977935513","3345013.0"
"1572977935560","3322969.0"
"1572977935610","3298029.0"
"1572977935656","3286117.0"
"1572977935707","3279140.0"
"1572977935754","3265920.0"
"1572977935803","3220910.0"
"1572977935852","3185101.0"
"1572977935901","3206806.0"
"1572977935949","3288224.0"
"1572977935999","3459935.0"
"1572977936045","3681198.0"
"1572977936094","3800445.0"
"1572977936139","3849744.0"
"1572977936191","3898402.0"
"1572977936238","3865557.0"
"1572977936292","3767348.0"
"1572977936335","3714001.0"
"1572977936384","3667925.0"
"1572977936432","3576565.0"
"1572977936481","3531201.0"
"1572977936530","3529085.0"
"1572977936580","3521353.0"
"1572977936626","3509745.0"
"1572977936674","3472062.0"
"1572977936722","3440144.0"
"1572977936770","3406293.0"
"1572977936822","3362334.0"
"1572977936872","3339318.0"
"1572977936923","3316467.0"
"1572977936972","3298878.0"
"1572977937020","3270723.0"
"1572977937060","3216499.0"
"1572977937114","3149324.0"
"1572977937155","3104377.0"
"1572977937211","3071071.0"
"1572977937253","3044736.0"
"1572977937302","3009314.0"
"1572977937352","2972515.0"
"1572977937402","2933784.0"
"1572977937449","2912631.0"
"1572977937495","2899456.0"
"1572977937544","2893100.0"
"1572977937593","2888939.0"
"1572977937641","2894522.0"
"1572977937695","2894445.0"
"1572977937745","2861919.0"
"1572977937799","2840793.0"
"1572977937841","2833954.0"
"1572977937881","2834127.0"
"1572977937938","2838184.0"
"1572977937984","2837351.0"
"1572977938035","2827617.0"
"1572977938083","2821532.0"
"1572977938125","2819348.0"
"1572977938170","2823655.0"
"1572977938223","2830746.0"
"1572977938280","2833936.0"
"1572977938395","2830565.0"
"1572977938396","2807470.0"
"1572977938421","2798169.0"
"1572977938501","2803110.0"
"1572977938515","2779625.0"
"1572977938563","2777894.0"
"1572977938609","2776094.0"
"1572977938665","2773912.0"
"1572977938712","2779414.0"
"1572977938761","2801854.0"
"1572977938810","2825144.0"
"1572977938858","2844184.0"
"1572977938906","2867697.0"
"1572977938952","2882110.0"
"1572977939002","2880044.0"
"1572977939042","2893273.0"
"1572977939094","2915659.0"
"1572977939145","2933548.0"
"1572977939198","2961259.0"
"1572977939244","2985171.0"
"1572977939284","3016476.0"
"1572977939341","3041332.0"
"1572977939382","3074167.0"
"1572977939437","3125764.0"
"1572977939479","3188055.0"
"1572977939527","3254651.0"
"1572977939573","3253345.0"
"1572977939625","3256972.0"
"1572977939673","3280473.0"
"1572977939724","3300026.0"
"1572977939770","3334109.0"
"1572977939818","3348630.0"
"1572977939869","3367773.0"
"1572977939915","3383781.0"
"1572977939964","3401136.0"
"1572977940018","3427273.0"
"1572977940061","3456188.0"
"1572977940108","3480360.0"
"1572977940157","3489867.0"
"1572977940207","3486766.0"
"1572977940253","3472483.0"
"1572977940306","3465201.0"
"1572977940364","3463058.0"
"1572977940400","3460945.0"
"1572977940452","3459705.0"
"1572977940502","3458631.0"
"1572977940548","3458070.0"
"1572977940593","3458371.0"
"1572977940649","3460931.0"
"1572977940696","3465022.0"
"1572977940744","3472264.0"
"1572977940794","3494375.0"
"1572977940843","3542009.0"
"1572977940887","3649436.0"
"1572977940932","3774027.0"
"1572977940986","3947394.0"
"1572977941032","4047244.0"
"1572977941083","4125159.0"
"1572977941126","4187554.0"
"1572977941180","4277176.0"
"1572977941227","4322149.0"
"1572977941277","4365372.0"
"1572977941324","4381149.0"
"1572977941367","4414177.0"
"1572977941415","4400680.0"
"1572977941466","4296092.0"
"1572977941512","4233146.0"
"1572977941560","4185218.0"
"1572977941609","4152277.0"
"1572977941656","4122646.0"
"1572977941707","4102204.0"
"1572977941753","4087919.0"
"1572977941803","4072992.0"
"1572977941856","4049568.0"
"1572977941906","4022739.0"
"1572977941953","3952782.0"
"1572977942003","3860138.0"
"1572977942048","3737075.0"
"1572977942093","3637741.0"
"1572977942149","3555084.0"
"1572977942188","3482821.0"
"1572977942243","3422417.0"
"1572977942291","3378968.0"
"1572977942339","3334428.0"
"1572977942390","3292003.0"
"1572977942434","3256064.0"
"1572977942485","3220616.0"
"1572977942528","3196777.0"
"1572977942576","3174802.0"
"1572977942624","3119321.0"
"1572977942672","3049884.0"
"1572977942720","3005734.0"
"1572977942772","2986179.0"
"1572977942816","2975065.0"
"1572977942869","2968962.0"
"1572977942913","2948685.0"
"1572977942962","2915614.0"
"1572977943015","2884138.0"
"1572977943067","2853441.0"
"1572977943110","2832264.0"
"1572977943158","2811294.0"
"1572977943210","2774434.0"
"1572977943251","2744649.0"
"1572977943307","2722639.0"
"1572977943351","2715018.0"
"1572977943402","2697049.0"
"1572977943450","2715062.0"
"1572977943500","2724931.0"
"1572977943548","2727783.0"
"1572977943591","2730254.0"
"1572977943646","2738419.0"
"1572977943690","2788866.0"
"1572977943740","2855887.0"
"1572977943784","2885095.0"
"1572977943835","2883269.0"
"1572977943881","2880325.0"
"1572977943929","2864284.0"
"1572977943977","2852272.0"
"1572977944026","2886765.0"
"1572977944074","2900179.0"
"1572977944121","2935623.0"
"1572977944173","3000529.0"
"1572977944219","3067201.0"
"1572977944276","3108039.0"
"1572977944314","3149724.0"
"1572977944373","3174156.0"
"1572977944414","3171145.0"
"1572977944468","3148990.0"
"1572977944512","3117442.0"
"1572977944563","3070575.0"
"1572977944606","3013896.0"
"1572977944654","2990612.0"
"1572977944702","2970697.0"
"1572977944749","2965839.0"
"1572977944798","2959193.0"
"1572977944848","2957598.0"
"1572977944895","2959843.0"
"1572977944951","2960453.0"
"1572977944992","2948935.0"
"1572977945038","2946791.0"
"1572977945091","2951562.0"
"1572977945134","2957147.0"
"1572977945184","2963224.0"
"1572977945231","2963943.0"
"1572977945280","2966186.0"
"1572977945334","2970902.0"
"1572977945377","3008420.0"
"1572977945431","3051070.0"
"1572977945475","3071185.0"
"1572977945525","3086205.0"
"1572977945572","3097073.0"
"1572977945621","3104130.0"
"1572977945673","3106403.0"
"1572977945718","3111775.0"
"1572977945767","3116860.0"
"1572977945813","3127474.0"
"1572977945863","3136967.0"
"1572977945911","3148609.0"
"1572977945960","3159133.0"
"1572977946008","3168394.0"
"1572977946055","3174347.0"
"1572977946105","3174430.0"
"1572977946152","3173109.0"
"1572977946208","3173697.0"
"1572977946256","3177837.0"
"1572977946298","3180836.0"
"1572977946353","3179843.0"
"1572977946397","3179891.0"
"1572977946450","3179849.0"
"1572977946491","3180548.0"
"1572977946545","3189384.0"
"1572977946590","3181547.0"
"1572977946638","3155472.0"
"1572977946692","3147164.0"
"1572977946732","3145815.0"
"1572977946785","3142393.0"
"1572977946834","3154911.0"
"1572977946877","3169133.0"
"1572977946927","3178973.0"
"1572977946974","3181348.0"
"1572977947023","3204597.0"
"1572977947073","3216936.0"
"1572977947120","3236482.0"
"1572977947168","3237495.0"
"1572977947216","3242894.0"
"1572977947265","3261181.0"
"1572977947312","3278565.0"
"1572977947364","3301073.0"
"1572977947420","3314255.0"
"1572977947472","3305652.0"
"1572977947512","3303797.0"
"1572977947555","3343581.0"
"1572977947605","3396654.0"
"1572977947655","3501385.0"
"1572977947706","3640313.0"
"1572977947755","3760353.0"
"1572977947808","3835662.0"
"1572977947851","4021784.0"
"1572977947892","4022052.0"
"1572977947949","3836168.0"
"1572977947996","3751415.0"
"1572977948045","3714458.0"
"1572977948090","3821098.0"
"1572977948141","3923707.0"
"1572977948194","3862804.0"
"1572977948235","3835127.0"
"1572977948285","3853886.0"
"1572977948332","3883178.0"
"1572977948378","3996298.0"
"1572977948429","4082592.0"
"1572977948475","4206027.0"
"1572977948524","4310552.0"
"1572977948575","4398470.0"
"1572977948621","4436075.0"
"1572977948669","4459125.0"
"1572977948717","4464318.0"
"1572977948768","4446685.0"
"1572977948824","4416658.0"
"1572977948869","4390954.0"
"1572977948915","4368260.0"
"1572977948958","4354232.0"
"1572977949008","4330107.0"
"1572977949056","4292417.0"
"1572977949104","4255236.0"
"1572977949153","4219233.0"
"1572977949200","4198611.0"
"1572977949249","4183415.0"
"1572977949301","4148679.0"
"1572977949352","4119344.0"
"1572977949400","4099232.0"
"1572977949448","4114557.0"
"1572977949495","4208095.0"
"1572977949542","4230755.0"
"1572977949590","4248092.0"
"1572977949640","4238973.0"
"1572977949692","4286329.0"
"1572977949735","4258149.0"
"1572977949785","4192932.0"
"1572977949834","4262284.0"
"1572977949876","4209820.0"
"1572977949934","4178456.0"
"1572977949980","4177026.0"
"1572977950029","4155483.0"
"1572977950075","4119594.0"
"1572977950124","4107962.0"
"1572977950166","4140860.0"
"1572977950217","4128367.0"
"1572977950263","4118304.0"
"1572977950313","4129771.0"
"1572977950360","4131246.0"
"1572977950410","4183795.0"
"1572977950458","4249732.0"
"1572977950506","4240229.0"
"1572977950570","4278068.0"
"1572977950602","4283174.0"
"1572977950653","4170412.0"
"1572977950697","4099805.0"
"1572977950749","4084356.0"
"1572977950799","4067348.0"
"1572977950851","4038499.0"
"1572977950899","4030177.0"
"1572977950938","4043093.0"
"1572977950990","4026189.0"
"1572977951034","4001942.0"
"1572977951093","3977591.0"
"1572977951134","3943775.0"
"1572977951182","3928309.0"
"1572977951231","3906291.0"
"1572977951279","3900822.0"
"1572977951329","3889594.0"
"1572977951379","3883231.0"
"1572977951432","3860711.0"
"1572977951480","3829997.0"
"1572977951525","3779137.0"
"1572977951572","3673933.0"
"1572977951623","3616554.0"
"1572977951673","3586681.0"
"1572977951721","3568373.0"
"1572977951763","3608007.0"
"1572977951818","3560823.0"
"1572977951858","3597665.0"
"1572977951913","3619606.0"
"1572977951959","3660860.0"
"1572977952006","3731781.0"
"1572977952058","3791370.0"
"1572977952104","3828514.0"
"1572977952155","3759252.0"
"1572977952198","3679888.0"
"1572977952253","3626880.0"
"1572977952299","3604278.0"
"1572977952349","3594882.0"
"1572977952399","3582589.0"
"1572977952440","3567004.0"
"1572977952489","3631213.0"
"1572977952538","3663514.0"
"1572977952592","3664761.0"
"1572977952633","3642152.0"
"1572977952681","3661285.0"
"1572977952731","3717796.0"
"1572977952781","3773580.0"
"1572977952828","3851288.0"
"1572977952875","3905320.0"
"1572977952923","3962638.0"
"1572977952979","3999490.0"
"1572977953020","4039860.0"
"1572977953079","4071726.0"
"1572977953124","4100254.0"
"1572977953169","4110728.0"
"1572977953218","4106028.0"
"1572977953261","4103237.0"
"1572977953318","4097334.0"
"1572977953364","4097879.0"
"1572977953407","4077299.0"
"1572977953462","4046145.0"
"1572977953500","4018222.0"
"1572977953557","3966971.0"
"1572977953603","3928431.0"
"1572977953649","3908717.0"
"1572977953696","3934845.0"
"1572977953744","3954159.0"
"1572977953793","3970362.0"
"1572977953842","3956935.0"
"1572977953890","3924937.0"
"1572977953938","3901316.0"
"1572977953988","3909030.0"
"1572977954034","3919581.0"
"1572977954082","3893556.0"
"1572977954137","3873696.0"
"1572977954183","3834209.0"
"1572977954232","3782223.0"
"1572977954282","3712674.0"
"1572977954325","3657843.0"
"1572977954372","3620482.0"
"1572977954425","3613911.0"
"1572977954470","3572404.0"
"1572977954516","3519577.0"
"1572977954567","3459598.0"
"1572977954615","3450981.0"
"1572977954663","3446420.0"
"1572977954712","3459624.0"
"1572977954764","3489322.0"
"1572977954808","3467885.0"
"1572977954856","3438939.0"
"1572977954904","3481764.0"
"1572977954959","3462259.0"
"1572977955003","3371895.0"
"1572977955053","3326384.0"
"1572977955099","3329540.0"
"1572977955154","3304842.0"
"1572977955202","3318660.0"
"1572977955242","3325171.0"
"1572977955300","3306861.0"
"1572977955348","3274812.0"
"1572977955394","3259131.0"
"1572977955443","3237859.0"
"1572977955484","3228539.0"
"1572977955533","3216256.0"
"1572977955587","3205810.0"
"1572977955630","3189209.0"
"1572977955677","3187588.0"
"1572977955728","3161461.0"
"1572977955774","3143196.0"
"1572977955828","3107896.0"
"1572977955872","3085807.0"
"1572977955919","3066172.0"
"1572977955969","3059655.0"
"1572977956019","3045420.0"
"1572977956067","3025777.0"
"1572977956119","3017506.0"
"1572977956166","3011065.0"
"1572977956215","3010736.0"
"1572977956259","3013424.0"
"1572977956315","3021216.0"
"1572977956361","3027789.0"
"1572977956407","3036655.0"
"1572977956452","3040461.0"
"1572977956500","3049693.0"
"1572977956552","3051081.0"
"1572977956597","3034835.0"
"1572977956644","3007642.0"
"1572977956697","2995523.0"
"1572977956746","2990053.0"
"1572977956798","2990634.0"
"1572977956844","2988960.0"
"1572977956886","2987548.0"
"1572977956935","2981999.0"
"1572977956985","2986142.0"
"1572977957034","2979712.0"
"1572977957081","2977501.0"
"1572977957129","2974086.0"
"1572977957177","2974726.0"
"1572977957227","2981272.0"
"1572977957274","2979009.0"
"1572977957327","2958681.0"
"1572977957378","2937027.0"
"1572977957426","2932579.0"
"1572977957467","2933359.0"
"1572977957518","2936151.0"
"1572977957576","2941958.0"
"1572977957618","2943353.0"
"1572977957668","2944958.0"
"1572977957714","2944524.0"
"1572977957763","2952326.0"
"1572977957809","2958360.0"
"1572977957861","2963057.0"
"1572977957909","2969421.0"
"1572977957950","2970652.0"
"1572977957998","2973919.0"
"1572977958050","2966924.0"
"1572977958095","2934702.0"
"1572977958145","2921006.0"
"1572977958193","2913515.0"
"1572977958241","2912321.0"
"1572977958290","2911445.0"
"1572977958337","2904482.0"
"1572977958386","2904691.0"
"1572977958442","2928079.0"
"1572977958490","2982538.0"
"1572977958540","3032070.0"
"1572977958585","3069139.0"
"1572977958631","3087490.0"
"1572977958683","3072719.0"
"1572977958730","3066130.0"
"1572977958772","3048185.0"
"1572977958822","2994265.0"
"1572977958870","2951174.0"
"1572977958918","2905602.0"
"1572977958968","2866618.0"
"1572977959014","2839537.0"
"1572977959064","2812637.0"
"1572977959112","2788807.0"
"1572977959160","2774521.0"
"1572977959209","2761752.0"
"1572977959257","2757010.0"
"1572977959310","2720577.0"
"1572977959352","2713488.0"
"1572977959413","2710641.0"
"1572977959451","2673745.0"
"1572977959505","2638295.0"
"1572977959552","2616484.0"
"1572977959596","2604795.0"
"1572977959651","2631082.0"
"1572977959691","2649992.0"
"1572977959748","2651633.0"
"1572977959791","2660996.0"
"1572977959843","2684647.0"
"1572977959889","2706492.0"
"1572977959939","2709402.0"
"1572977959984","2711031.0"
"1572977960031","2716013.0"
"1572977960079","2719181.0"
"1572977960133","2687433.0"
"1572977960176","2658011.0"
"1572977960225","2654884.0"
"1572977960273","2659051.0"
"1572977960322","2651367.0"
"1572977960372","2633423.0"
"1572977960418","2615450.0"
"1572977960470","2603582.0"
"1572977960518","2597445.0"
"1572977960571","2581211.0"
"1572977960615","2569398.0"
"1572977960666","2567468.0"
"1572977960715","2562576.0"
"1572977960760","2530950.0"
"1572977960812","2502206.0"
"1572977960852","2479301.0"
"1572977960908","2461137.0"
"1572977960957","2445212.0"
"1572977960999","2429773.0"
"1572977961053","2417706.0"
"1572977961095","2401097.0"
"1572977961143","2389050.0"
"1572977961192","2420417.0"
"1572977961240","2471923.0"
"1572977961292","2504931.0"
"1572977961335","2523483.0"
"1572977961385","2522422.0"
"1572977961433","2496089.0"
"1572977961481","2471903.0"
"1572977961534","2461691.0"
"1572977961577","2457790.0"
"1572977961628","2458640.0"
"1572977961674","2460233.0"
"1572977961723","2465974.0"
"1572977961773","2494624.0"
"1572977961820","2541962.0"
"1572977961872","2594119.0"
"1572977961916","2659484.0"
"1572977961966","2721139.0"
"1572977962012","2780344.0"
"1572977962064","2831884.0"
"1572977962113","2878094.0"
"1572977962158","2941419.0"
"1572977962208","3003300.0"
"1572977962255","3057907.0"
"1572977962303","3126428.0"
"1572977962353","3184694.0"
"1572977962400","3241772.0"
"1572977962449","3298726.0"
"1572977962496","3347104.0"
"1572977962544","3393861.0"
"1572977962592","3440885.0"
"1572977962641","3484535.0"
"1572977962690","3519205.0"
"1572977962737","3546053.0"
"1572977962787","3562945.0"
"1572977962834","3582421.0"
"1572977962883","3561856.0"
"1572977962932","3539880.0"
"1572977962979","3514298.0"
"1572977963034","3485848.0"
"1572977963075","3468519.0"
"1572977963123","3486683.0"
"1572977963172","3476725.0"
"1572977963229","3474618.0"
"1572977963274","3510794.0"
"1572977963318","3509302.0"
"1572977963368","3509713.0"
"1572977963415","3484342.0"
"1572977963464","3405496.0"
"1572977963513","3350930.0"
"1572977963563","3356111.0"
"1572977963608","3376190.0"
"1572977963656","3425013.0"
"1572977963714","3439611.0"
"1572977963754","3423008.0"
"1572977963810","3426574.0"
"1572977963854","3411825.0"
"1572977963896","3402908.0"
"1572977963947","3383671.0"
"1572977963997","3369484.0"
"1572977964042","3325799.0"
"1572977964094","3330755.0"
"1572977964140","3294340.0"
"1572977964191","3253174.0"
"1572977964241","3202454.0"
"1572977964294","3195700.0"
"1572977964332","3196452.0"
"1572977964392","3185332.0"
"1572977964432","3174806.0"
"1572977964478","3170946.0"
"1572977964531","3173855.0"
"1572977964574","3178193.0"
"1572977964625","3188549.0"
"1572977964674","3200847.0"
"1572977964720","3202557.0"
"1572977964769","3178242.0"
"1572977964817","3157052.0"
"1572977964874","3149970.0"
"1572977964918","3149121.0"
"1572977964968","3152871.0"
"1572977965015","3154165.0"
"1572977965069","3152056.0"
"1572977965108","3148478.0"
"1572977965158","3145295.0"
"1572977965212","3147450.0"
"1572977965254","3146514.0"
"1572977965306","3149661.0"
"1572977965352","3140518.0"
"1572977965400","3104869.0"
"1572977965454","3082319.0"
"1572977965497","3068700.0"
"1572977965542","3068220.0"
"1572977965595","3078288.0"
"1572977965639","3089586.0"
"1572977965689","3095822.0"
"1572977965736","3101693.0"
"1572977965786","3108646.0"
"1572977965836","3117407.0"
"1572977965881","3126154.0"
"1572977965935","3133730.0"
"1572977965983","3135215.0"
"1572977966034","3109174.0"
"1572977966079","3090421.0"
"1572977966121","3085584.0"
"1572977966170","3086705.0"
"1572977966226","3096602.0"
"1572977966277","3106669.0"
"1572977966315","3115690.0"
"1572977966366","3125174.0"
"1572977966423","3145199.0"
"1572977966469","3161193.0"
"1572977966515","3172849.0"
"1572977966561","3185058.0"
"1572977966609","3186598.0"
"1572977966654","3164397.0"
"1572977966705","3147471.0"
"1572977966753","3142263.0"
"1572977966801","3146821.0"
"1572977966849","3150545.0"
"1572977966896","3148923.0"
"1572977966945","3149545.0"
"1572977966995","3150025.0"
"1572977967039","3151449.0"
"1572977967092","3155240.0"
"1572977967137","3168359.0"
"1572977967188","3182799.0"
"1572977967237","3194435.0"
"1572977967285","3177256.0"
"1572977967333","3162357.0"
"1572977967381","3157627.0"
"1572977967431","3159421.0"
"1572977967479","3163863.0"
"1572977967532","3169371.0"
"1572977967586","3172910.0"
"1572977967630","3177715.0"
"1572977967677","3180507.0"
"1572977967718","3187734.0"
"1572977967774","3196418.0"
"1572977967822","3206109.0"
"1572977967868","3217517.0"
"1572977967920","3207868.0"
"1572977967965","3190771.0"
"1572977968015","3182258.0"
"1572977968061","3183908.0"
"1572977968105","3186263.0"
"1572977968153","3188985.0"
"1572977968203","3192216.0"
"1572977968261","3194837.0"
"1572977968315","3199683.0"
"1572977968348","3203419.0"
"1572977968398","3209908.0"
"1572977968445","3214896.0"
"1572977968493","3220323.0"
"1572977968540","3216237.0"
"1572977968594","3196200.0"
"1572977968640","3184113.0"
"1572977968687","3178788.0"
"1572977968734","3185688.0"
"1572977968783","3193331.0"
"1572977968836","3196050.0"
"1572977968878","3196741.0"
"1572977968928","3201737.0"
"1572977968981","3207204.0"
"1572977969036","3211879.0"
"1572977969078","3215867.0"
"1572977969126","3220687.0"
"1572977969174","3219728.0"
"1572977969222","3196596.0"
"1572977969269","3180548.0"
"1572977969319","3177337.0"
"1572977969368","3181259.0"
"1572977969417","3187768.0"
"1572977969458","3192421.0"
"1572977969514","3200928.0"
"1572977969568","3209299.0"
"1572977969607","3215425.0"
"1572977969658","3219476.0"
"1572977969707","3221152.0"
"1572977969756","3226544.0"
"1572977969800","3227899.0"
"1572977969847","3197281.0"
"1572977969895","3159976.0"
"1572977969944","3139779.0"
"1572977969992","3133525.0"
"1572977970041","3129801.0"
"1572977970094","3128076.0"
"1572977970142","3122082.0"
"1572977970187","3119097.0"
"1572977970236","3114985.0"
"1572977970282","3112322.0"
"1572977970334","3114382.0"
"1572977970383","3115956.0"
"1572977970430","3118823.0"
"1572977970479","3105869.0"
"1572977970532","3071806.0"
"1572977970578","3052330.0"
"1572977970624","3050420.0"
"1572977970674","3055266.0"
"1572977970721","3064218.0"
"1572977970771","3067564.0"
"1572977970819","3066223.0"
"1572977970865","3070425.0"
"1572977970915","3074537.0"
"1572977970966","3077071.0"
"1572977971006","3082565.0"
"1572977971061","3089410.0"
"1572977971104","3092372.0"
"1572977971152","3065949.0"
"1572977971199","3039483.0"
"1572977971249","3029424.0"
"1572977971297","3032025.0"
"1572977971347","3037342.0"
"1572977971393","3041147.0"
"1572977971442","3040778.0"
"1572977971495","3042625.0"
"1572977971549","3044063.0"
"1572977971590","3049831.0"
"1572977971640","3056032.0"
"1572977971689","3060167.0"
"1572977971735","3064978.0"
"1572977971785","3043275.0"
"1572977971834","3021505.0"
"1572977971874","3019109.0"
"1572977971924","3028055.0"
"1572977971978","3042612.0"
"1572977972028","3051446.0"
"1572977972075","3050337.0"
"1572977972124","3056388.0"
"1572977972172","3060488.0"
"1572977972219","3068631.0"
"1572977972266","3078773.0"
"1572977972313","3086514.0"
"1572977972363","3085775.0"
"1572977972410","3049339.0"
"1572977972457","3013142.0"
"1572977972508","2999673.0"
"1572977972561","2998974.0"
"1572977972603","3002150.0"
"1572977972651","3004210.0"
"1572977972704","2997839.0"
"1572977972753","2993958.0"
"1572977972793","2989230.0"
"1572977972844","2987554.0"
"1572977972893","2985711.0"
"1572977972944","2989285.0"
"1572977972990","2987142.0"
"1572977973038","2956133.0"
"1572977973090","2934897.0"
"1572977973137","2937183.0"
"1572977973185","2950625.0"
"1572977973235","2961095.0"
"1572977973284","2967925.0"
"1572977973333","2969520.0"
"1572977973379","2973312.0"
"1572977973423","2976617.0"
"1572977973477","2983523.0"
"1572977973533","2988984.0"
"1572977973576","2999619.0"
"1572977973624","3008111.0"
"1572977973672","2985138.0"
"1572977973715","2962649.0"
"1572977973766","2961115.0"
"1572977973811","2970861.0"
"1572977973859","2982330.0"
"1572977973906","2995821.0"
"1572977973955","3010732.0"
"1572977974004","3019897.0"
"1572977974055","3024735.0"
"1572977974101","3027809.0"
"1572977974154","3034030.0"
"1572977974201","3037758.0"
"1572977974247","3013792.0"
"1572977974298","2975809.0"
"1572977974351","2960568.0"
"1572977974396","2960883.0"
"1572977974451","2965530.0"
"1572977974487","2964386.0"
"1572977974543","2961505.0"
"1572977974586","2952992.0"
"1572977974640","2947175.0"
"1572977974688","2948912.0"
"1572977974735","2952553.0"
"1572977974786","2956757.0"
"1572977974829","2947202.0"
"1572977974882","2931927.0"
"1572977974927","2929546.0"
"1572977974972","2933493.0"
"1572977975019","2946614.0"
"1572977975070","2958303.0"
"1572977975116","2962929.0"
"1572977975167","2963244.0"
"1572977975213","2964776.0"
"1572977975261","2970821.0"
"1572977975311","2980469.0"
"1572977975365","2990837.0"
"1572977975409","2998324.0"
"1572977975454","2971648.0"
"1572977975510","2951261.0"
"1572977975555","2950337.0"
"1572977975599","2960629.0"
"1572977975648","2974618.0"
"1572977975703","2986430.0"
"1572977975752","2996354.0"
"1572977975794","3006394.0"
"1572977975841","3020678.0"
"1572977975889","3035001.0"
"1572977975945","3049250.0"
"1572977975989","3059084.0"
"1572977976048","3036802.0"
"1572977976090","3015442.0"
"1572977976130","3013327.0"
"1572977976180","3023689.0"
"1572977976228","3031237.0"
"1572977976276","3042454.0"
"1572977976324","3034802.0"
"1572977976373","3028439.0"
"1572977976421","3023894.0"
"1572977976472","3022449.0"
"1572977976517","3026980.0"
"1572977976570","3028746.0"
"1572977976618","3008796.0"
"1572977976670","2974543.0"
"1572977976713","2962566.0"
"1572977976765","2952287.0"
"1572977976812","2954731.0"
"1572977976860","2950727.0"
"1572977976912","2926720.0"
"1572977976952","2900213.0"
"1572977977009","2890831.0"
"1572977977053","2900595.0"
"1572977977099","2906359.0"
"1572977977152","2929525.0"
"1572977977198","2962218.0"
"1572977977246","2935424.0"
"1572977977296","2909047.0"
"1572977977347","2921380.0"
"1572977977391","2932843.0"
"1572977977437","2955306.0"
"1572977977486","2973216.0"
"1572977977535","3009946.0"
"1572977977582","3049969.0"
"1572977977630","3094972.0"
"1572977977679","3154726.0"
"1572977977727","3243847.0"
"1572977977775","3355434.0"
"1572977977831","3442883.0"
"1572977977872","3342492.0"
"1572977977927","3321433.0"
"1572977977974","3256445.0"
"1572977978023","3241203.0"
"1572977978072","3313645.0"
"1572977978115","3420011.0"
"1572977978168","3557270.0"
"1572977978221","3628377.0"
"1572977978258","3650803.0"
"1572977978311","3685016.0"
"1572977978356","3698765.0"
"1572977978409","3654013.0"
"1572977978456","3571403.0"
"1572977978507","3462832.0"
"1572977978560","3394375.0"
"1572977978603","3352389.0"
"1572977978654","3319306.0"
"1572977978693","3293901.0"
"1572977978749","3263666.0"
"1572977978793","3245714.0"
"1572977978838","3225189.0"
"1572977978887","3217991.0"
"1572977978935","3208608.0"
"1572977978984","3205390.0"
"1572977979034","3188829.0"
"1572977979080","3144823.0"
"1572977979130","3107325.0"
"1572977979176","3092221.0"
"1572977979226","3087116.0"
"1572977979280","3090956.0"
"1572977979321","3087705.0"
"1572977979378","3086159.0"
"1572977979421","3085728.0"
"1572977979472","3090346.0"
"1572977979518","3099142.0"
"1572977979572","3108270.0"
"1572977979618","3111767.0"
"1572977979666","3077658.0"
"1572977979714","3046095.0"
"1572977979761","3031531.0"
"1572977979805","3027781.0"
"1572977979851","3034796.0"
"1572977979899","3043323.0"
"1572977979954","3071012.0"
"1572977979997","3215737.0"
"1572977980046","3324521.0"
"1572977980096","3385443.0"
"1572977980144","3455483.0"
"1572977980193","3530888.0"
"1572977980240","3598059.0"
"1572977980288","3643631.0"
"1572977980336","3659845.0"
"1572977980385","3653644.0"
"1572977980432","3641886.0"
"1572977980489","3631471.0"
"1572977980534","3614189.0"
"1572977980585","3584981.0"
"1572977980630","3563136.0"
"1572977980673","3541871.0"
"1572977980731","3529518.0"
"1572977980781","3527102.0"
"1572977980827","3497299.0"
"1572977980872","3440981.0"
"1572977980919","3410732.0"
"1572977980975","3402697.0"
"1572977981020","3407447.0"
"1572977981069","3404783.0"
"1572977981111","3404956.0"
"1572977981157","3400643.0"
"1572977981208","3401396.0"
"1572977981254","3402930.0"
"1572977981303","3408597.0"
"1572977981352","3414296.0"
"1572977981399","3398680.0"
"1572977981448","3360826.0"
"1572977981496","3345627.0"
"1572977981553","3341261.0"
"1572977981596","3341287.0"
"1572977981640","3342171.0"
"1572977981696","3345763.0"
"1572977981742","3346887.0"
"1572977981789","3352840.0"
"1572977981835","3354550.0"
"1572977981888","3363086.0"
"1572977981936","3372468.0"
"1572977981987","3346688.0"
"1572977982035","3309218.0"
"1572977982074","3300301.0"
"1572977982126","3300985.0"
"1572977982182","3308970.0"
"1572977982228","3314645.0"
"1572977982277","3318887.0"
"1572977982318","3318477.0"
"1572977982367","3333124.0"
"1572977982415","3349369.0"
"1572977982463","3427258.0"
"1572977982512","3512949.0"
"1572977982563","3543755.0"
"1572977982613","3566352.0"
"1572977982659","3589477.0"
"1572977982706","3605820.0"
"1572977982760","3629683.0"
"1572977982800","3659558.0"
"1572977982857","3701256.0"
"1572977982898","3741033.0"
"1572977982949","3794448.0"
"1572977982997","3846036.0"
"1572977983051","3885710.0"
"1572977983092","3900493.0"
"1572977983140","3844750.0"
"1572977983193","3808040.0"
"1572977983235","3763774.0"
"1572977983283","3745365.0"
"1572977983339","3735413.0"
"1572977983388","3690977.0"
"1572977983436","3637650.0"
"1572977983477","3616394.0"
"1572977983529","3599995.0"
"1572977983577","3584296.0"
"1572977983623","3575873.0"
"1572977983670","3548428.0"
"1572977983720","3492185.0"
"1572977983769","3443746.0"
"1572977983817","3418396.0"
"1572977983865","3404188.0"
"1572977983912","3386368.0"
"1572977983967","3369669.0"
"1572977984014","3363393.0"
"1572977984061","3356379.0"
"1572977984109","3365248.0"
"1572977984154","3373064.0"
"1572977984207","3367834.0"
"1572977984258","3330974.0"
"1572977984307","3274081.0"
"1572977984355","3242983.0"
"1572977984399","3232465.0"
"1572977984453","3225067.0"
"1572977984500","3210154.0"
"1572977984548","3188309.0"
"1572977984590","3163678.0"
"1572977984639","3147910.0"
"1572977984691","3137261.0"
"1572977984740","3131554.0"
"1572977984784","3124065.0"
"1572977984833","3094432.0"
"1572977984880","3043919.0"
"1572977984930","3031702.0"
"1572977984978","3043289.0"
"1572977985029","3066579.0"
"1572977985073","3088696.0"
"1572977985121","3112116.0"
"1572977985171","3142209.0"
"1572977985220","3155480.0"
"1572977985271","3158026.0"
"1572977985322","3194556.0"
"1572977985365","3188254.0"
"1572977985419","3190424.0"
"1572977985463","3217621.0"
"1572977985517","3255131.0"
"1572977985564","3298096.0"
"1572977985608","3331275.0"
"1572977985661","3354504.0"
"1572977985703","3348945.0"
"1572977985758","3353880.0"
"1572977985800","3355154.0"
"1572977985855","3358622.0"
"1572977985901","3394259.0"
"1572977985949","3423788.0"
"1572977985992","3439880.0"
"1572977986039","3407918.0"
"1572977986094","3353866.0"
"1572977986134","3321530.0"
"1572977986184","3309259.0"
"1572977986232","3313111.0"
"1572977986279","3314822.0"
"1572977986329","3309265.0"
"1572977986380","3300075.0"
"1572977986426","3295796.0"
"1572977986475","3294374.0"
"1572977986522","3291910.0"
"1572977986571","3296227.0"
"1572977986624","3270030.0"
"1572977986669","3220289.0"
"1572977986717","3177291.0"
"1572977986767","3151366.0"
"1572977986813","3139082.0"
"1572977986860","3128596.0"
"1572977986911","3130916.0"
"1572977986963","3126229.0"
"1572977987008","3126420.0"
"1572977987055","3128104.0"
"1572977987106","3134031.0"
"1572977987150","3143982.0"
"1572977987202","3151195.0"
"1572977987248","3115526.0"
"1572977987297","3073901.0"
"1572977987347","3062389.0"
"1572977987393","3060329.0"
"1572977987441","3063438.0"
"1572977987492","3079129.0"
"1572977987541","3098567.0"
"1572977987587","3120048.0"
"1572977987636","3140949.0"
"1572977987685","3153399.0"
"1572977987733","3167038.0"
"1572977987781","3181876.0"
"1572977987830","3188691.0"
"1572977987878","3165060.0"
"1572977987927","3161323.0"
"1572977987975","3170076.0"
"1572977988024","3191915.0"
"1572977988072","3223397.0"
"1572977988123","3222767.0"
"1572977988169","3193256.0"
"1572977988216","3158601.0"
"1572977988265","3183073.0"
"1572977988313","3251854.0"
"1572977988364","3304878.0"
"1572977988411","3350574.0"
"1572977988457","3382952.0"
"1572977988507","3394005.0"
"1572977988555","3391260.0"
"1572977988604","3366889.0"
"1572977988652","3343148.0"
"1572977988701","3338721.0"
"1572977988749","3362011.0"
"1572977988796","3386908.0"
"1572977988848","3433520.0"
"1572977988893","3458952.0"
"1572977988944","3502795.0"
"1572977988990","3590873.0"
"1572977989038","3564340.0"
"1572977989090","3487388.0"
"1572977989134","3330468.0"
"1572977989183","3313666.0"
"1572977989231","3332295.0"
"1572977989278","3405106.0"
"1572977989329","3426883.0"
"1572977989376","3421265.0"
"1572977989426","3541099.0"
"1572977989473","3665895.0"
"1572977989532","3793387.0"
"1572977989575","3957412.0"
"1572977989627","4153951.0"
"1572977989670","4257095.0"
"1572977989723","4332288.0"
"1572977989768","4426575.0"
"1572977989811","4403124.0"
"1572977989866","4319280.0"
"1572977989909","4278684.0"
"1572977989956","4166700.0"
"1572977990008","3984101.0"
"1572977990053","3808014.0"
"1572977990108","3698127.0"
"1572977990151","3584532.0"
"1572977990199","3462406.0"
"1572977990249","3409326.0"
"1572977990294","3458271.0"
"1572977990348","3578558.0"
"1572977990398","3566640.0"
"1572977990448","3511645.0"
"1572977990491","3466575.0"
"1572977990546","3413306.0"
"1572977990587","3339735.0"
"1572977990639","3277249.0"
"1572977990688","3228436.0"
"1572977990735","3198407.0"
"1572977990785","3101663.0"
"1572977990826","3069051.0"
"1572977990881","3122537.0"
"1572977990930","3128683.0"
"1572977990978","3133539.0"
"1572977991027","3088938.0"
"1572977991069","2984157.0"
"1572977991113","2954615.0"
"1572977991167","2964055.0"
"1572977991211","3007278.0"
"1572977991259","3064240.0"
"1572977991311","3184642.0"
"1572977991356","3233385.0"
"1572977991408","3280700.0"
"1572977991454","3315799.0"
"1572977991503","3331161.0"
"1572977991551","3358277.0"
"1572977991600","3378665.0"
"1572977991648","3375173.0"
"1572977991696","3403971.0"
"1572977991749","3408079.0"
"1572977991798","3411842.0"
"1572977991848","3415552.0"
"1572977991890","3400104.0"
"1572977991945","3365115.0"
"1572977991989","3336622.0"
"1572977992041","3333319.0"
"1572977992082","3326029.0"
"1572977992132","3349504.0"
"1572977992186","3381258.0"
"1572977992229","3393871.0"
"1572977992278","3382550.0"
"1572977992329","3424540.0"
"1572977992373","3361485.0"
"1572977992428","3248676.0"
"1572977992473","3159588.0"
"1572977992522","3118992.0"
"1572977992573","3045022.0"
"1572977992616","2964280.0"
"1572977992664","2933636.0"
"1572977992712","2907639.0"
"1572977992760","2863254.0"
"1572977992811","2821896.0"
"1572977992856","2809022.0"
"1572977992906","2790991.0"
"1572977992953","2827296.0"
"1572977993007","2812923.0"
"1572977993051","2837170.0"
"1572977993101","2873396.0"
"1572977993149","2875798.0"
"1572977993193","2888228.0"
"1572977993243","2895876.0"
"1572977993293","2924897.0"
"1572977993349","2927490.0"
"1572977993396","2915978.0"
"1572977993438","2839649.0"
"1572977993494","2797874.0"
"1572977993533","2765592.0"
"1572977993581","2718017.0"
"1572977993637","2685458.0"
"1572977993685","2622746.0"
"1572977993730","2551078.0"
"1572977993778","2487271.0"
"1572977993831","2438855.0"
"1572977993872","2406007.0"
"1572977993927","2376230.0"
"1572977993974","2363073.0"
"1572977994016","2355425.0"
"1572977994066","2340347.0"
"1572977994113","2323132.0"
"1572977994162","2314087.0"
"1572977994211","2310005.0"
"1572977994258","2283635.0"
"1572977994306","2238315.0"
"1572977994354","2206799.0"
"1572977994403","2187881.0"
"1572977994452","2185882.0"
"1572977994506","2193349.0"
"1572977994555","2201126.0"
"1572977994602","2198686.0"
"1572977994653","2200309.0"
"1572977994694","2195163.0"
"1572977994749","2191691.0"
"1572977994790","2188174.0"
"1572977994845","2172395.0"
"1572977994890","2134716.0"
"1572977994935","2116079.0"
"1572977994991","2122575.0"
"1572977995032","2141070.0"
"1572977995085","2148630.0"
"1572977995133","2145361.0"
"1572977995181","2147752.0"
"1572977995228","2145225.0"
"1572977995274","2152557.0"
"1572977995323","2156550.0"
"1572977995373","2158279.0"
"1572977995419","2143101.0"
"1572977995468","2119887.0"
"1572977995515","2118247.0"
"1572977995567","2128828.0"
"1572977995614","2144284.0"
"1572977995666","2146891.0"
"1572977995718","2149404.0"
"1572977995761","2143126.0"
"1572977995808","2143603.0"
"1572977995858","2146056.0"
"1572977995910","2151367.0"
"1572977995954","2158315.0"
"1572977996005","2152675.0"
"1572977996052","2132073.0"
"1572977996094","2119820.0"
"1572977996153","2111057.0"
"1572977996192","2106402.0"
"1572977996248","2105849.0"
"1572977996291","2103745.0"
"1572977996335","2095225.0"
"1572977996385","2083399.0"
"1572977996434","2097052.0"
"1572977996483","2125238.0"
"1572977996534","2154097.0"
"1572977996578","2163108.0"
"1572977996628","2137665.0"
"1572977996675","2128958.0"
"1572977996725","2160223.0"
"1572977996773","2193875.0"
"1572977996820","2237338.0"
"1572977996875","2278389.0"
"1572977996922","2297386.0"
"1572977996970","2324563.0"
"1572977997013","2360273.0"
"1572977997066","2381976.0"
"1572977997118","2388738.0"
"1572977997158","2412174.0"
"1572977997207","2454334.0"
"1572977997255","2467921.0"
"1572977997306","2508818.0"
"1572977997356","2556361.0"
"1572977997400","2673477.0"
"1572977997453","2671532.0"
"1572977997501","2645475.0"
"1572977997553","2688640.0"
"1572977997595","2693997.0"
"1572977997649","2659539.0"
"1572977997691","2623989.0"
"1572977997739","2568850.0"
"1572977997788","2550521.0"
"1572977997836","2571556.0"
"1572977997885","2610033.0"
"1572977997934","2601587.0"
"1572977997980","2700485.0"
"1572977998033","2795223.0"
"1572977998076","2796653.0"
"1572977998133","2926147.0"
"1572977998178","3012605.0"
"1572977998229","3030290.0"
"1572977998273","3028264.0"
"1572977998324","3038177.0"
"1572977998369","3118754.0"
"1572977998419","3085033.0"
"1572977998471","3171108.0"
"1572977998516","3280792.0"
"1572977998563","3145825.0"
"1572977998612","3235002.0"
"1572977998656","3246829.0"
"1572977998712","3166835.0"
"1572977998757","3161293.0"
"1572977998810","3075200.0"
"1572977998858","3070661.0"
"1572977998899","3065293.0"
"1572977998948","3051863.0"
"1572977998996","3095677.0"
"1572977999043","3192890.0"
"1572977999091","3262748.0"
"1572977999141","3300786.0"
"1572977999190","3307473.0"
"1572977999238","3330316.0"
"1572977999288","3372249.0"
"1572977999342","3426608.0"
"1572977999390","3444280.0"
"1572977999437","3682889.0"
"1572977999480","3785514.0"
"1572977999534","3741793.0"
"1572977999585","3786721.0"
"1572977999623","3861329.0"
"1572977999679","3909640.0"
"1572977999727","3746129.0"
"1572977999776","3611784.0"
"1572977999816","3502327.0"
"1572977999872","3403257.0"
"1572977999914","3357633.0"
"1572977999968","3453856.0"
"1572978000010","3576720.0"
"1572978000060","3687316.0"
"1572978000108","3687974.0"
"1572978000159","3779372.0"
"1572978000204","3920770.0"
"1572978000252","3924012.0"
"1572978000298","3999126.0"
"1572978000350","4018492.0"
"1572978000398","3919002.0"
"1572978000452","3724566.0"
"1572978000500","3550752.0"
"1572978000551","3415237.0"
"1572978000595","3316756.0"
"1572978000639","3226071.0"
"1572978000696","3164092.0"
"1572978000739","3110473.0"
"1572978000789","3096122.0"
"1572978000839","3111361.0"
"1572978000880","3137068.0"
"1572978000933","3155870.0"
"1572978000979","3149100.0"
"1572978001031","3100621.0"
"1572978001082","3020629.0"
"1572978001128","2965825.0"
"1572978001170","2892448.0"
"1572978001221","2869156.0"
"1572978001267","2861470.0"
"1572978001315","2808951.0"
"1572978001364","2781324.0"
"1572978001412","2730642.0"
"1572978001460","2803437.0"
"1572978001510","2931013.0"
"1572978001562","2964240.0"
"1572978001610","3061558.0"
"1572978001661","3127684.0"
"1572978001701","3130268.0"
"1572978001754","3208478.0"
"1572978001799","3389338.0"
"1572978001853","3735068.0"
"1572978001901","3802463.0"
"1572978001948","3943885.0"
"1572978002000","4004532.0"
"1572978002049","3704701.0"
"1572978002090","3505011.0"
"1572978002142","3396719.0"
"1572978002191","3337898.0"
"1572978002240","3269762.0"
"1572978002280","3189050.0"
"1572978002337","3128990.0"
"1572978002382","3095298.0"
"1572978002427","3179650.0"
"1572978002475","3197417.0"
"1572978002524","3250241.0"
"1572978002572","3300632.0"
"1572978002623","3268093.0"
"1572978002669","3234056.0"
"1572978002717","3249477.0"
"1572978002766","3238576.0"
"1572978002819","3234332.0"
"1572978002860","3263880.0"
"1572978002917","3289955.0"
"1572978002961","3392625.0"
"1572978003008","3444181.0"
"1572978003055","3502120.0"
"1572978003107","3525542.0"
"1572978003151","3486984.0"
"1572978003201","3557245.0"
"1572978003249","3509908.0"
"1572978003304","3487213.0"
"1572978003351","3435782.0"
"1572978003394","3375041.0"
"1572978003440","3445977.0"
"1572978003497","3442811.0"
"1572978003549","3375585.0"
"1572978003587","3416758.0"
"1572978003634","3415450.0"
"1572978003682","3417171.0"
"1572978003738","3446757.0"
"1572978003786","3472107.0"
"1572978003829","3537405.0"
"1572978003876","3594114.0"
"1572978003925","3626561.0"
"1572978003973","3629070.0"
"1572978004022","3576919.0"
"1572978004070","3498335.0"
"1572978004117","3373870.0"
"1572978004168","3254517.0"
"1572978004214","3186228.0"
"1572978004263","3169255.0"
"1572978004319","3261249.0"
"1572978004366","3430519.0"
"1572978004415","3561959.0"
"1572978004462","3730135.0"
"1572978004508","3452487.0"
"1572978004557","3310860.0"
"1572978004607","3356019.0"
"1572978004657","3324068.0"
"1572978004705","3318294.0"
"1572978004749","3367905.0"
"1572978004801","3351054.0"
"1572978004846","3364668.0"
"1572978004899","3363011.0"
"1572978004943","3406884.0"
"1572978004992","3429869.0"
"1572978005033","3433104.0"
"1572978005083","3385520.0"
"1572978005133","3333347.0"
"1572978005185","3288187.0"
"1572978005230","3229513.0"
"1572978005277","3221298.0"
"1572978005328","3185089.0"
"1572978005374","3187612.0"
"1572978005424","3190282.0"
"1572978005477","3150990.0"
"1572978005524","3105615.0"
"1572978005570","3106685.0"
"1572978005624","3096850.0"
"1572978005665","3169668.0"
"1572978005719","3102372.0"
"1572978005768","3104117.0"
"1572978005813","3056717.0"
"1572978005863","3013713.0"
"1572978005905","2970038.0"
"1572978005960","2940604.0"
"1572978006006","2921224.0"
"1572978006048","2892348.0"
"1572978006100","2882543.0"
"1572978006149","2844604.0"
"1572978006195","2825925.0"
"1572978006245","2878626.0"
"1572978006290","2914622.0"
"1572978006339","2911563.0"
"1572978006389","2879483.0"
"1572978006436","2854808.0"
"1572978006485","2812938.0"
"1572978006552","2792888.0"
"1572978006586","2789172.0"
"1572978006628","2798006.0"
"1572978006682","2783863.0"
"1572978006726","2765789.0"
"1572978006782","2815408.0"
"1572978006822","2797364.0"
"1572978006875","2864436.0"
"1572978006926","2878336.0"
"1572978006968","2882511.0"
"1572978007020","2885418.0"
"1572978007073","2910852.0"
"1572978007120","2931557.0"
"1572978007168","2926401.0"
"1572978007213","2908755.0"
"1572978007257","2870641.0"
"1572978007309","2847961.0"
"1572978007362","2844611.0"
"1572978007406","2842331.0"
"1572978007457","2824066.0"
"1572978007500","2810849.0"
"1572978007549","2807942.0"
"1572978007596","2804018.0"
"1572978007646","2825947.0"
"1572978007693","2826055.0"
"1572978007742","2824594.0"
"1572978007791","2812846.0"
"1572978007839","2801111.0"
"1572978007887","2789134.0"
"1572978007942","2771449.0"
"1572978007982","2750675.0"
"1572978008037","2743921.0"
"1572978008080","2736302.0"
"1572978008132","2731820.0"
"1572978008177","2731743.0"
"1572978008228","2734053.0"
"1572978008273","2724721.0"
"1572978008329","2713372.0"
"1572978008369","2694875.0"
"1572978008425","2686791.0"
"1572978008468","2670468.0"
"1572978008515","2661786.0"
"1572978008571","2658222.0"
"1572978008613","2647170.0"
"1572978008667","2641432.0"
"1572978008710","2662920.0"
"1572978008756","2686652.0"
"1572978008806","2711161.0"
"1572978008853","2740969.0"
"1572978008902","2760817.0"
"1572978008949","2789723.0"
"1572978008998","2823446.0"
"1572978009047","2839730.0"
"1572978009094","2901130.0"
"1572978009143","2960186.0"
"1572978009190","2971485.0"
"1572978009246","3080543.0"
"1572978009294","3272248.0"
"1572978009342","3294774.0"
"1572978009391","3254058.0"
"1572978009432","3213251.0"
"1572978009480","3164444.0"
"1572978009535","3122765.0"
"1572978009586","3085836.0"
"1572978009630","3075212.0"
"1572978009673","3197945.0"
"1572978009734","3237751.0"
"1572978009772","3405324.0"
"1572978009819","3354130.0"
"1572978009874","3267498.0"
"1572978009916","3222032.0"
"1572978009965","3178922.0"
"1572978010011","3119138.0"
"1572978010067","3080045.0"
"1572978010117","3067540.0"
"1572978010162","3038648.0"
"1572978010208","3075013.0"
"1572978010254","3100322.0"
"1572978010303","3083266.0"
"1572978010351","3088514.0"
"1572978010399","3122588.0"
"1572978010451","3123584.0"
"1572978010496","3058781.0"
"1572978010544","3020789.0"
"1572978010593","2989360.0"
"1572978010640","2939672.0"
"1572978010696","2947872.0"
"1572978010742","2908166.0"
"1572978010789","2918806.0"
"1572978010840","2888210.0"
"1572978010891","2834523.0"
"1572978010930","2807200.0"
"1572978010987","2790586.0"
"1572978011034","2774609.0"
"1572978011085","2763587.0"
"1572978011134","2772559.0"
"1572978011177","2796913.0"
"1572978011229","2818505.0"
"1572978011270","2842784.0"
"1572978011326","2901948.0"
"1572978011367","2988312.0"
"1572978011415","3028376.0"
"1572978011464","3045548.0"
"1572978011513","3048005.0"
"1572978011563","3118695.0"
"1572978011614","3165689.0"
"1572978011657","3240405.0"
"1572978011707","3364081.0"
"1572978011754","3481094.0"
"1572978011803","3616893.0"
"1572978011858","3707838.0"
"1572978011905","3743987.0"
"1572978011951","3795043.0"
"1572978011995","3803741.0"
"1572978012052","3805852.0"
"1572978012093","3797378.0"
"1572978012147","3719450.0"
"1572978012196","3616885.0"
"1572978012241","3485354.0"
"1572978012290","3374498.0"
"1572978012333","3297046.0"
"1572978012390","3247488.0"
"1572978012439","3213886.0"
"1572978012487","3186588.0"
"1572978012531","3159058.0"
"1572978012584","3127690.0"
"1572978012624","3103238.0"
"1572978012680","3086088.0"
"1572978012727","3078698.0"
"1572978012775","3044677.0"
"1572978012817","2985880.0"
"1572978012866","2953325.0"
"1572978012914","2952224.0"
"1572978012962","2960172.0"
"1572978013011","2932291.0"
"1572978013061","2927571.0"
"1572978013113","2909604.0"
"1572978013155","2900953.0"
"1572978013204","2896692.0"
"1572978013253","2903706.0"
"1572978013306","2923014.0"
"1572978013353","2943144.0"
"1572978013400","2961854.0"
"1572978013453","2974222.0"
"1572978013498","2953701.0"
"1572978013559","2952890.0"
"1572978013590","2918148.0"
"1572978013638","2926409.0"
"1572978013689","2910744.0"
"1572978013737","2935511.0"
"1572978013791","2977893.0"
"1572978013838","3025731.0"
"1572978013886","3104790.0"
"1572978013933","3111842.0"
"1572978013980","3134789.0"
"1572978014034","3117968.0"
"1572978014079","3097707.0"
"1572978014122","3148649.0"
"1572978014171","3288594.0"
"1572978014218","3363758.0"
"1572978014268","3422411.0"
"1572978014316","3406923.0"
"1572978014364","3352500.0"
"1572978014412","3377060.0"
"1572978014460","3408146.0"
"1572978014514","3409952.0"
"1572978014555","3362933.0"
"1572978014608","3340897.0"
"1572978014657","3283667.0"
"1572978014709","3233176.0"
"1572978014755","3237284.0"
"1572978014803","3249920.0"
"1572978014853","3231225.0"
"1572978014895","3295087.0"
"1572978014943","3284081.0"
"1572978014989","3342648.0"
"1572978015040","3379539.0"
"1572978015089","3407939.0"
"1572978015139","3396091.0"
"1572978015188","3353715.0"
"1572978015237","3288478.0"
"1572978015282","3225177.0"
"1572978015330","3149330.0"
"1572978015378","3088826.0"
"1572978015428","3035713.0"
"1572978015474","2987272.0"
"1572978015524","2968425.0"
"1572978015572","2963033.0"
"1572978015620","2971170.0"
"1572978015670","3046215.0"
"1572978015715","3172849.0"
"1572978015769","3305941.0"
"1572978015820","3385636.0"
"1572978015869","3318775.0"
"1572978015918","3178648.0"
"1572978015959","3051530.0"
"1572978016013","2967147.0"
"1572978016061","2941255.0"
"1572978016105","2909980.0"
"1572978016158","2903393.0"
"1572978016203","2902383.0"
"1572978016256","2900173.0"
"1572978016301","2903316.0"
"1572978016351","2888915.0"
"1572978016400","2888708.0"
"1572978016446","2898927.0"
"1572978016502","2903905.0"
"1572978016541","2856834.0"
"1572978016588","2801594.0"
"1572978016638","2748235.0"
"1572978016685","2727208.0"
"1572978016733","2705546.0"
"1572978016781","2690127.0"
"1572978016829","2692083.0"
"1572978016879","2697730.0"
"1572978016929","2728218.0"
"1572978016979","2771242.0"
"1572978017031","2807346.0"
"1572978017080","2857730.0"
"1572978017123","2871558.0"
"1572978017176","2861409.0"
"1572978017222","2820914.0"
"1572978017272","2791994.0"
"1572978017317","2792827.0"
"1572978017361","2781301.0"
"1572978017410","2814734.0"
"1572978017463","2848780.0"
"1572978017510","2856811.0"
"1572978017561","2817940.0"
"1572978017608","2797929.0"
"1572978017652","2771380.0"
"1572978017705","2841979.0"
"1572978017751","2833489.0"
"1572978017800","2828617.0"
"1572978017846","2812363.0"
"1572978017894","2778051.0"
"1572978017943","2782746.0"
"1572978017991","2790932.0"
"1572978018039","2784054.0"
"1572978018088","2776582.0"
"1572978018136","2771303.0"
"1572978018190","2780674.0"
"1572978018240","2755080.0"
"1572978018281","2759111.0"
"1572978018339","2752357.0"
"1572978018381","2784950.0"
"1572978018433","2841874.0"
"1572978018482","2916756.0"
"1572978018524","2969931.0"
"1572978018574","3023650.0"
"1572978018628","3064884.0"
"1572978018677","3073040.0"
"1572978018723","3064840.0"
"1572978018772","3063340.0"
"1572978018820","3076221.0"
"1572978018870","3118435.0"
"1572978018917","3197815.0"
"1572978018961","3276501.0"
"1572978019008","3364386.0"
"1572978019053","3447086.0"
"1572978019105","3512899.0"
"1572978019150","3575419.0"
"1572978019203","3578426.0"
"1572978019250","3568583.0"
"1572978019297","3563580.0"
"1572978019347","3570509.0"
"1572978019394","3578855.0"
"1572978019443","3597029.0"
"1572978019491","3609297.0"
"1572978019541","3639655.0"
"1572978019586","3669662.0"
"1572978019642","3706262.0"
"1572978019687","3722028.0"
"1572978019740","3750849.0"
"1572978019782","3778783.0"
"1572978019829","3800720.0"
"1572978019884","3813278.0"
"1572978019928","3816675.0"
"1572978019974","3798739.0"
"1572978020023","3799763.0"
"1572978020072","3808071.0"
"1572978020121","3822114.0"
"1572978020174","3830450.0"
"1572978020222","3835989.0"
"1572978020268","3836288.0"
"1572978020319","3820078.0"
"1572978020365","3783724.0"
"1572978020407","3758659.0"
"1572978020457","3757494.0"
"1572978020507","3758581.0"
"1572978020554","3768541.0"
"1572978020608","3781934.0"
"1572978020651","3790845.0"
"1572978020699","3785545.0"
"1572978020748","3808444.0"
"1572978020793","3785161.0"
"1572978020846","3763346.0"
"1572978020894","3771654.0"
"1572978020942","3785780.0"
"1572978020992","3808926.0"
"1572978021046","3826090.0"
"1572978021083","3825470.0"
"1572978021141","3860526.0"
"1572978021183","3869208.0"
"1572978021238","3850660.0"
"1572978021286","3791717.0"
"1572978021333","3798454.0"
"1572978021382","3787639.0"
"1572978021432","3768189.0"
"1572978021480","3824499.0"
"1572978021528","3730121.0"
"1572978021576","3555441.0"
"1572978021618","3513425.0"
"1572978021665","3487282.0"
"1572978021720","3498540.0"
"1572978021768","3483227.0"
"1572978021818","3398546.0"
"1572978021860","3311601.0"
"1572978021908","3248796.0"
"1572978021956","3210398.0"
"1572978022008","3172705.0"
"1572978022052","3138529.0"
"1572978022107","3104101.0"
"1572978022150","3076841.0"
"1572978022198","3054506.0"
"1572978022248","3030351.0"
"1572978022301","3011756.0"
"1572978022346","2986071.0"
"1572978022398","2937447.0"
"1572978022440","2890896.0"
"1572978022492","2853607.0"
"1572978022550","2827341.0"
"1572978022585","2804049.0"
"1572978022640","2785897.0"
"1572978022689","2767319.0"
"1572978022734","2749413.0"
"1572978022785","2740646.0"
"1572978022826","2732974.0"
"1572978022882","2726381.0"
"1572978022928","2710334.0"
"1572978022977","2673192.0"
"1572978023027","2641058.0"
"1572978023071","2620925.0"
"1572978023125","2603625.0"
"1572978023166","2594230.0"
"1572978023219","2585543.0"
"1572978023261","2575292.0"
"1572978023310","2565930.0"
"1572978023358","2560101.0"
"1572978023409","2556974.0"
"1572978023455","2555046.0"
"1572978023508","2551986.0"
"1572978023552","2533674.0"
"1572978023606","2508135.0"
"1572978023651","2488584.0"
"1572978023704","2476422.0"
"1572978023748","2472667.0"
"1572978023801","2467252.0"
"1572978023847","2445507.0"
"1572978023895","2440037.0"
"1572978023945","2442652.0"
"1572978023988","2452268.0"
"1572978024051","2458725.0"
"1572978024083","2462193.0"
"1572978024132","2463691.0"
"1572978024188","2450236.0"
"1572978024228","2435821.0"
"1572978024281","2427432.0"
"1572978024327","2423556.0"
"1572978024379","2423023.0"
"1572978024423","2421418.0"
"1572978024469","2419797.0"
"1572978024518","2420910.0"
"1572978024572","2420985.0"
"1572978024615","2418836.0"
"1572978024664","2420532.0"
"1572978024712","2424911.0"
"1572978024760","2432217.0"
"1572978024811","2421957.0"
"1572978024856","2411469.0"
"1572978024911","2407029.0"
"1572978024951","2407834.0"
"1572978025009","2409358.0"
"1572978025048","2410985.0"
"1572978025102","2410837.0"
"1572978025150","2410800.0"
"1572978025196","2409845.0"
"1572978025245","2410676.0"
"1572978025294","2413870.0"
"1572978025338","2415195.0"
"1572978025392","2412533.0"
"1572978025441","2397740.0"
"1572978025490","2381413.0"
"1572978025533","2372731.0"
"1572978025582","2367083.0"
"1572978025633","2363847.0"
"1572978025685","2361498.0"
"1572978025731","2358174.0"
"1572978025775","2356347.0"
"1572978025823","2355803.0"
"1572978025872","2358267.0"
"1572978025920","2361059.0"
"1572978025972","2363926.0"
"1572978026016","2365864.0"
"1572978026071","2355555.0"
"1572978026116","2340979.0"
"1572978026169","2331654.0"
"1572978026211","2324731.0"
"1572978026259","2322427.0"
"1572978026313","2321789.0"
"1572978026360","2321605.0"
"1572978026412","2318254.0"
"1572978026452","2317456.0"
"1572978026508","2319461.0"
"1572978026556","2322842.0"
"1572978026599","2326286.0"
"1572978026650","2329790.0"
"1572978026694","2323543.0"
"1572978026752","2303666.0"
"1572978026790","2291462.0"
"1572978026839","2285819.0"
"1572978026891","2283660.0"
"1572978026941","2283654.0"
"1572978026989","2282886.0"
"1572978027033","2282792.0"
"1572978027087","2282323.0"
"1572978027129","2283826.0"
"1572978027185","2287238.0"
"1572978027230","2294044.0"
"1572978027282","2297809.0"
"1572978027332","2295728.0"
"1572978027371","2279145.0"
"1572978027684","2265201.0"
"1572978027684","2259226.0"
"1572978027684","2255467.0"
"1572978027684","2260197.0"
"1572978027684","2258403.0"
"1572978027685","2258371.0"
"1572978027792","2259894.0"
"1572978027792","2262525.0"
"1572978027816","2264884.0"
"1572978027910","2271425.0"
"1572978027910","2277733.0"
"1572978027951","2278211.0"
"1572978028008","2259456.0"
"1572978028055","2242259.0"
"1572978028098","2233640.0"
"1572978028150","2231133.0"
"1572978028198","2232606.0"
"1572978028251","2234205.0"
"1572978028289","2231306.0"
"1572978028346","2231133.0"
"1572978028391","2234575.0"
"1572978028437","2237090.0"
"1572978028493","2243232.0"
"1572978028534","2247293.0"
"1572978028582","2252168.0"
"1572978028634","2249827.0"
"1572978028677","2227208.0"
"1572978028729","2208574.0"
"1572978028780","2200074.0"
"1572978028824","2195716.0"
"1572978028872","2194767.0"
"1572978028920","2195783.0"
"1572978028970","2192444.0"
"1572978029016","2191479.0"
"1572978029071","2193635.0"
"1572978029114","2197536.0"
"1572978029163","2202668.0"
"1572978029212","2209511.0"
"1572978029257","2214135.0"
"1572978029314","2219566.0"
"1572978029355","2207368.0"
"1572978029406","2185758.0"
"1572978029455","2172631.0"
"1572978029507","2167777.0"
"1572978029570","2166166.0"
"1572978029597","2169331.0"
"1572978029647","2168309.0"
"1572978029699","2166922.0"
"1572978029750","2168364.0"
"1572978029793","2170762.0"
"1572978029839","2177466.0"
"1572978029893","2183726.0"
"1572978029941","2191591.0"
"1572978029986","2194582.0"
"1572978030034","2199121.0"
"1572978030080","2193720.0"
"1572978030131","2174155.0"
"1572978030178","2159286.0"
"1572978030229","2157417.0"
"1572978030276","2157305.0"
"1572978030325","2158835.0"
"1572978030373","2158506.0"
"1572978030420","2158878.0"
"1572978030469","2159746.0"
"1572978030519","2164624.0"
"1572978030570","2170853.0"
"1572978030615","2177219.0"
"1572978030664","2184488.0"
"1572978030716","2190061.0"
"1572978030766","2184500.0"
"1572978030813","2163795.0"
"1572978030971","2152693.0"
"1572978030971","2149373.0"
"1572978030973","2147541.0"
"1572978031033","2147876.0"
"1572978031127","2147955.0"
"1572978031129","2146643.0"
"1572978031156","2148587.0"
"1572978031201","2154333.0"
"1572978031245","2159776.0"
"1572978031293","2162960.0"
"1572978031341","2168110.0"
"1572978031391","2171454.0"
"1572978031438","2165776.0"
"1572978031487","2143597.0"
"1572978031535","2128432.0"
"1572978031583","2119763.0"
"1572978031631","2115114.0"
"1572978031679","2114074.0"
"1572978031735","2111032.0"
"1572978031775","2107981.0"
"1572978031829","2105589.0"
"1572978031877","2104785.0"
"1572978031928","2103405.0"
"1572978031976","2095020.0"
"1572978032019","2088699.0"
"1572978032074","2079169.0"
"1572978032119","2063863.0"
"1572978032171","2050005.0"
"1572978032220","2163504.0"
"1572978032261","2242513.0"
"1572978032318","2295170.0"
"1572978032357","2362435.0"
"1572978032409","2426613.0"
"1572978032458","2522652.0"
"1572978032504","2613611.0"
"1572978032551","2695673.0"
"1572978032600","2789737.0"
"1572978032650","2867297.0"
"1572978032698","2967781.0"
"1572978032746","3046804.0"
"1572978032794","3116042.0"
"1572978032841","3164501.0"
"1572978032891","3205615.0"
"1572978032937","3244812.0"
"1572978032992","3275300.0"
"1572978033039","3299882.0"
"1572978033085","3319332.0"
"1572978033139","3336576.0"
"1572978033181","3347208.0"
"1572978033237","3357574.0"
"1572978033277","3364798.0"
"1572978033331","3380075.0"
"1572978033381","3394050.0"
"1572978033430","3406285.0"
"1572978033479","3412955.0"
"1572978033520","3404527.0"
"1572978033585","3385232.0"
"1572978033619","3379543.0"
"1572978033731","3370142.0"
"1572978033731","3364762.0"
"1572978033768","3361859.0"
"1572978033809","3357338.0"
"1572978033857","3352539.0"
"1572978033945","3351610.0"
"1572978033971","3356371.0"
"1572978034002","3359307.0"
"1572978034050","3361481.0"
"1572978034101","3367048.0"
"1572978034149","3368297.0"
"1572978034198","3349727.0"
"1572978034245","3303777.0"
"1572978034292","3263016.0"
"1572978034342","3230978.0"
"1572978034388","3207499.0"
"1572978034436","3188638.0"
"1572978034488","3170706.0"
"1572978034535","3148296.0"
"1572978034582","3130711.0"
"1572978034632","3115306.0"
"1572978034683","3101572.0"
"1572978034729","3093207.0"
"1572978034782","3084761.0"
"1572978034826","3075640.0"
"1572978034880","3068048.0"
"1572978034923","3062903.0"
"1572978034975","3042383.0"
"1572978035020","2977899.0"
"1572978035073","2922388.0"
"1572978035115","2888586.0"
"1572978035166","2859205.0"
"1572978035212","2838115.0"
"1572978035261","2814029.0"
"1572978035310","2786962.0"
"1572978035358","2766728.0"
"1572978035407","2748938.0"
"1572978035454","2733878.0"
"1572978035503","2715625.0"
"1572978035551","2704833.0"
"1572978035602","2700424.0"
"1572978035649","2694318.0"
"1572978035695","2660417.0"
"1572978035746","2606392.0"
"1572978035792","2577444.0"
"1572978035842","2557779.0"
"1572978035889","2546478.0"
"1572978035941","2537049.0"
"1572978035986","2524923.0"
"1572978036034","2511475.0"
"1572978036082","2504391.0"
"1572978036129","2504844.0"
"1572978036189","2505035.0"
"1572978036233","2504943.0"
"1572978036283","2505908.0"
"1572978036331","2506613.0"
"1572978036377","2508887.0"
"1572978036419","2500614.0"
"1572978036556","2457128.0"
"1572978036564","2424324.0"
"1572978036587","2408986.0"
"1572978036747","2397685.0"
"1572978036747","2392409.0"
"1572978036747","2390068.0"
"1572978036788","2384991.0"
"1572978036833","2381952.0"
"1572978036857","2384694.0"
"1572978036906","2391233.0"
"1572978036953","2398657.0"
"1572978037009","2406757.0"
"1572978037054","2414565.0"
"1572978037104","2423121.0"
"1572978037147","2432942.0"
"1572978037200","2440057.0"
"1572978037244","2447164.0"
"1572978037297","2434403.0"
"1572978037342","2405666.0"
"1572978037395","2392342.0"
"1572978037442","2387543.0"
"1572978037484","2387023.0"
"1572978037540","2388341.0"
"1572978037581","2387685.0"
"1572978037635","2381498.0"
"1572978037680","2384849.0"
"1572978037727","2386094.0"
"1572978037781","2393679.0"
"1572978037829","2405034.0"
"1572978038044","2418348.0"
"1572978038044","2434403.0"
"1572978038044","2444869.0"
"1572978038044","2453865.0"
"1572978038086","2460472.0"
"1572978038192","2439994.0"
"1572978038192","2427251.0"
"1572978038214","2426038.0"
"1572978038257","2428180.0"
"1572978038313","2433493.0"
"1572978038360","2429108.0"
"1572978038411","2429265.0"
"1572978038457","2428751.0"
"1572978038507","2434608.0"
"1572978038552","2450960.0"
"1572978038602","2464806.0"
"1572978038647","2476082.0"
"1572978038694","2486349.0"
"1572978038746","2496323.0"
"1572978038797","2504484.0"
"1572978038842","2507828.0"
"1572978038889","2515854.0"
"1572978038936","2509809.0"
"1572978038988","2492194.0"
"1572978039032","2482218.0"
"1572978039082","2484205.0"
"1572978039131","2485678.0"
"1572978039180","2493437.0"
"1572978039229","2494075.0"
"1572978039281","2496912.0"
"1572978039327","2501965.0"
"1572978039380","2509864.0"
"1572978039425","2518446.0"
"1572978039475","2552057.0"
