time,value,value2,value3
1583024793841,4791250.0,5374279.0,0.0
1583024793891,4837369.0,5400293.0,0.0
1583024793938,4876721.0,5433910.0,0.0
1583024793987,4909258.0,5454860.0,0.0
1583024794036,4913785.0,5456314.0,0.0
1583024794085,4920724.0,5464356.0,0.0
1583024794134,4937868.0,5478958.0,0.0
1583024794182,4965799.0,5495178.0,0.0
1583024794232,5008113.0,5525991.0,0.0
1583024794278,5053117.0,5551034.0,0.0
1583024794329,5081451.0,5564220.0,0.0
1583024794380,5099707.0,5568363.0,0.0
1583024794426,5125904.0,5578784.0,0.0
1583024794474,5170048.0,5654414.0,0.0
1583024794523,5229619.0,5750446.0,0.0
1583024794572,5323650.0,5853970.0,0.0
1583024794621,5358992.0,5841749.0,0.0
1583024794671,5350340.0,5755668.0,0.0
1583024794719,5350707.0,5710518.0,0.0
1583024794764,5361003.0,5704807.0,0.0
1583024794815,5364632.0,5728644.0,0.0
1583024794864,5388151.0,5741657.0,0.0
1583024794913,5375905.0,5741952.0,0.0
1583024794963,5369723.0,5758291.0,0.0
1583024795010,5375122.0,5777546.0,0.0
1583024795064,5409891.0,5816183.0,0.0
1583024795112,5349031.0,5946723.0,0.0
1583024795160,5421793.0,6198974.0,0.0
1583024795212,5531553.0,6357816.0,0.0
1583024795257,5601017.0,6484343.0,0.0
1583024795300,5691854.0,6546442.0,0.0
1583024795358,5730595.0,6497188.0,0.0
1583024795401,5687165.0,6428259.0,0.0
1583024795454,5617827.0,6346520.0,0.0
1583024795501,5561527.0,6219971.0,0.0
1583024795546,5518971.0,6116545.0,0.0
1583024795598,5479401.0,6037451.0,0.0
1583024795641,5439062.0,5963459.0,0.0
1583024795698,5406201.0,5903305.0,0.0
1583024795743,5369550.0,5851201.0,0.0
1583024795796,5342400.0,5810348.0,0.0
1583024795837,5322799.0,5774900.0,0.0
1583024795886,5308864.0,5738345.0,0.0
1583024795933,5285274.0,5694325.0,0.0
1583024795981,5257792.0,5655316.0,0.0
1583024796029,5233538.0,5624935.0,0.0
1583024796081,5210180.0,5607080.0,0.0
1583024796127,5190428.0,5586966.0,0.0
1583024796175,5169748.0,5566805.0,0.0
1583024796226,5149091.0,5546621.0,0.0
1583024796275,5129088.0,5530723.0,0.0
1583024796323,5089024.0,5492506.0,0.0
1583024796373,5041434.0,5431188.0,0.0
1583024796423,4996797.0,5386355.0,0.0
1583024796475,4957733.0,5349063.0,0.0
1583024796523,4911211.0,5304785.0,0.0
1583024796572,4869033.0,5272888.0,0.0
1583024796619,4827270.0,5244495.0,0.0
1583024796672,4786401.0,5220841.0,0.0
1583024796713,4752208.0,5192551.0,0.0
1583024796767,4713626.0,5163040.0,0.0
1583024796815,4680642.0,5138627.0,0.0
1583024796868,4649769.0,5121700.0,0.0
1583024796914,4617207.0,5101799.0,0.0
1583024796962,4588806.0,5087530.0,0.0
1583024797004,4558461.0,5072073.0,0.0
1583024797058,4539561.0,5057408.0,0.0
1583024797101,4518156.0,5046044.0,0.0
1583024797158,4486973.0,5023713.0,0.0
1583024797203,4433457.0,4975760.0,0.0
1583024797256,4388463.0,4936456.0,0.0
1583024797301,4350191.0,4906831.0,0.0
1583024797349,4314493.0,4876936.0,0.0
1583024797399,4282702.0,4855417.0,0.0
1583024797442,4253221.0,4835856.0,0.0
1583024797497,4219695.0,4817911.0,0.0
1583024797547,4196199.0,4798543.0,0.0
1583024797704,4167428.0,4787699.0,0.0
1583024797704,4146322.0,4779129.0,0.0
1583024797704,4126641.0,4770659.0,0.0
1583024797740,4111646.0,4764712.0,0.0
1583024797858,4099445.0,4758844.0,0.0
1583024797858,4085153.0,4761106.0,0.0
1583024797885,4070641.0,4756549.0,0.0
1583024797930,4051604.0,4746530.0,0.0
1583024797976,4014618.0,4707644.0,0.0
1583024798028,3984332.0,4681402.0,0.0
1583024798077,3962398.0,4669123.0,0.0
1583024798125,3940958.0,4653338.0,0.0
1583024798175,3927023.0,4644077.0,0.0
1583024798226,3908100.0,4638435.0,0.0
1583024798275,3886971.0,4631176.0,0.0
1583024798323,3873769.0,4621769.0,0.0
1583024798368,3862131.0,4619404.0,0.0
1583024798420,3855857.0,4621824.0,0.0
1583024798468,3846988.0,4616984.0,0.0
1583024798514,3859396.0,4628246.0,0.0
1583024798569,3860533.0,4642178.0,0.0
1583024798617,3854156.0,4649967.0,0.0
1583024798666,3853433.0,4657633.0,0.0
1583024798715,3848687.0,4660699.0,0.0
1583024798768,3849377.0,4669630.0,0.0
1583024798811,3837105.0,4674312.0,0.0
1583024798856,3827018.0,4671802.0,0.0
1583024798936,3838519.0,4675634.0,0.0
1583024798992,3839300.0,4667924.0,0.0
1583024799095,3827823.0,4649199.0,0.0
1583024799095,3812300.0,4627183.0,0.0
1583024799105,3795951.0,4611002.0,0.0
1583024799182,3792332.0,4610720.0,0.0
1583024799199,3788494.0,4618138.0,0.0
1583024799245,3793480.0,4632848.0,0.0
1583024799294,3790067.0,4635914.0,0.0
1583024799345,3787724.0,4630237.0,0.0
1583024799395,3783933.0,4627319.0,0.0
1583024799444,3784070.0,4621484.0,0.0
1583024799493,3782187.0,4617878.0,0.0
1583024799536,3780106.0,4631163.0,0.0
1583024799584,3784414.0,4641861.0,0.0
1583024799638,3777418.0,4637767.0,0.0
1583024799688,3763264.0,4620456.0,0.0
1583024799732,3735217.0,4590876.0,0.0
1583024799779,3717477.0,4570479.0,0.0
1583024799834,3704805.0,4562100.0,0.0
1583024799883,3690087.0,4562202.0,0.0
1583024799924,3607704.0,4564837.0,0.0
1583024799974,3602588.0,4568218.0,0.0
1583024800029,3596487.0,4566714.0,0.0
1583024800076,3593313.0,4566170.0,0.0
1583024800124,3589369.0,4569732.0,0.0
1583024800173,3588130.0,4571383.0,0.0
1583024800225,3589465.0,4575557.0,0.0
1583024800266,3592647.0,4579718.0,0.0
1583024800320,3590436.0,4583255.0,0.0
1583024800371,3591960.0,4585744.0,0.0
1583024800417,3592931.0,4588852.0,0.0
1583024800467,3593305.0,4595683.0,0.0
1583024800515,3593746.0,4593127.0,0.0
1583024800569,3595585.0,4598294.0,0.0
1583024800606,3595133.0,4602784.0,0.0
1583024800662,3577197.0,4587361.0,0.0
1583024800710,3555882.0,4565357.0,0.0
1583024800763,3544257.0,4545117.0,0.0
1583024800805,3534122.0,4538479.0,0.0
1583024800855,3523417.0,4534804.0,0.0
1583024800904,3511489.0,4525025.0,0.0
1583024800951,3501242.0,4517788.0,0.0
1583024801001,3492366.0,4514259.0,0.0
1583024801048,3488993.0,4512688.0,0.0
1583024801093,3485716.0,4510516.0,0.0
1583024801147,3484381.0,4507680.0,0.0
1583024801196,3487475.0,4521372.0,0.0
1583024801244,3482951.0,4528451.0,0.0
1583024801294,3466705.0,4523237.0,0.0
1583024801341,3459277.0,4521258.0,0.0
1583024801387,3459736.0,4522400.0,0.0
1583024801438,3462111.0,4524141.0,0.0
1583024801486,3468804.0,4527150.0,0.0
1583024801537,3460187.0,4524097.0,0.0
1583024801585,3444695.0,4512394.0,0.0
1583024801633,3437240.0,4515866.0,0.0
1583024801683,3355286.0,4515492.0,0.0
1583024801730,3238674.0,4514293.0,0.0
1583024801775,3182673.0,4510358.0,0.0
1583024801829,3155279.0,4499130.0,0.0
1583024801877,3154448.0,4499086.0,0.0
1583024801922,3128744.0,4498011.0,0.0
1583024801972,3129593.0,4500839.0,0.0
1583024802023,3129291.0,4502635.0,0.0
1583024802069,3094824.0,4502784.0,0.0
1583024802120,3093489.0,4503304.0,0.0
1583024802165,3096825.0,4507871.0,0.0
1583024802212,3092518.0,4504287.0,0.0
1583024802262,3091634.0,4505904.0,0.0
1583024802312,3087091.0,4511737.0,0.0
1583024802360,3045083.0,4507261.0,0.0
1583024802409,3007494.0,4496881.0,0.0
1583024802462,2974622.0,4487180.0,0.0
1583024802510,2920720.0,4457758.0,0.0
1583024802561,2870649.0,4420614.0,0.0
1583024802606,2843014.0,4403496.0,0.0
1583024802660,2830868.0,4400014.0,0.0
1583024802704,2828015.0,4396113.0,0.0
1583024802750,2808675.0,4387937.0,0.0
1583024802795,2785903.0,4372083.0,0.0
1583024802852,2768859.0,4366171.0,0.0
1583024802900,2718565.0,4362981.0,0.0
1583024802949,2693449.0,4338750.0,0.0
1583024802993,2690247.0,4338196.0,0.0
1583024803045,2683731.0,4335347.0,0.0
1583024803091,2677634.0,4334205.0,0.0
1583024803142,2671118.0,4330678.0,0.0
1583024803189,2668531.0,4331662.0,0.0
1583024803240,2646637.0,4310404.0,0.0
1583024803289,2644756.0,4308922.0,0.0
1583024803336,2621385.0,4280677.0,0.0
1583024803385,2597061.0,4261942.0,0.0
1583024803430,2582731.0,4250589.0,0.0
1583024803586,2582552.0,4247277.0,0.0
1583024803587,2580902.0,4248362.0,0.0
1583024803587,2579821.0,4244008.0,0.0
1583024803709,2575106.0,4238388.0,0.0
1583024803709,2573354.0,4238671.0,0.0
1583024803932,2571192.0,4238309.0,0.0
1583024803932,2571054.0,4237994.0,0.0
1583024803932,2568303.0,4235641.0,0.0
1583024803932,2569179.0,4238797.0,0.0
1583024803932,2571794.0,4239406.0,0.0
1583024804003,2573909.0,4239339.0,0.0
1583024804041,2575223.0,4235099.0,0.0
1583024804068,2573559.0,4238061.0,0.0
1583024804111,2575455.0,4238728.0,0.0
1583024804159,2575181.0,4240446.0,0.0
1583024804211,2575284.0,4245004.0,0.0
1583024804263,2566209.0,4231141.0,0.0
1583024804306,2551948.0,4214135.0,0.0
1583024804355,2544363.0,4203767.0,0.0
1583024804407,2538300.0,4200805.0,0.0
1583024804452,2528603.0,4195785.0,0.0
1583024804503,2527884.0,4193930.0,0.0
1583024804557,2531490.0,4200397.0,0.0
1583024804601,2540676.0,4203121.0,0.0
1583024804652,2542181.0,4205011.0,0.0
1583024804697,2548244.0,4213638.0,0.0
1583024804747,2549942.0,4213831.0,0.0
1583024804861,2549688.0,4214475.0,0.0
1583024804861,2549148.0,4215604.0,0.0
1583024805003,2546062.0,4216317.0,0.0
1583024805003,2548957.0,4215458.0,0.0
1583024805003,2555745.0,4218046.0,0.0
1583024805038,2555184.0,4220672.0,0.0
1583024805087,2551188.0,4215255.0,0.0
1583024805131,2528054.0,4195579.0,0.0
1583024805186,2515634.0,4178507.0,0.0
1583024805238,2506437.0,4171993.0,0.0
1583024805278,2505553.0,4173655.0,0.0
1583024805423,2500640.0,4168624.0,0.0
1583024805423,2500077.0,4172592.0,0.0
1583024805442,2516051.0,4169031.0,0.0
1583024805542,2515854.0,4166420.0,0.0
1583024805542,2510870.0,4165231.0,0.0
1583024805595,2508257.0,4160731.0,0.0
1583024805622,2510228.0,4163084.0,0.0
1583024805674,2509947.0,4166712.0,0.0
1583024805714,2502692.0,4162123.0,0.0
1583024805770,2495384.0,4158459.0,0.0
1583024805813,2485727.0,4148904.0,0.0
1583024805869,2477267.0,4135245.0,0.0
1583024805916,2477815.0,4124978.0,0.0
1583024805970,2497765.0,4139926.0,0.0
1583024806008,2514826.0,4151460.0,0.0
1583024806062,2521327.0,4162631.0,0.0
1583024806109,2526529.0,4170693.0,0.0
1583024806155,2528684.0,4174425.0,0.0
1583024806208,2531649.0,4180882.0,0.0
1583024806259,2533715.0,4184070.0,0.0
1583024806303,2534879.0,4188377.0,0.0
1583024806358,2535590.0,4193229.0,0.0
1583024806400,2536760.0,4200555.0,0.0
1583024806452,2536801.0,4199426.0,0.0
1583024806493,2534284.0,4201845.0,0.0
1583024806548,2536549.0,4206096.0,0.0
1583024806600,2538130.0,4210992.0,0.0
1583024806645,2537644.0,4212994.0,0.0
1583024806694,2535509.0,4213412.0,0.0
1583024806737,2530417.0,4213841.0,0.0
1583024806792,2520076.0,4199493.0,0.0
1583024806833,2512266.0,4189192.0,0.0
1583024806888,2506327.0,4183990.0,0.0
1583024806939,2500406.0,4178415.0,0.0
1583024806983,2496136.0,4174051.0,0.0
1583024807034,2491018.0,4170150.0,0.0
1583024807075,2487718.0,4166781.0,0.0
1583024807130,2486282.0,4165345.0,0.0
1583024807173,2485556.0,4170286.0,0.0
1583024807228,2484358.0,4170014.0,0.0
1583024807277,2485447.0,4171394.0,0.0
1583024807413,2490408.0,4175849.0,0.0
1583024807418,2490004.0,4180156.0,0.0
1583024807438,2493509.0,4181571.0,0.0
1583024807708,2496430.0,4184964.0,0.0
1583024807708,2502227.0,4189677.0,0.0
1583024807711,2512554.0,4196508.0,0.0
1583024807717,2517154.0,4197774.0,0.0
1583024807717,2516475.0,4190108.0,0.0
1583024807780,2522867.0,4195309.0,0.0
1583024807780,2525064.0,4196666.0,0.0
1583024807863,2524188.0,4200917.0,0.0
1583024807863,2517406.0,4199119.0,0.0
1583024807909,2522792.0,4204003.0,0.0
1583024807955,2535509.0,4219631.0,0.0
1583024808001,2521486.0,4182757.0,0.0
1583024808051,2529444.0,4160042.0,0.0
1583024808097,2525941.0,4152206.0,0.0
1583024808145,2519330.0,4147740.0,0.0
1583024808197,2494780.0,4136513.0,0.0
1583024808244,2488840.0,4125261.0,0.0
1583024808295,2484352.0,4124582.0,0.0
1583024808342,2474536.0,4123826.0,0.0
1583024808396,2465852.0,4124198.0,0.0
1583024808444,2481757.0,4127410.0,0.0
1583024808494,2492830.0,4144822.0,0.0
1583024808535,2496280.0,4149786.0,0.0
1583024808591,2488484.0,4115175.0,0.0
1583024808640,2526179.0,4087824.0,0.0
1583024808686,2575160.0,4041216.0,0.0
1583024808736,2643230.0,4006615.0,0.0
1583024808779,3561595.0,4234544.0,0.0
1583024808835,4011150.0,4348204.0,0.0
1583024808875,3955208.0,4187383.0,0.0
1583024808929,3745639.0,3918839.0,0.0
1583024808982,3737604.0,3591759.0,0.0
1583024809026,3686830.0,3194800.0,0.0
1583024809078,3990009.0,4512835.0,0.0
1583024809124,3527588.0,3688220.0,0.0
1583024809169,3433138.0,4027296.0,0.0
1583024809217,3196227.0,3925319.0,0.0
1583024809271,2959479.0,3409657.0,0.0
1583024809316,3126146.0,3561896.0,0.0
1583024809367,3349479.0,3756458.0,0.0
1583024809412,4035397.0,4558459.0,0.0
1583024809468,3661234.0,4293861.0,0.0
1583024809515,3669288.0,4289487.0,0.0
1583024809566,3551002.0,4161828.0,0.0
1583024809612,4813740.0,7088900.0,0.0
1583024809661,6450052.0,1.036302E7,0.0
1583024809708,6695127.0,1.1049226E7,0.0
1583024809761,1.1588923E7,1.2561605E7,0.0
1583024809801,1.3372302E7,1.4709937E7,0.0
1583024809852,1.575629E7,1.7671722E7,0.0
1583024809897,1.6525656E7,2.0674172E7,0.0
1583024809955,1.418106E7,2.0932864E7,0.0
1583024809996,1.2413627E7,1.84939E7,0.0
1583024810049,1.007285E7,1.5703955E7,0.0
1583024810097,8507186.0,1.29856E7,0.0
1583024810145,6732041.0,9999756.0,0.0
1583024810194,5559442.0,7814560.0,0.0
1583024810237,4627817.0,5815603.0,0.0
1583024810296,3387527.0,3230980.0,0.0
1583024810338,3200302.0,2761831.0,0.0
1583024810390,3080354.0,2748203.0,0.0
1583024810438,3029685.0,2800347.0,0.0
1583024810487,2867746.0,2742086.0,0.0
1583024810536,2826148.0,2675892.0,0.0
1583024810579,2819173.0,2753558.0,0.0
1583024810633,2756211.0,2670577.0,0.0
1583024810677,2732779.0,2767353.0,0.0
1583024810729,2709753.0,2759726.0,0.0
1583024810778,2740368.0,2763052.0,0.0
1583024810822,2771561.0,2976099.0,0.0
1583024810876,2806410.0,2789412.0,0.0
1583024810921,2650146.0,2356108.0,0.0
1583024810974,2669090.0,2447995.0,0.0
1583024811017,2613264.0,2434054.0,0.0
1583024811065,2650833.0,2354360.0,0.0
1583024811118,2711220.0,2332094.0,0.0
1583024811169,2753792.0,2388601.0,0.0
1583024811216,2773443.0,2478423.0,0.0
1583024811263,2764153.0,2426030.0,0.0
1583024811309,2770994.0,2516760.0,0.0
1583024811360,2826508.0,2575441.0,0.0
1583024811413,2863571.0,2620919.0,0.0
1583024811462,2880168.0,2591384.0,0.0
1583024811507,2965349.0,2680352.0,0.0
1583024811558,3113953.0,3333152.0,0.0
1583024811603,3102396.0,3109725.0,0.0
1583024811657,3007520.0,2780078.0,0.0
1583024811700,2958021.0,2974904.0,0.0
1583024811747,2882690.0,2636743.0,0.0
1583024811799,2859810.0,2540732.0,0.0
1583024811843,2831910.0,2508978.0,0.0
1583024811897,2899106.0,2523875.0,0.0
1583024811945,3027258.0,2585411.0,0.0
1583024811994,3027224.0,2562584.0,0.0
1583024812036,3165458.0,2748383.0,0.0
1583024812093,4061931.0,3999809.0,0.0
1583024812139,4477744.0,4544694.0,0.0
1583024812190,4660364.0,4918566.0,0.0
1583024812239,4756772.0,5177750.0,0.0
1583024812287,4565298.0,4908832.0,0.0
1583024812333,4275539.0,4564248.0,0.0
1583024812378,3746647.0,3938503.0,0.0
1583024812433,3307371.0,3399503.0,0.0
1583024812484,3193809.0,2238500.0,0.0
1583024812525,3428002.0,2247558.0,0.0
1583024812578,3439329.0,2147360.0,0.0
1583024812625,3496041.0,2106201.0,0.0
1583024812676,3497689.0,2100396.0,0.0
1583024812719,3570236.0,2094195.0,0.0
1583024812767,3628665.0,2240300.0,0.0
1583024812819,3656078.0,2382145.0,0.0
1583024812870,3559401.0,2608134.0,0.0
1583024812917,3497602.0,2959016.0,0.0
1583024812962,3557408.0,3333861.0,0.0
1583024813012,3520199.0,3339853.0,0.0
1583024813068,3623405.0,3554618.0,0.0
1583024813114,3496533.0,3540091.0,0.0
1583024813162,3341592.0,3328845.0,0.0
1583024813211,2932831.0,2560420.0,0.0
1583024813260,2892135.0,2200417.0,0.0
1583024813306,2942559.0,2253332.0,0.0
1583024813356,2925860.0,2395054.0,0.0
1583024813398,2885656.0,2303709.0,0.0
1583024813455,2917713.0,2366069.0,0.0
1583024813501,2933063.0,2383624.0,0.0
1583024813552,2902265.0,2305483.0,0.0
1583024813599,2911792.0,2285177.0,0.0
1583024813645,2925234.0,2312586.0,0.0
1583024813696,2954353.0,2307604.0,0.0
1583024813742,2966871.0,2314181.0,0.0
1583024813790,2980142.0,2336902.0,0.0
1583024813840,3021314.0,2384384.0,0.0
1583024813887,3040162.0,2429198.0,0.0
1583024813934,3090744.0,2473291.0,0.0
1583024813983,3102919.0,2618174.0,0.0
1583024814033,3214191.0,2834464.0,0.0
1583024814081,3353155.0,2909377.0,0.0
1583024814134,3298596.0,3060179.0,0.0
1583024814185,3236297.0,2977466.0,0.0
1583024814226,3264609.0,3008761.0,0.0
1583024814276,3144494.0,2902629.0,0.0
1583024814323,3305988.0,3269050.0,0.0
1583024814374,3144980.0,3116340.0,0.0
1583024814421,3053405.0,2898913.0,0.0
1583024814477,3000494.0,2674730.0,0.0
1583024814522,3030840.0,2672684.0,0.0
1583024814574,3032017.0,2734654.0,0.0
1583024814615,3018227.0,2664793.0,0.0
1583024814672,3040778.0,2731727.0,0.0
1583024814719,3165614.0,2961999.0,0.0
1583024814771,3223663.0,3062548.0,0.0
1583024814815,3002528.0,2919663.0,0.0
1583024814869,3023538.0,2871742.0,0.0
1583024814915,3058399.0,2932987.0,0.0
1583024814961,3127090.0,3071567.0,0.0
1583024815006,3170200.0,3296721.0,0.0
1583024815061,3013101.0,2883323.0,0.0
1583024815102,3108914.0,3038862.0,0.0
1583024815157,3062184.0,2676545.0,0.0
1583024815201,3163993.0,2800341.0,0.0
1583024815251,3159037.0,2871866.0,0.0
1583024815298,3102187.0,2581697.0,0.0
1583024815353,3132190.0,2571629.0,0.0
1583024815400,3067079.0,2448564.0,0.0
1583024815442,3194510.0,2445744.0,0.0
1583024815497,3475390.0,2672739.0,0.0
1583024815544,3708121.0,2832918.0,0.0
1583024815595,3889021.0,2945046.0,0.0
1583024815641,3989940.0,3039252.0,0.0
1583024815692,4046368.0,3134311.0,0.0
1583024815739,4074065.0,3191011.0,0.0
1583024815784,4083968.0,3230254.0,0.0
1583024815832,4141718.0,3282123.0,0.0
1583024815886,4165392.0,3311400.0,0.0
1583024815929,4244955.0,3329208.0,0.0
1583024815983,4353601.0,3406516.0,0.0
1583024816032,4277004.0,3750751.0,0.0
1583024816079,4152537.0,3992657.0,0.0
1583024816122,4166302.0,3964029.0,0.0
1583024816179,4225822.0,3926580.0,0.0
1583024816225,4401548.0,4021697.0,0.0
1583024816275,4550424.0,4076241.0,0.0
1583024816323,4780373.0,4105463.0,0.0
1583024816373,4780285.0,4074656.0,0.0
1583024816420,4675055.0,3939500.0,0.0
1583024816468,4544062.0,3891338.0,0.0
1583024816517,4511380.0,3909057.0,0.0
1583024816564,4720152.0,3874797.0,0.0
1583024816614,4937218.0,3885123.0,0.0
1583024816668,5310252.0,4087816.0,0.0
1583024816713,5534878.0,4503917.0,0.0
1583024816764,5419272.0,4447362.0,0.0
1583024816804,5695571.0,4655396.0,0.0
1583024816857,5771745.0,4741780.0,0.0
1583024816905,5818252.0,4741241.0,0.0
1583024816955,5846643.0,4752270.0,0.0
1583024817003,5810913.0,4688103.0,0.0
1583024817055,5772911.0,4630481.0,0.0
1583024817096,5916330.0,4762888.0,0.0
1583024817146,5902795.0,4726662.0,0.0
1583024817198,5951947.0,4737176.0,0.0
1583024817245,5934703.0,4703187.0,0.0
1583024817293,5913786.0,4672715.0,0.0
1583024817340,5924662.0,4656912.0,0.0
1583024817390,5849504.0,4573813.0,0.0
1583024817437,5838502.0,4552419.0,0.0
1583024817486,5754695.0,4473620.0,0.0
1583024817539,5721022.0,4429815.0,0.0
1583024817590,5715086.0,4420333.0,0.0
1583024817635,5642721.0,4343293.0,0.0
1583024817684,5675127.0,4335951.0,0.0
1583024817730,5650466.0,4300954.0,0.0
1583024817782,5699460.0,4352786.0,0.0
1583024817824,5644609.0,4292953.0,0.0
1583024817879,5650104.0,4328165.0,0.0
1583024817929,5506425.0,4212758.0,0.0
1583024817978,5591545.0,4265171.0,0.0
1583024818023,5561140.0,4205433.0,0.0
1583024818074,5535032.0,4199686.0,0.0
1583024818123,5488593.0,4119015.0,0.0
1583024818165,5333166.0,3990265.0,0.0
1583024818220,5298759.0,3954169.0,0.0
1583024818269,5370061.0,4009476.0,0.0
1583024818318,5392518.0,4050375.0,0.0
1583024818367,5394551.0,4015162.0,0.0
1583024818415,5291353.0,3912480.0,0.0
1583024818463,5357669.0,3970986.0,0.0
1583024818510,5294801.0,3904012.0,0.0
1583024818562,5297594.0,3906941.0,0.0
1583024818606,5351948.0,3931847.0,0.0
1583024818656,5329989.0,3911803.0,0.0
1583024818704,5310598.0,3894692.0,0.0
1583024818754,5286830.0,3869933.0,0.0
1583024818800,5280373.0,3867428.0,0.0
1583024818851,5238174.0,3815745.0,0.0
1583024818901,5182466.0,3782432.0,0.0
1583024818948,5168229.0,3798641.0,0.0
1583024818994,5125680.0,3723908.0,0.0
1583024819041,5191194.0,3785006.0,0.0
1583024819093,5155949.0,3734233.0,0.0
1583024819140,5145921.0,3747825.0,0.0
1583024819190,5154604.0,3733575.0,0.0
1583024819238,5231707.0,3788387.0,0.0
1583024819288,5193150.0,3790407.0,0.0
1583024819335,5188039.0,3785813.0,0.0
1583024819385,5186706.0,3799700.0,0.0
1583024819432,5246780.0,3812400.0,0.0
1583024819484,5342224.0,3953544.0,0.0
1583024819529,5231402.0,3926343.0,0.0
1583024819583,5132407.0,3839585.0,0.0
1583024819626,5163040.0,3807579.0,0.0
1583024819678,5142641.0,3762259.0,0.0
1583024819728,5181334.0,3783523.0,0.0
1583024819777,5221711.0,3792912.0,0.0
1583024819825,5260745.0,3797506.0,0.0
1583024819875,5344473.0,3850298.0,0.0
1583024819923,5384364.0,3922527.0,0.0
1583024819971,5358494.0,3920577.0,0.0
1583024820013,5353090.0,3904904.0,0.0
1583024820062,5339960.0,3874685.0,0.0
1583024820111,5352094.0,3873375.0,0.0
1583024820159,5381729.0,3888477.0,0.0
1583024820208,5348589.0,3844362.0,0.0
1583024820260,5318930.0,3831974.0,0.0
1583024820306,5252636.0,3789427.0,0.0
1583024820359,5234850.0,3791083.0,0.0
1583024820402,5213909.0,3770554.0,0.0
1583024820453,5206934.0,3770684.0,0.0
1583024820499,5194248.0,3766550.0,0.0
1583024820551,5190436.0,3772072.0,0.0
1583024820731,5188989.0,3773858.0,0.0
1583024820731,5188841.0,3766958.0,0.0
1583024820731,5184772.0,3770087.0,0.0
1583024820768,5193309.0,3777915.0,0.0
1583024820848,5165742.0,3769055.0,0.0
1583024820848,5133336.0,3746509.0,0.0
1583024820891,5078371.0,3687474.0,0.0
1583024820942,5019225.0,3626853.0,0.0
1583024820987,4995807.0,3657602.0,0.0
1583024821040,4972062.0,3642526.0,0.0
1583024821091,4936988.0,3599857.0,0.0
1583024821138,4924052.0,3594613.0,0.0
1583024821186,4932679.0,3601643.0,0.0
1583024821234,4925635.0,3586440.0,0.0
1583024821283,4867323.0,3592376.0,0.0
1583024821329,4886117.0,3592291.0,0.0
1583024821381,4892619.0,3608519.0,0.0
1583024821431,4922085.0,3626254.0,0.0
1583024821477,4874266.0,3570236.0,0.0
1583024821527,4866283.0,3574042.0,0.0
1583024821571,4477466.0,3327502.0,0.0
1583024821623,4351630.0,3218795.0,0.0
1583024821671,4430169.0,3270176.0,0.0
1583024821721,4626992.0,3414347.0,0.0
1583024821771,4697096.0,3481573.0,0.0
1583024821819,4723949.0,3480437.0,0.0
1583024821863,4776923.0,3528722.0,0.0
1583024821913,4736432.0,3488316.0,0.0
1583024821965,4786885.0,3537816.0,0.0
1583024822011,4781344.0,3549761.0,0.0
1583024822067,4802173.0,3550931.0,0.0
1583024822112,4798181.0,3553210.0,0.0
1583024822162,4818692.0,3580509.0,0.0
1583024822207,4753089.0,3503989.0,0.0
1583024822255,4765118.0,3526771.0,0.0
1583024822305,4717381.0,3487260.0,0.0
1583024822352,4822005.0,3588120.0,0.0
1583024822402,4861173.0,3615402.0,0.0
1583024822454,4916805.0,3681223.0,0.0
1583024822493,4903938.0,3639543.0,0.0
1583024822549,4898939.0,3667110.0,0.0
1583024822596,4919688.0,3675589.0,0.0
1583024822645,4937010.0,3692856.0,0.0
1583024822693,4955406.0,3707152.0,0.0
1583024822743,4963344.0,3722877.0,0.0
1583024822791,4948983.0,3708781.0,0.0
1583024822834,4921597.0,3686400.0,0.0
1583024822884,4911410.0,3687854.0,0.0
1583024822934,4838865.0,3625709.0,0.0
1583024822989,4882058.0,3658390.0,0.0
1583024823031,4882612.0,3657307.0,0.0
1583024823078,4862439.0,3669780.0,0.0
1583024823131,4835563.0,3619502.0,0.0
1583024823176,4775092.0,3570419.0,0.0
1583024823316,4891534.0,3663469.0,0.0
1583024823319,4813309.0,3628655.0,0.0
1583024823337,4895876.0,3697694.0,0.0
1583024823445,4797208.0,3579859.0,0.0
1583024823446,4906063.0,3698769.0,0.0
1583024823491,4841736.0,3634750.0,0.0
1583024823518,4876267.0,3701778.0,0.0
1583024823567,4833019.0,3639015.0,0.0
1583024823616,4763322.0,3608285.0,0.0
1583024823664,4952082.0,3717008.0,0.0
1583024823713,4878281.0,3745771.0,0.0
1583024823762,4808155.0,3674713.0,0.0
1583024823816,4993342.0,3794679.0,0.0
1583024823856,4985823.0,3871928.0,0.0
1583024823905,4835608.0,3763516.0,0.0
1583024823955,4899256.0,3775400.0,0.0
1583024824003,5117945.0,3971618.0,0.0
1583024824053,5065108.0,3981041.0,0.0
1583024824101,5094156.0,3989182.0,0.0
1583024824154,5283053.0,4152537.0,0.0
1583024824199,5175432.0,4103844.0,0.0
1583024824249,5210733.0,4152285.0,0.0
1583024824294,5309793.0,4219217.0,0.0
1583024824344,5338526.0,4278718.0,0.0
1583024824392,5323836.0,4351433.0,0.0
1583024824442,5236252.0,4274350.0,0.0
1583024824494,5256210.0,4238313.0,0.0
1583024824539,5322221.0,4300070.0,0.0
1583024824588,5360902.0,4402318.0,0.0
1583024824637,5309377.0,4367246.0,0.0
1583024824686,5311071.0,4328096.0,0.0
1583024824732,5212948.0,4214968.0,0.0
1583024824785,5123283.0,4150812.0,0.0
1583024824837,5118490.0,4196339.0,0.0
1583024824883,5048781.0,4108222.0,0.0
1583024824928,5077331.0,4121199.0,0.0
1583024824977,5029615.0,4060785.0,0.0
1583024825024,5010755.0,4067947.0,0.0
1583024825073,4931480.0,3988965.0,0.0
1583024825127,4930960.0,3996820.0,0.0
1583024825175,4812710.0,3887402.0,0.0
1583024825225,4671485.0,3768760.0,0.0
1583024825275,4609477.0,3678978.0,0.0
1583024825322,4551482.0,3630051.0,0.0
1583024825371,4559250.0,3644649.0,0.0
1583024825418,4602873.0,3656569.0,0.0
1583024825468,4596711.0,3668939.0,0.0
1583024825515,4586071.0,3656787.0,0.0
1583024825561,4556288.0,3596702.0,0.0
1583024825614,4638309.0,3675129.0,0.0
1583024825663,4662983.0,3694331.0,0.0
1583024825713,4654762.0,3721161.0,0.0
1583024825758,4667810.0,3683433.0,0.0
1583024825809,4697368.0,3708590.0,0.0
1583024825852,4778223.0,3787477.0,0.0
1583024825906,4768965.0,3798156.0,0.0
1583024825954,4766069.0,3784529.0,0.0
1583024826003,4811546.0,3816309.0,0.0
1583024826053,4819687.0,3820001.0,0.0
1583024826102,4838481.0,3840512.0,0.0
1583024826150,4826471.0,3834305.0,0.0
1583024826192,4854345.0,3849624.0,0.0
1583024826247,4859578.0,3865157.0,0.0
1583024826299,4824334.0,3834782.0,0.0
1583024826344,4817879.0,3825489.0,0.0
1583024826394,4552624.0,3568286.0,0.0
1583024826442,5001516.0,3972148.0,0.0
1583024826491,3851572.0,2893872.0,0.0
1583024826535,3702489.0,2755553.0,0.0
1583024826586,3893046.0,2781854.0,0.0
1583024826639,4102704.0,3283171.0,0.0
1583024826685,4276053.0,3358234.0,0.0
1583024826733,4283119.0,3423396.0,0.0
1583024826780,4362270.0,3465545.0,0.0
1583024826832,4423680.0,3499881.0,0.0
1583024826875,4432646.0,3474976.0,0.0
1583024826928,4499866.0,3543424.0,0.0
1583024826977,4589553.0,3645084.0,0.0
1583024827021,4651607.0,3705756.0,0.0
1583024827075,4657838.0,3704734.0,0.0
1583024827122,4693727.0,3749749.0,0.0
1583024827171,4686344.0,3760117.0,0.0
1583024827219,4668501.0,3732100.0,0.0
1583024827271,4651416.0,3715023.0,0.0
1583024827315,4635765.0,3691471.0,0.0
1583024827367,4505825.0,3535059.0,0.0
1583024827414,4362768.0,3415291.0,0.0
1583024827463,4586479.0,3643471.0,0.0
1583024827513,4853552.0,3958946.0,0.0
1583024827556,5001065.0,4139377.0,0.0
1583024827610,5073950.0,4206325.0,0.0
1583024827659,5201156.0,4292754.0,0.0
1583024827706,5216014.0,4327074.0,0.0
1583024827750,5269847.0,4341333.0,0.0
1583024827803,5321860.0,4403915.0,0.0
1583024827854,5311670.0,4389065.0,0.0
1583024827900,5351428.0,4415504.0,0.0
1583024827949,5285676.0,4351857.0,0.0
1583024827999,5313017.0,4397456.0,0.0
1583024828047,5313345.0,4374570.0,0.0
1583024828090,5325082.0,4389957.0,0.0
1583024828139,5273748.0,4352985.0,0.0
1583024828187,5259467.0,4340475.0,0.0
1583024828235,5250952.0,4331625.0,0.0
1583024828291,5276710.0,4352369.0,0.0
1583024828336,5284284.0,4355819.0,0.0
1583024828388,5293535.0,4353982.0,0.0
1583024828436,5274414.0,4343726.0,0.0
1583024828485,5302806.0,4366240.0,0.0
1583024828533,5312044.0,4382969.0,0.0
1583024828577,5309466.0,4385034.0,0.0
1583024828632,5323148.0,4397143.0,0.0
1583024828677,5305406.0,4374353.0,0.0
1583024828728,5288413.0,4353115.0,0.0
1583024828777,5316849.0,4377829.0,0.0
1583024828826,5338945.0,4377033.0,0.0
1583024828874,5302625.0,4364420.0,0.0
1583024828920,5312621.0,4365330.0,0.0
1583024828971,5304921.0,4358072.0,0.0
1583024829127,5310925.0,4370236.0,0.0
1583024829127,5311445.0,4353487.0,0.0
1583024829127,5309568.0,4362164.0,0.0
1583024829228,5306640.0,4364627.0,0.0
1583024829229,5299720.0,4349915.0,0.0
1583024829258,5308606.0,4369430.0,0.0
1583024829312,5305159.0,4366551.0,0.0
1583024829358,5313830.0,4369481.0,0.0
1583024829402,5339826.0,4395731.0,0.0
1583024829453,5361964.0,4404876.0,0.0
1583024829502,5359376.0,4403628.0,0.0
1583024829552,5367472.0,4402614.0,0.0
1583024829599,5404661.0,4435061.0,0.0
1583024829653,5424245.0,4455415.0,0.0
1583024829698,5424867.0,4453109.0,0.0
1583024829749,5441340.0,4473992.0,0.0
1583024829798,5381233.0,4413293.0,0.0
1583024829845,5346801.0,4380950.0,0.0
1583024829896,5365684.0,4393382.0,0.0
1583024829942,5390787.0,4422647.0,0.0
1583024829994,5440154.0,4467854.0,0.0
1583024830037,5487993.0,4501638.0,0.0
1583024830090,5481006.0,4498127.0,0.0
1583024830139,5473578.0,4487489.0,0.0
1583024830187,5447210.0,4454296.0,0.0
1583024830235,5484422.0,4488937.0,0.0
1583024830283,5444632.0,4449147.0,0.0
1583024830332,5430566.0,4440592.0,0.0
1583024830376,5401563.0,4414134.0,0.0
1583024830430,5407646.0,4429435.0,0.0
1583024830477,5460461.0,4457790.0,0.0
1583024830527,5514396.0,4497891.0,0.0
1583024830572,5481695.0,4460513.0,0.0
1583024830625,5476122.0,4462228.0,0.0
1583024830674,5451133.0,4464603.0,0.0
1583024830717,5432872.0,4438397.0,0.0
1583024830770,5445571.0,4460338.0,0.0
1583024830818,5470140.0,4472606.0,0.0
1583024830868,5512248.0,4517197.0,0.0
1583024830917,5548917.0,4534631.0,0.0
1583024830964,5546168.0,4528363.0,0.0
1583024831013,5565628.0,4541236.0,0.0
1583024831060,5566126.0,4530600.0,0.0
1583024831197,5537101.0,4509750.0,0.0
1583024831197,5572843.0,4546480.0,0.0
1583024831213,5560043.0,4530436.0,0.0
1583024831318,5595241.0,4563376.0,0.0
1583024831318,5632195.0,4583799.0,0.0
1583024831364,5620254.0,4566635.0,0.0
1583024831398,5593918.0,4534621.0,0.0
1583024831452,5595660.0,4537067.0,0.0
1583024831499,5594587.0,4536996.0,0.0
1583024831549,5587632.0,4534509.0,0.0
1583024831597,5599754.0,4549479.0,0.0
1583024831645,5621012.0,4548603.0,0.0
1583024831694,5605849.0,4547894.0,0.0
1583024831740,5633540.0,4564244.0,0.0
1583024831796,5596056.0,4539156.0,0.0
1583024831840,5616420.0,4569236.0,0.0
1583024831992,5619360.0,4550901.0,0.0
1583024831992,5639759.0,4590691.0,0.0
1583024831992,5616262.0,4561288.0,0.0
1583024832102,5630317.0,4583730.0,0.0
1583024832102,5628395.0,4578771.0,0.0
1583024832134,5631752.0,4589269.0,0.0
1583024832180,5653914.0,4608115.0,0.0
1583024832230,5674969.0,4623000.0,0.0
1583024832279,5672277.0,4623034.0,0.0
1583024832327,5670276.0,4613638.0,0.0
1583024832376,5677478.0,4625818.0,0.0
1583024832419,5697763.0,4644161.0,0.0
1583024832472,5729412.0,4663379.0,0.0
1583024832520,5759670.0,4684982.0,0.0
1583024832570,5760349.0,4696815.0,0.0
1583024832619,5754469.0,4681228.0,0.0
1583024832668,5740946.0,4676114.0,0.0
1583024832715,5748158.0,4675185.0,0.0
1583024832760,5713944.0,4641403.0,0.0
1583024832813,5684896.0,4608765.0,0.0
1583024832862,5715561.0,4642383.0,0.0
1583024832911,5712859.0,4638715.0,0.0
1583024832959,5697594.0,4626572.0,0.0
1583024833008,5691375.0,4623668.0,0.0
1583024833057,5711784.0,4640597.0,0.0
1583024833100,5714996.0,4640241.0,0.0
1583024833155,5729525.0,4656755.0,0.0
1583024833202,5780000.0,4703662.0,0.0
1583024833251,5737597.0,4680994.0,0.0
1583024833299,5753406.0,4691267.0,0.0
1583024833344,5760926.0,4705154.0,0.0
1583024833397,5786489.0,4715790.0,0.0
1583024833440,5801699.0,4735366.0,0.0
1583024833494,5837125.0,4759031.0,0.0
1583024833542,5851450.0,4781352.0,0.0
1583024833591,5821226.0,4762532.0,0.0
1583024833640,5830339.0,4771305.0,0.0
1583024833689,5824696.0,4770299.0,0.0
1583024833737,5836501.0,4778500.0,0.0
1583024833782,5837870.0,4773168.0,0.0
1583024833834,5831899.0,4771565.0,0.0
1583024833882,5833652.0,4771817.0,0.0
1583024833928,5841286.0,4779306.0,0.0
1583024833980,5838787.0,4769468.0,0.0
1583024834025,5842755.0,4772016.0,0.0
1583024834077,5811943.0,4735053.0,0.0
1583024834121,5791770.0,4713494.0,0.0
1583024834176,5793875.0,4726696.0,0.0
1583024834223,5802321.0,4730701.0,0.0
1583024834274,5764656.0,4698193.0,0.0
1583024834320,5768478.0,4698609.0,0.0
1583024834365,5761808.0,4698965.0,0.0
1583024834418,5758675.0,4687973.0,0.0
1583024834461,5758596.0,4693095.0,0.0
1583024834514,5761367.0,4697317.0,0.0
1583024834559,5769620.0,4702839.0,0.0
1583024834609,5778564.0,4708075.0,0.0
1583024834657,5781493.0,4711050.0,0.0
1583024834706,5785969.0,4715434.0,0.0
1583024834754,5783946.0,4717576.0,0.0
1583024834802,5773318.0,4703065.0,0.0
1583024834855,5728314.0,4679797.0,0.0
1583024834904,5681639.0,4644967.0,0.0
1583024834954,5689961.0,4653141.0,0.0
1583024835000,5732126.0,4675655.0,0.0
1583024835050,5730033.0,4672247.0,0.0
1583024835099,5744089.0,4676390.0,0.0
1583024835142,5709795.0,4630489.0,0.0
1583024835196,5706040.0,4640042.0,0.0
1583024835243,5722684.0,4649224.0,0.0
1583024835294,5715323.0,4646233.0,0.0
1583024835342,5711806.0,4644620.0,0.0
1583024835391,5706877.0,4629371.0,0.0
1583024835440,5683120.0,4621700.0,0.0
1583024835483,5685993.0,4617738.0,0.0
1583024835538,5680747.0,4611419.0,0.0
1583024835584,5709444.0,4648486.0,0.0
1583024835634,5703033.0,4634780.0,0.0
1583024835683,5723160.0,4655431.0,0.0
1583024835733,5730113.0,4660154.0,0.0
1583024835781,5731041.0,4654858.0,0.0
1583024835828,5733359.0,4660207.0,0.0
1583024835878,5723306.0,4649006.0,0.0
1583024835924,5733822.0,4655041.0,0.0
1583024835976,5728971.0,4656211.0,0.0
1583024836022,5724359.0,4642470.0,0.0
1583024836073,5692891.0,4608869.0,0.0
1583024836121,5676359.0,4591540.0,0.0
1583024836166,5674459.0,4593475.0,0.0
1583024836219,5692641.0,4610907.0,0.0
1583024836269,5670684.0,4586920.0,0.0
1583024836316,5678746.0,4598806.0,0.0
1583024836364,5675160.0,4598501.0,0.0
1583024836413,5683970.0,4604448.0,0.0
1583024836457,5702932.0,4615909.0,0.0
1583024836510,5729367.0,4644612.0,0.0
1583024836559,5745219.0,4660717.0,0.0
1583024836606,5742902.0,4659122.0,0.0
1583024836656,5750568.0,4665738.0,0.0
1583024836705,5775443.0,4684818.0,0.0
1583024836754,5778056.0,4683743.0,0.0
1583024836803,5796916.0,4716856.0,0.0
1583024836853,5828597.0,4726747.0,0.0
1583024836900,5835790.0,4732338.0,0.0
1583024836946,5837125.0,4736430.0,0.0
1583024836997,5801992.0,4697031.0,0.0
1583024837046,5803383.0,4698756.0,0.0
1583024837096,5803926.0,4701964.0,0.0
1583024837143,5805271.0,4707234.0,0.0
1583024837194,5791658.0,4691492.0,0.0
1583024837240,5791274.0,4691145.0,0.0
1583024837284,5772074.0,4682693.0,0.0
1583024837338,5759522.0,4662842.0,0.0
1583024837387,5765278.0,4672924.0,0.0
1583024837432,5764069.0,4678385.0,0.0
1583024837485,5766137.0,4678662.0,0.0
1583024837529,5782499.0,4695576.0,0.0
1583024837580,5778801.0,4679617.0,0.0
1583024837625,5773929.0,4685787.0,0.0
1583024837674,5778167.0,4688414.0,0.0
1583024837727,5760857.0,4673529.0,0.0
1583024837776,5773838.0,4688329.0,0.0
1583024837824,5728111.0,4651140.0,0.0
1583024837874,5688131.0,4605594.0,0.0
1583024837921,5702152.0,4631165.0,0.0
1583024837964,5679819.0,4610066.0,0.0
1583024838019,5653337.0,4605732.0,0.0
1583024838068,5659308.0,4603702.0,0.0
1583024838117,5641069.0,4586686.0,0.0
1583024838165,5643704.0,4596898.0,0.0
1583024838214,5618862.0,4573155.0,0.0
1583024838262,5634149.0,4597461.0,0.0
1583024838306,5634092.0,4596890.0,0.0
1583024838353,5643219.0,4604848.0,0.0
1583024838408,5660178.0,4613508.0,0.0
1583024838456,5656832.0,4613256.0,0.0
1583024838506,5655531.0,4612545.0,0.0
1583024838556,5671655.0,4628610.0,0.0
1583024838603,5657805.0,4611878.0,0.0
1583024838647,5674867.0,4632259.0,0.0
1583024838700,5607432.0,4560306.0,0.0
1583024838748,5579662.0,4545432.0,0.0
1583024838797,5571271.0,4542398.0,0.0
1583024838845,5580724.0,4554569.0,0.0
1583024838896,5555102.0,4530253.0,0.0
1583024838941,5553688.0,4537569.0,0.0
1583024838985,5567144.0,4542848.0,0.0
1583024839035,5557296.0,4539875.0,0.0
1583024839090,5577163.0,4562310.0,0.0
1583024839138,5575974.0,4562994.0,0.0
1583024839186,5590775.0,4575166.0,0.0
1583024839236,5592246.0,4579447.0,0.0
1583024839284,5579582.0,4572166.0,0.0
1583024839330,5579028.0,4573137.0,0.0
1583024839380,5585643.0,4583826.0,0.0
1583024839428,5577467.0,4573909.0,0.0
1583024839479,5602072.0,4601675.0,0.0
1583024839526,5617223.0,4602654.0,0.0
1583024839572,5565403.0,4561017.0,0.0
1583024839623,5531085.0,4537516.0,0.0
1583024839671,5535008.0,4543662.0,0.0
1583024839721,5538515.0,4553364.0,0.0
1583024839769,5522119.0,4539857.0,0.0
1583024839819,5508437.0,4528605.0,0.0
1583024839868,5507317.0,4536311.0,0.0
1583024839917,5507409.0,4532333.0,0.0
1583024839965,5530938.0,4555696.0,0.0
1583024840010,5532590.0,4560022.0,0.0
1583024840061,5540402.0,4570536.0,0.0
1583024840109,5544326.0,4574195.0,0.0
1583024840160,5565381.0,4591254.0,0.0
1583024840210,5562723.0,4594557.0,0.0
1583024840259,5523781.0,4559492.0,0.0
1583024840306,5597448.0,4624916.0,0.0
1583024840354,5526891.0,4566141.0,0.0
1583024840404,5540538.0,4578893.0,0.0
1583024840450,5480498.0,4527705.0,0.0
1583024840500,5508030.0,4553199.0,0.0
1583024840549,5488367.0,4538453.0,0.0
1583024840599,5486728.0,4542043.0,0.0
1583024840646,5470807.0,4530245.0,0.0
1583024840691,5480848.0,4538437.0,0.0
1583024840744,5480407.0,4540820.0,0.0
1583024840790,5492008.0,4555869.0,0.0
1583024840841,5489544.0,4550625.0,0.0
1583024840890,5505519.0,4569106.0,0.0
1583024840934,5504887.0,4566584.0,0.0
1583024840987,5502965.0,4572218.0,0.0
1583024841033,5510733.0,4576518.0,0.0
1583024841085,5512746.0,4579110.0,0.0
1583024841131,5513628.0,4570250.0,0.0
1583024841182,5480498.0,4555418.0,0.0
1583024841231,5465402.0,4527817.0,0.0
1583024841278,5480147.0,4549715.0,0.0
1583024841328,5473340.0,4543689.0,0.0
1583024841371,5481900.0,4547539.0,0.0
1583024841425,5507533.0,4573545.0,0.0
1583024841474,5484749.0,4545137.0,0.0
1583024841523,5504853.0,4570640.0,0.0
1583024841571,5536140.0,4590405.0,0.0
1583024841616,5543942.0,4603790.0,0.0
1583024841668,5573871.0,4630560.0,0.0
1583024841711,5566082.0,4617260.0,0.0
1583024841765,5588695.0,4644004.0,0.0
1583024841815,5610337.0,4658907.0,0.0
1583024841862,5621463.0,4669742.0,0.0
1583024841912,5639860.0,4686092.0,0.0
1583024841956,5651224.0,4693321.0,0.0
1583024842009,5633686.0,4664758.0,0.0
1583024842054,5632556.0,4673028.0,0.0
1583024842101,5639600.0,4686073.0,0.0
1583024842156,5635947.0,4679147.0,0.0
1583024842203,5623159.0,4665762.0,0.0
1583024842252,5624888.0,4671112.0,0.0
1583024842301,5620853.0,4663127.0,0.0
1583024842349,5640368.0,4674129.0,0.0
1583024842392,5654016.0,4686455.0,0.0
1583024842446,5647481.0,4685007.0,0.0
1583024842493,5652874.0,4691675.0,0.0
1583024842543,5658268.0,4688353.0,0.0
1583024842593,5658721.0,4686707.0,0.0
1583024842639,5650533.0,4672412.0,0.0
1583024842690,5643863.0,4682512.0,0.0
1583024842733,5649086.0,4679044.0,0.0
1583024842788,5653723.0,4669889.0,0.0
1583024842835,5636898.0,4663552.0,0.0
1583024842884,5603271.0,4615102.0,0.0
1583024842933,5593128.0,4623355.0,0.0
1583024842980,5598882.0,4621102.0,0.0
1583024843030,5589250.0,4617088.0,0.0
1583024843077,5582522.0,4610604.0,0.0
1583024843127,5589284.0,4616265.0,0.0
1583024843172,5587588.0,4613786.0,0.0
1583024843224,5599120.0,4625956.0,0.0
1583024843274,5614520.0,4632336.0,0.0
1583024843321,5626936.0,4643736.0,0.0
1583024843371,5634669.0,4648823.0,0.0
1583024843418,5628779.0,4644524.0,0.0
1583024843468,5646813.0,4656444.0,0.0
1583024843511,5662077.0,4668044.0,0.0
1583024843565,5657285.0,4661447.0,0.0
1583024843614,5653688.0,4662217.0,0.0
1583024843662,5676925.0,4674094.0,0.0
1583024843712,5681436.0,4679147.0,0.0
1583024843759,5677738.0,4678741.0,0.0
1583024843809,5693354.0,4688440.0,0.0
1583024843852,5651281.0,4640796.0,0.0
1583024843906,5605329.0,4610872.0,0.0
1583024843953,5594892.0,4606313.0,0.0
1583024844003,5606525.0,4620269.0,0.0
1583024844049,5587768.0,4594037.0,0.0
1583024844100,5586659.0,4595900.0,0.0
1583024844149,5609218.0,4614235.0,0.0
1583024844194,5613515.0,4616480.0,0.0
1583024844246,5633347.0,4636316.0,0.0
1583024844292,5638593.0,4631044.0,0.0
1583024844343,5659070.0,4658299.0,0.0
1583024844392,5660428.0,4644203.0,0.0
1583024844440,5639736.0,4625080.0,0.0
1583024844490,5614305.0,4609434.0,0.0
1583024844532,5647932.0,4634443.0,0.0
1583024844587,5681243.0,4650922.0,0.0
1583024844636,5694791.0,4661394.0,0.0
1583024844684,5706662.0,4674604.0,0.0
1583024844732,5704005.0,4660935.0,0.0
1583024844778,5739690.0,4696070.0,0.0
1583024844830,5753020.0,4700178.0,0.0
1583024844874,5746576.0,4694950.0,0.0
1583024844927,5743217.0,4698280.0,0.0
1583024844974,5735992.0,4688709.0,0.0
1583024845023,5059421.0,4249480.0,0.0
1583024845162,4420908.0,3769341.0,0.0
1583024845162,4106435.0,3599018.0,0.0
1583024845175,4231493.0,3979621.0,0.0
1583024845277,3301674.0,3751527.0,0.0
1583024845277,2676301.0,3001148.0,0.0
1583024845328,2538353.0,2582576.0,0.0
1583024845364,2400633.0,2517300.0,0.0
1583024845413,2573078.0,2575303.0,0.0
1583024845462,2928615.0,2711220.0,0.0
1583024845511,3188207.0,3345448.0,0.0
1583024845554,3464951.0,3917297.0,0.0
1583024845607,3666234.0,4085304.0,0.0
1583024845656,3657973.0,3881088.0,0.0
1583024845706,4713752.0,3760388.0,0.0
1583024845753,5609851.0,3750528.0,0.0
1583024845802,5400545.0,3891390.0,0.0
1583024845852,4982838.0,4094110.0,0.0
1583024845896,4507001.0,4361876.0,0.0
1583024845948,4142923.0,4463851.0,0.0
1583024845997,3980044.0,4464822.0,0.0
1583024846040,3925487.0,4421422.0,0.0
1583024846095,3966260.0,4383882.0,0.0
1583024846141,4235188.0,4355596.0,0.0
1583024846191,4921971.0,4861342.0,0.0
1583024846240,5340775.0,4879065.0,0.0
1583024846290,5186287.0,4609280.0,0.0
1583024846337,4894585.0,4309485.0,0.0
1583024846386,4844710.0,4211277.0,0.0
1583024846436,5069563.0,4262024.0,0.0
1583024846482,5372357.0,4447561.0,0.0
1583024846532,5508900.0,4529655.0,0.0
1583024846577,5730033.0,4640572.0,0.0
1583024846628,5726789.0,4601823.0,0.0
1583024846677,5705193.0,4585628.0,0.0
1583024846726,5796882.0,4608375.0,0.0
1583024846776,5780542.0,4622002.0,0.0
1583024846821,5665899.0,4479177.0,0.0
1583024846873,5515820.0,4412088.0,0.0
1583024846918,5506876.0,4386568.0,0.0
1583024846968,5551823.0,4400837.0,0.0
1583024847018,5491295.0,4348166.0,0.0
1583024847065,5457217.0,4301249.0,0.0
1583024847116,5586468.0,4363205.0,0.0
1583024847161,5731380.0,4466789.0,0.0
1583024847212,5825556.0,4526681.0,0.0
1583024847255,5958765.0,4596638.0,0.0
1583024847310,5913051.0,4558427.0,0.0
1583024847357,5791353.0,4462323.0,0.0
1583024847406,5869994.0,4505069.0,0.0
1583024847455,5810948.0,4472571.0,0.0
1583024847503,5764431.0,4450631.0,0.0
1583024847553,5628734.0,4357050.0,0.0
1583024847597,5548702.0,4305757.0,0.0
1583024847650,5497311.0,4261920.0,0.0
1583024847698,5487622.0,4260100.0,0.0
1583024847747,6070016.0,4610238.0,0.0
1583024847796,6248080.0,4713207.0,0.0
1583024847845,5849900.0,4463650.0,0.0
1583024847887,5109432.0,3993845.0,0.0
1583024847939,4639656.0,3672311.0,0.0
1583024848070,4376425.0,3484944.0,0.0
1583024848070,4221281.0,3371956.0,0.0
1583024848094,4125882.0,3300855.0,0.0
1583024848202,3924764.0,3162977.0,0.0
1583024848202,3869710.0,3120560.0,0.0
1583024848233,3877172.0,3109969.0,0.0
1583024848278,3823225.0,3077365.0,0.0
1583024848331,3807418.0,3053543.0,0.0
1583024848378,3799787.0,3045707.0,0.0
1583024848428,3785947.0,3030605.0,0.0
1583024848476,3753281.0,3009852.0,0.0
1583024848525,3733075.0,2993814.0,0.0
1583024848575,3717776.0,2979842.0,0.0
1583024848616,3706164.0,2970739.0,0.0
1583024848672,3693070.0,2962606.0,0.0
1583024848721,3678472.0,2945182.0,0.0
1583024848768,3661637.0,2940251.0,0.0
1583024848817,3651368.0,2926311.0,0.0
1583024848866,3621892.0,2906355.0,0.0
1583024848915,3518138.0,2883974.0,0.0
1583024848957,3525209.0,2877342.0,0.0
1583024849012,3513793.0,2880678.0,0.0
1583024849064,3495696.0,2866054.0,0.0
1583024849152,3485186.0,2851630.0,0.0
1583024849167,3466997.0,2839113.0,0.0
1583024849209,3466989.0,2837898.0,0.0
1583024849254,3486183.0,2835445.0,0.0
1583024849300,3473214.0,2833277.0,0.0
1583024849352,3459825.0,2825189.0,0.0
1583024849399,3453525.0,2824210.0,0.0
1583024849450,3447736.0,2816036.0,0.0
1583024849498,3442316.0,2815134.0,0.0
1583024849547,3443356.0,2811650.0,0.0
1583024849595,3437074.0,2774582.0,0.0
1583024849638,3428020.0,2773918.0,0.0
1583024849693,3428213.0,2771646.0,0.0
1583024849739,3418465.0,2762085.0,0.0
1583024849789,3406713.0,2758903.0,0.0
1583024849838,3403759.0,2763605.0,0.0
1583024849887,3410304.0,2757829.0,0.0
1583024849931,3409271.0,2757144.0,0.0
1583024849984,3399549.0,2750758.0,0.0
1583024850032,3402443.0,2748911.0,0.0
1583024850078,3403987.0,2748938.0,0.0
1583024850130,3397920.0,2748903.0,0.0
1583024850177,3395555.0,2747331.0,0.0
1583024850227,3395890.0,2736550.0,0.0
1583024850278,3386930.0,2737544.0,0.0
1583024850319,3384523.0,2735989.0,0.0
1583024850373,3385404.0,2737058.0,0.0
1583024850420,3378013.0,2730782.0,0.0
1583024850471,3369490.0,2731589.0,0.0
1583024850519,3374179.0,2734437.0,0.0
1583024850568,3369951.0,2734587.0,0.0
1583024850616,3364441.0,2733053.0,0.0
1583024850660,3359599.0,2723200.0,0.0
1583024850715,3351923.0,2728161.0,0.0
1583024850760,3354406.0,2729967.0,0.0
1583024850811,3347671.0,2725443.0,0.0
1583024850859,3344709.0,2719559.0,0.0
1583024850909,3338676.0,2718210.0,0.0
1583024850954,3339239.0,2719229.0,0.0
1583024851002,3338290.0,2720810.0,0.0
1583024851050,3343317.0,2724711.0,0.0
1583024851100,3336354.0,2724772.0,0.0
1583024851153,3331470.0,2721570.0,0.0
1583024851199,3325464.0,2723890.0,0.0
1583024851249,3318206.0,2725313.0,0.0
1583024851297,3323979.0,2724882.0,0.0
1583024851347,3340808.0,2730707.0,0.0
1583024851395,3348920.0,2739850.0,0.0
1583024851441,3351612.0,2746357.0,0.0
1583024851494,3349658.0,2750027.0,0.0
1583024851541,3344751.0,2762004.0,0.0
1583024851589,3341596.0,2759033.0,0.0
1583024851637,3338183.0,2764344.0,0.0
1583024851685,3330574.0,2767683.0,0.0
1583024851731,3329298.0,2764296.0,0.0
1583024851782,3321144.0,2765301.0,0.0
1583024851834,3324726.0,2761311.0,0.0
1583024851880,3316756.0,2761319.0,0.0
1583024851926,3305683.0,2763564.0,0.0
1583024851975,3311715.0,2758253.0,0.0
1583024852023,3302093.0,2748363.0,0.0
1583024852075,3291018.0,2745461.0,0.0
1583024852121,3290926.0,2750874.0,0.0
1583024852168,3291420.0,2754393.0,0.0
1583024852220,3287243.0,2751156.0,0.0
1583024852271,3291672.0,2747138.0,0.0
1583024852336,3288106.0,2746932.0,0.0
1583024852361,3285615.0,2738830.0,0.0
1583024852417,3282068.0,2744175.0,0.0
1583024852462,3282277.0,2746071.0,0.0
1583024852513,3284819.0,2745825.0,0.0
1583024852561,3283183.0,2745941.0,0.0
1583024852610,3286304.0,2745585.0,0.0
1583024852659,3287269.0,2749787.0,0.0
1583024852707,3281288.0,2748013.0,0.0
1583024852756,3277687.0,2745927.0,0.0
1583024852802,3275682.0,2746672.0,0.0
1583024852854,3278325.0,2748186.0,0.0
1583024852902,3273561.0,2746768.0,0.0
1583024852945,3275170.0,2747180.0,0.0
1583024852995,3273057.0,2746433.0,0.0
1583024853044,3270985.0,2745961.0,0.0
1583024853091,3268301.0,2745782.0,0.0
1583024853144,3264692.0,2743771.0,0.0
1583024853190,3262327.0,2744701.0,0.0
1583024853241,3257496.0,2745640.0,0.0
1583024853294,3257730.0,2744216.0,0.0
1583024853338,3252276.0,2739754.0,0.0
1583024853383,3246136.0,2739453.0,0.0
1583024853434,3247579.0,2742211.0,0.0
1583024853483,3243879.0,2739118.0,0.0
1583024853532,3239643.0,2737893.0,0.0
1583024853582,3237160.0,2734429.0,0.0
1583024853632,3232747.0,2733903.0,0.0
1583024853679,3230785.0,2733854.0,0.0
1583024853725,3233493.0,2734697.0,0.0
1583024853777,3227479.0,2734894.0,0.0
1583024853823,3229919.0,2735660.0,0.0
1583024853874,3225876.0,2735729.0,0.0
1583024853922,3223712.0,2734108.0,0.0
1583024853972,3220935.0,2733157.0,0.0
1583024854019,3222018.0,2734620.0,0.0
1583024854069,3221170.0,2736018.0,0.0
1583024854118,3219970.0,2733082.0,0.0
1583024854164,3220591.0,2736784.0,0.0
1583024854216,3220230.0,2733169.0,0.0
1583024854262,3216044.0,2735360.0,0.0
1583024854314,3215331.0,2734319.0,0.0
1583024854359,3215674.0,2731589.0,0.0
1583024854405,3209350.0,2733039.0,0.0
1583024854457,3204417.0,2723951.0,0.0
1583024854504,3197891.0,2728557.0,0.0
1583024854555,3196858.0,2728982.0,0.0
1583024854602,3189686.0,2726471.0,0.0
1583024854653,3186933.0,2721050.0,0.0
1583024854700,3187437.0,2720625.0,0.0
1583024854746,3186121.0,2719744.0,0.0
1583024854797,3188242.0,2720331.0,0.0
1583024854844,3186389.0,2720755.0,0.0
1583024854895,3185164.0,2721570.0,0.0
1583024854941,3185785.0,2719201.0,0.0
1583024854993,3182917.0,2721030.0,0.0
1583024855040,3182882.0,2719189.0,0.0
1583024855087,3187965.0,2721694.0,0.0
1583024855137,3184997.0,2722952.0,0.0
1583024855187,3187705.0,2721830.0,0.0
1583024855236,3185592.0,2724998.0,0.0
1583024855284,3220256.0,2736784.0,0.0
1583024855333,3248904.0,2751059.0,0.0
1583024855380,3250767.0,2749486.0,0.0
1583024855424,3253201.0,2750561.0,0.0
1583024855478,3239214.0,2742765.0,0.0
1583024855526,3229005.0,2736258.0,0.0
1583024855576,3214803.0,2733909.0,0.0
1583024855623,3210457.0,2732458.0,0.0
1583024855674,3208704.0,2730248.0,0.0
1583024855720,3206639.0,2728571.0,0.0
1583024855765,3203770.0,2728462.0,0.0
1583024855818,3198167.0,2724136.0,0.0
1583024855865,3195499.0,2725286.0,0.0
1583024855916,3194821.0,2725266.0,0.0
1583024855963,3195373.0,2725197.0,0.0
1583024856014,3192135.0,2720509.0,0.0
1583024856055,3192933.0,2719400.0,0.0
1583024856105,3190432.0,2718634.0,0.0
1583024856158,3187078.0,2718675.0,0.0
1583024856207,3187588.0,2719613.0,0.0
1583024856255,3191196.0,2720790.0,0.0
1583024856306,3190121.0,2722446.0,0.0
1583024856354,3190148.0,2720946.0,0.0
1583024856401,3189888.0,2720906.0,0.0
1583024856445,3187295.0,2719038.0,0.0
1583024856498,3188545.0,2718175.0,0.0
1583024856547,3185834.0,2719579.0,0.0
1583024856597,3185517.0,2718860.0,0.0
1583024856644,3186606.0,2717114.0,0.0
1583024856694,3185834.0,2715430.0,0.0
1583024856741,3184938.0,2717204.0,0.0
1583024856788,3184442.0,2715115.0,0.0
1583024856839,3182212.0,2714877.0,0.0
1583024856883,3179477.0,2710558.0,0.0
1583024856932,3175576.0,2708163.0,0.0
1583024856985,3176112.0,2710607.0,0.0
1583024857032,3171842.0,2710859.0,0.0
1583024857083,3171683.0,2705842.0,0.0
1583024857126,3171104.0,2703756.0,0.0
1583024857180,3169627.0,2703955.0,0.0
1583024857227,3167203.0,2704631.0,0.0
1583024857277,3166372.0,2702996.0,0.0
1583024857325,3165986.0,2705042.0,0.0
1583024857375,3166967.0,2706992.0,0.0
1583024857423,3166464.0,2706801.0,0.0
1583024857470,3167169.0,2706848.0,0.0
1583024857516,3163948.0,2705007.0,0.0
1583024857568,3163906.0,2708963.0,0.0
1583024857619,3164913.0,2709388.0,0.0
1583024857666,3164836.0,2710873.0,0.0
1583024857713,3164903.0,2712378.0,0.0
1583024857764,3164828.0,2711214.0,0.0
1583024857813,3164007.0,2709552.0,0.0
1583024857857,3158007.0,2706466.0,0.0
1583024857907,3155642.0,2704270.0,0.0
1583024857960,3153688.0,2704570.0,0.0
1583024858009,3147253.0,2705042.0,0.0
1583024858051,3147530.0,2702571.0,0.0
1583024858099,3145870.0,2699511.0,0.0
1583024858152,3142572.0,2698376.0,0.0
1583024858199,3141599.0,2698699.0,0.0
1583024858253,3140173.0,2699670.0,0.0
1583024858294,3141373.0,2701224.0,0.0
1583024858349,3143058.0,2701756.0,0.0
1583024858394,3138588.0,2696638.0,0.0
1583024858442,3130987.0,2699889.0,0.0
1583024858492,3139216.0,2696015.0,0.0
1583024858539,3140323.0,2702845.0,0.0
1583024858590,3144183.0,2704912.0,0.0
1583024858635,3142471.0,2706767.0,0.0
1583024858689,3143830.0,2703906.0,0.0
1583024858738,3141808.0,2705322.0,0.0
1583024858785,3142849.0,2705418.0,0.0
1583024858835,3146237.0,2706446.0,0.0
1583024858882,3181204.0,2706212.0,0.0
1583024858930,3177295.0,2703837.0,0.0
1583024858980,3173822.0,2698254.0,0.0
1583024859029,3168646.0,2701620.0,0.0
1583024859078,3163093.0,2696919.0,0.0
1583024859126,3152806.0,2696754.0,0.0
1583024859170,3154661.0,2694960.0,0.0
1583024859223,3159283.0,2692943.0,0.0
1583024859272,3174334.0,2693660.0,0.0
1583024859314,3174166.0,2703811.0,0.0
1583024859364,3169166.0,2707807.0,0.0
1583024859413,3191046.0,2689814.0,0.0
1583024859463,3184770.0,2687701.0,0.0
1583024859511,3184158.0,2681451.0,0.0
1583024859564,3183268.0,2687398.0,0.0
1583024859614,3185718.0,2689186.0,0.0
1583024859661,3185826.0,2686031.0,0.0
1583024859710,3181413.0,2682916.0,0.0
1583024859753,3188545.0,2682150.0,0.0
1583024859807,3188813.0,2685326.0,0.0
1583024859852,3179324.0,2683190.0,0.0
1583024859904,3171364.0,2675703.0,0.0
1583024859955,3171976.0,2672794.0,0.0
1583024860002,3169643.0,2674123.0,0.0
1583024860050,3166683.0,2675163.0,0.0
1583024860096,3167471.0,2672507.0,0.0
1583024860147,3167715.0,2670817.0,0.0
1583024860191,3167697.0,2670112.0,0.0
1583024860244,3169450.0,2673149.0,0.0
1583024860296,3168696.0,2671528.0,0.0
1583024860342,3168621.0,2671837.0,0.0
1583024860391,3165181.0,2671924.0,0.0
1583024860438,3166683.0,2671522.0,0.0
1583024860488,3168688.0,2674724.0,0.0
1583024860531,3167640.0,2674874.0,0.0
1583024860585,3169200.0,2676319.0,0.0
1583024860634,3169913.0,2676469.0,0.0
1583024860682,3168461.0,2675195.0,0.0
1583024860732,3167187.0,2673054.0,0.0
1583024860779,3168629.0,2672302.0,0.0
1583024860828,3159594.0,2669372.0,0.0
1583024860872,3157865.0,2663397.0,0.0
1583024860926,3158546.0,2666258.0,0.0
1583024860975,3160903.0,2667264.0,0.0
1583024861022,3157814.0,2664978.0,0.0
1583024861073,3157892.0,2661085.0,0.0
1583024861119,3161079.0,2663350.0,0.0
1583024861169,3160994.0,2663781.0,0.0
1583024861212,3160675.0,2666833.0,0.0
1583024861266,3162814.0,2665520.0,0.0
1583024861315,3161490.0,2667832.0,0.0
1583024861364,3161415.0,2667991.0,0.0
1583024861413,3161163.0,2667587.0,0.0
1583024861461,3161313.0,2669673.0,0.0
1583024861511,3161372.0,2669242.0,0.0
1583024861558,3163739.0,2670023.0,0.0
1583024861607,3165962.0,2669893.0,0.0
1583024861651,3167764.0,2673369.0,0.0
1583024861705,3165769.0,2673192.0,0.0
1583024861753,3165710.0,2673623.0,0.0
1583024861801,3168067.0,2674314.0,0.0
1583024861851,3165809.0,2673712.0,0.0
1583024861900,3163922.0,2672938.0,0.0
1583024861949,3164544.0,2671699.0,0.0
1583024861994,3162632.0,2674019.0,0.0
1583024862046,3164669.0,2678475.0,0.0
1583024862095,3164123.0,2673903.0,0.0
1583024862143,3165173.0,2670494.0,0.0
1583024862192,3165667.0,2673842.0,0.0
1583024862240,3162136.0,2673294.0,0.0
1583024862294,3158881.0,2668901.0,0.0
1583024862339,3158085.0,2673095.0,0.0
1583024862387,3154377.0,2670803.0,0.0
1583024862434,3152077.0,2667471.0,0.0
1583024862485,3147404.0,2662460.0,0.0
1583024862534,3146817.0,2663486.0,0.0
1583024862582,3146875.0,2663960.0,0.0
1583024862634,3147479.0,2662865.0,0.0
1583024862679,3145524.0,2663310.0,0.0
1583024862729,3147103.0,2662432.0,0.0
1583024862774,3144980.0,2661577.0,0.0
1583024862826,3143822.0,2661481.0,0.0
1583024862869,3143176.0,2659059.0,0.0
1583024862923,3146162.0,2662796.0,0.0
1583024862973,3143521.0,2661987.0,0.0
1583024863020,3140902.0,2660914.0,0.0
1583024863065,3144108.0,2659195.0,0.0
1583024863114,3138562.0,2660510.0,0.0
1583024863166,3138998.0,2659695.0,0.0
1583024863216,3140835.0,2658724.0,0.0
1583024863263,3137462.0,2657785.0,0.0
1583024863313,3139746.0,2658080.0,0.0
1583024863360,3137639.0,2658415.0,0.0
1583024863410,3139929.0,2658436.0,0.0
1583024863453,3136239.0,2657095.0,0.0
1583024863500,3137655.0,2655869.0,0.0
1583024863553,3132907.0,2653994.0,0.0
1583024863599,3131113.0,2649847.0,0.0
1583024863650,3128403.0,2654398.0,0.0
1583024863696,3126003.0,2653618.0,0.0
1583024863751,3125971.0,2649018.0,0.0
1583024863795,3123453.0,2646658.0,0.0
1583024863847,3122169.0,2647917.0,0.0
1583024863895,3119201.0,2649272.0,0.0
1583024863944,3120140.0,2646698.0,0.0
1583024863993,3119804.0,2648293.0,0.0
1583024864042,3122137.0,2649697.0,0.0
1583024864091,3122807.0,2651599.0,0.0
1583024864135,3121542.0,2650313.0,0.0
1583024864187,3123126.0,2652222.0,0.0
1583024864236,3124402.0,2651887.0,0.0
1583024864285,3124276.0,2653393.0,0.0
1583024864334,3125432.0,2657231.0,0.0
1583024864382,3125920.0,2660051.0,0.0
1583024864431,3128226.0,2657854.0,0.0
1583024864473,3124083.0,2657684.0,0.0
1583024864528,3123134.0,2660331.0,0.0
1583024864578,3128159.0,2663302.0,0.0
1583024864625,3125743.0,2666471.0,0.0
1583024864674,3123923.0,2663671.0,0.0
1583024864723,3120467.0,2666451.0,0.0
1583024864772,3108067.0,2661845.0,0.0
1583024864815,3079243.0,2666416.0,0.0
1583024864868,3071272.0,2664370.0,0.0
1583024864916,3073111.0,2679029.0,0.0
1583024864965,3072666.0,2673635.0,0.0
1583024865015,3078294.0,2670248.0,0.0
1583024865058,3068036.0,2672759.0,0.0
1583024865114,3058521.0,2687071.0,0.0
1583024865156,3065140.0,2682540.0,0.0
1583024865208,3067003.0,2678050.0,0.0
1583024865363,3067859.0,2678761.0,0.0
1583024865363,3084353.0,2687693.0,0.0
1583024865365,3065618.0,2764466.0,0.0
1583024865475,3064797.0,2742292.0,0.0
1583024865475,3125207.0,2778593.0,0.0
1583024865501,3091114.0,2754852.0,0.0
1583024865549,3055553.0,2728899.0,0.0
1583024865598,3033874.0,2727277.0,0.0
1583024865646,2988036.0,2756248.0,0.0
1583024865693,2950930.0,2762406.0,0.0
1583024865741,2929111.0,2789083.0,0.0
1583024865793,2918784.0,2785901.0,0.0
1583024865838,2917475.0,2782541.0,0.0
1583024865889,2928314.0,2774718.0,0.0
1583024865936,2921258.0,2784040.0,0.0
1583024865987,2937165.0,2790966.0,0.0
1583024866036,2949487.0,2804291.0,0.0
1583024866083,2908566.0,2786306.0,0.0
1583024866135,2887860.0,2784075.0,0.0
1583024866179,2906786.0,2778038.0,0.0
1583024866229,2895949.0,2784971.0,0.0
1583024866278,2880932.0,2791432.0,0.0
1583024866326,2901199.0,2787722.0,0.0
1583024866375,2927315.0,2787468.0,0.0
1583024866422,2919866.0,2778550.0,0.0
1583024866473,2915159.0,2805337.0,0.0
1583024866516,2924781.0,2804825.0,0.0
1583024866570,2924816.0,2804221.0,0.0
1583024866614,2926392.0,2806131.0,0.0
1583024866666,2938095.0,2795572.0,0.0
1583024866714,2932542.0,2791163.0,0.0
1583024866759,2935251.0,2797679.0,0.0
1583024866813,2950050.0,2790227.0,0.0
1583024866860,2946299.0,2783780.0,0.0
1583024866911,2972919.0,2792649.0,0.0
1583024866958,3015090.0,2764192.0,0.0
1583024867007,2983883.0,2752977.0,0.0
1583024867057,3002666.0,2782555.0,0.0
1583024867103,3003924.0,2762441.0,0.0
1583024867153,3014361.0,2735660.0,0.0
1583024867199,3031549.0,2711639.0,0.0
1583024867250,3047105.0,2702811.0,0.0
1583024867301,3048311.0,2699615.0,0.0
1583024867348,3058673.0,2701121.0,0.0
1583024867396,3072532.0,2695639.0,0.0
1583024867443,3078688.0,2696480.0,0.0
1583024867494,3068706.0,2698158.0,0.0
1583024867541,3064435.0,2702969.0,0.0
1583024867591,3071508.0,2696023.0,0.0
1583024867639,3063966.0,2694428.0,0.0
1583024867688,3064620.0,2693914.0,0.0
1583024867731,3065786.0,2693914.0,0.0
1583024867783,3069175.0,2697014.0,0.0
1583024867835,3070585.0,2696925.0,0.0
1583024867879,3072532.0,2697390.0,0.0
1583024867926,3075988.0,2703845.0,0.0
1583024867979,3079092.0,2707868.0,0.0
1583024868027,3084208.0,2705917.0,0.0
1583024868071,3086549.0,2708067.0,0.0
1583024868120,3085736.0,2714890.0,0.0
1583024868175,3094192.0,2710607.0,0.0
1583024868220,3088530.0,2710188.0,0.0
1583024868271,3084267.0,2711858.0,0.0
1583024868320,3078656.0,2719674.0,0.0
1583024868471,3077841.0,2710312.0,0.0
1583024868471,3076323.0,2694373.0,0.0
1583024868471,3076030.0,2687427.0,0.0
1583024868631,3079830.0,2687297.0,0.0
1583024868631,3077666.0,2691122.0,0.0
1583024868631,3082272.0,2692039.0,0.0
1583024868675,3083546.0,2695235.0,0.0
1583024868708,3086104.0,2699656.0,0.0
1583024868756,3087203.0,2695029.0,0.0
1583024868804,3083396.0,2695180.0,0.0
1583024868935,3084342.0,2696980.0,0.0
1583024868935,3086650.0,2699901.0,0.0
1583024868961,3084310.0,2701785.0,0.0
1583024869092,3080007.0,2698341.0,0.0
1583024869093,3081752.0,2694830.0,0.0
1583024869116,3079738.0,2694570.0,0.0
1583024869155,3078186.0,2690712.0,0.0
1583024869195,3073353.0,2689542.0,0.0
1583024869241,3070669.0,2689507.0,0.0
1583024869292,3064277.0,2682540.0,0.0
1583024869340,3063671.0,2686988.0,0.0
1583024869389,3067003.0,2693969.0,0.0
1583024869551,3075803.0,2693333.0,0.0
1583024869699,3080484.0,2695549.0,0.0
1583024869700,3077934.0,2698861.0,0.0
1583024869700,3080903.0,2700074.0,0.0
1583024869728,3084200.0,2699245.0,0.0
1583024869778,3083672.0,2697604.0,0.0
1583024869823,3082892.0,2694974.0,0.0
1583024869875,3078688.0,2691848.0,0.0
1583024869921,3075350.0,2692750.0,0.0
1583024869973,3078814.0,2694078.0,0.0
1583024870021,3077331.0,2691074.0,0.0
1583024870069,3070610.0,2691539.0,0.0
1583024870118,3071441.0,2689562.0,0.0
1583024870165,3070333.0,2690917.0,0.0
1583024870217,3070744.0,2690198.0,0.0
1583024870261,3074184.0,2693270.0,0.0
1583024870315,3074688.0,2692957.0,0.0
1583024870361,3071685.0,2694914.0,0.0
1583024870411,3077331.0,2695665.0,0.0
1583024870459,3078202.0,2697419.0,0.0
1583024870507,3080653.0,2700381.0,0.0
1583024870557,3081366.0,2702010.0,0.0
1583024870600,3085811.0,2702715.0,0.0
1583024870656,3087187.0,2704467.0,0.0
1583024870702,3088621.0,2706562.0,0.0
1583024870753,3089527.0,2707527.0,0.0
1583024870800,3090358.0,2707718.0,0.0
1583024870848,3089393.0,2708301.0,0.0
1583024870898,3091374.0,2707521.0,0.0
1583024870947,3087691.0,2709792.0,0.0
1583024870995,3086315.0,2708258.0,0.0
1583024871042,3084353.0,2708484.0,0.0
1583024871093,3082380.0,2705562.0,0.0
1583024871140,3088184.0,2708354.0,0.0
1583024871190,3094251.0,2713193.0,0.0
1583024871238,3095056.0,2715528.0,0.0
1583024871281,3094058.0,2708252.0,0.0
1583024871336,3090350.0,2702996.0,0.0
1583024871383,3088830.0,2699820.0,0.0
1583024871434,3090911.0,2703721.0,0.0
1583024871481,3090442.0,2701635.0,0.0
1583024871531,3087849.0,2694324.0,0.0
1583024871579,3088613.0,2688542.0,0.0
1583024871623,3080903.0,2692518.0,0.0
1583024871676,3081658.0,2692414.0,0.0
1583024871723,3089225.0,2690157.0,0.0
1583024871775,3088873.0,2694798.0,0.0
1583024871822,3085980.0,2694434.0,0.0
1583024871872,3089570.0,2695858.0,0.0
1583024871920,3082430.0,2696604.0,0.0
1583024871969,3084227.0,2692894.0,0.0
1583024872018,3081516.0,2694633.0,0.0
1583024872065,3076532.0,2691602.0,0.0
1583024872115,3080082.0,2690472.0,0.0
1583024872164,3081969.0,2690923.0,0.0
1583024872213,3086449.0,2689048.0,0.0
1583024872256,3090299.0,2695529.0,0.0
1583024872313,3101574.0,2690417.0,0.0
1583024872359,3098294.0,2699641.0,0.0
1583024872404,3102648.0,2692943.0,0.0
1583024872455,3101785.0,2697226.0,0.0
1583024872504,3098898.0,2690438.0,0.0
1583024872553,3094528.0,2684826.0,0.0
1583024872600,3088613.0,2683532.0,0.0
1583024872648,3086876.0,2678523.0,0.0
1583024872699,3083706.0,2684696.0,0.0
1583024872744,3083077.0,2685626.0,0.0
1583024872806,3084881.0,2677024.0,0.0
1583024872844,3085921.0,2679659.0,0.0
1583024872889,3083152.0,2674744.0,0.0
1583024872935,3084814.0,2674834.0,0.0
1583024872990,3085334.0,2676524.0,0.0
1583024873039,3087095.0,2675915.0,0.0
1583024873085,3088144.0,2674369.0,0.0
1583024873135,3085870.0,2678836.0,0.0
1583024873184,3109319.0,2670522.0,0.0
1583024873234,3103386.0,2682526.0,0.0
1583024873281,3091951.0,2680301.0,0.0
1583024873325,3075384.0,2683566.0,0.0
1583024873380,3078111.0,2675108.0,0.0
1583024873425,3087313.0,2670673.0,0.0
1583024873476,3077892.0,2686181.0,0.0
1583024873525,3070333.0,2689397.0,0.0
1583024873575,3062003.0,2691888.0,0.0
1583024873622,3055829.0,2689712.0,0.0
1583024873669,3053941.0,2689657.0,0.0
1583024873720,3055041.0,2679336.0,0.0
1583024873766,3059250.0,2675004.0,0.0
1583024873817,3051853.0,2678851.0,0.0
1583024873864,3054569.0,2671699.0,0.0
1583024873914,3054545.0,2669687.0,0.0
1583024873962,3055250.0,2665478.0,0.0
1583024874013,3047354.0,2662966.0,0.0
1583024874054,3048655.0,2656493.0,0.0
1583024874105,3050317.0,2654618.0,0.0
1583024874156,3054252.0,2650067.0,0.0
1583024874205,3048890.0,2659640.0,0.0
1583024874254,3052172.0,2654555.0,0.0
1583024874301,3049872.0,2659805.0,0.0
1583024874353,3048874.0,2652324.0,0.0
1583024874399,3041869.0,2654740.0,0.0
1583024874447,3042566.0,2650449.0,0.0
1583024874496,3044965.0,2653228.0,0.0
1583024874545,3046877.0,2648758.0,0.0
1583024874595,3004277.0,2641985.0,0.0
1583024874642,3025753.0,2647773.0,0.0
1583024874689,3043898.0,2665622.0,0.0
1583024874733,3094410.0,2688117.0,0.0
1583024874786,3119561.0,2671144.0,0.0
1583024874834,3087683.0,2655404.0,0.0
1583024874882,3066599.0,2642655.0,0.0
1583024874930,3039327.0,2640245.0,0.0
1583024874979,3037750.0,2629979.0,0.0
1583024875033,3032675.0,2630952.0,0.0
1583024875075,3035182.0,2627537.0,0.0
1583024875126,3032742.0,2632389.0,0.0
1583024875173,3031214.0,2632990.0,0.0
1583024875222,3028699.0,2632504.0,0.0
1583024875271,3031442.0,2630692.0,0.0
1583024875319,3029209.0,2629063.0,0.0
1583024875369,3025501.0,2630568.0,0.0
1583024875420,3027372.0,2631533.0,0.0
1583024875467,3022707.0,2632860.0,0.0
1583024875514,3025737.0,2630274.0,0.0
1583024875566,3023739.0,2633429.0,0.0
1583024875616,3023522.0,2631328.0,0.0
1583024875662,3019940.0,2633620.0,0.0
1583024875713,3022281.0,2633148.0,0.0
1583024875760,3022691.0,2632998.0,0.0
1583024875809,3019034.0,2630643.0,0.0
1583024875857,3014999.0,2624806.0,0.0
1583024875906,3007934.0,2629424.0,0.0
1583024875955,3009763.0,2629152.0,0.0
1583024876002,3005880.0,2627817.0,0.0
1583024876051,3001853.0,2624765.0,0.0
1583024876100,3000988.0,2623650.0,0.0
1583024876149,2999052.0,2621911.0,0.0
1583024876191,2995813.0,2624353.0,0.0
1583024876240,2999529.0,2626523.0,0.0
1583024876289,2998312.0,2628461.0,0.0
1583024876339,2995998.0,2627208.0,0.0
1583024876391,2996441.0,2631054.0,0.0
1583024876437,2997615.0,2632238.0,0.0
1583024876486,2997323.0,2633949.0,0.0
1583024876539,3000829.0,2638069.0,0.0
1583024876586,2999680.0,2642696.0,0.0
1583024876632,2999243.0,2644207.0,0.0
1583024876684,2997725.0,2646056.0,0.0
1583024876729,2998926.0,2644461.0,0.0
1583024876775,2995612.0,2644967.0,0.0
1583024876831,2996400.0,2643167.0,0.0
1583024876879,2992532.0,2640115.0,0.0
1583024876927,2987599.0,2636119.0,0.0
1583024876976,2982223.0,2636214.0,0.0
1583024877025,2980293.0,2638130.0,0.0
1583024877069,2978438.0,2632949.0,0.0
1583024877121,2976936.0,2633142.0,0.0
1583024877171,2974413.0,2629117.0,0.0
1583024877218,2971652.0,2630129.0,0.0
1583024877267,2972716.0,2633354.0,0.0
1583024877311,2972214.0,2634325.0,0.0
1583024877364,2974797.0,2636544.0,0.0
1583024877410,2976518.0,2637714.0,0.0
1583024877461,2974740.0,2637994.0,0.0
1583024877510,2976290.0,2638055.0,0.0
1583024877562,2973322.0,2637836.0,0.0
1583024877604,2972936.0,2640491.0,0.0
1583024877655,2973968.0,2642765.0,0.0
1583024877704,2976014.0,2641670.0,0.0
1583024877751,2970067.0,2642045.0,0.0
1583024877802,2967088.0,2633073.0,0.0
1583024877852,2962557.0,2634053.0,0.0
1583024877899,2958774.0,2633969.0,0.0
1583024877949,2953632.0,2632669.0,0.0
1583024877997,2957249.0,2627386.0,0.0
1583024878045,2959203.0,2621362.0,0.0
1583024878098,2956844.0,2628282.0,0.0
1583024878142,2955503.0,2629308.0,0.0
1583024878192,2956040.0,2629699.0,0.0
1583024878239,2953404.0,2636090.0,0.0
1583024878289,2955981.0,2635070.0,0.0
1583024878331,2963045.0,2639670.0,0.0
1583024878386,2962675.0,2644126.0,0.0
1583024878432,2963506.0,2649224.0,0.0
1583024878482,2964555.0,2647738.0,0.0
1583024878532,2964831.0,2649449.0,0.0
1583024878578,2962868.0,2650046.0,0.0
1583024878629,2965788.0,2651347.0,0.0
1583024878672,2959932.0,2650394.0,0.0
1583024878726,2956442.0,2640444.0,0.0
1583024878775,2949613.0,2640855.0,0.0
1583024878823,2944900.0,2643586.0,0.0
1583024878874,2947265.0,2641101.0,0.0
1583024878920,2944833.0,2640205.0,0.0
1583024878969,2946066.0,2640800.0,0.0
1583024879016,2944698.0,2642291.0,0.0
1583024879066,2944235.0,2644530.0,0.0
1583024879113,2945712.0,2646192.0,0.0
1583024879163,2947559.0,2649622.0,0.0
1583024879212,2949605.0,2651298.0,0.0
1583024879260,2948506.0,2652058.0,0.0
1583024879311,2946937.0,2654904.0,0.0
1583024879356,2953364.0,2656916.0,0.0
1583024879406,2956383.0,2662905.0,0.0
1583024879451,2961332.0,2666642.0,0.0
1583024879503,2959790.0,2669509.0,0.0
1583024879552,2963665.0,2671534.0,0.0
1583024879601,2957415.0,2664397.0,0.0
1583024879650,2951182.0,2661694.0,0.0
1583024879695,2945117.0,2661516.0,0.0
1583024879741,2946661.0,2660400.0,0.0
1583024879792,2942986.0,2660620.0,0.0
1583024879840,2943171.0,2660571.0,0.0
1583024879887,2942776.0,2661646.0,0.0
1583024879936,2942299.0,2661686.0,0.0
1583024879988,2942902.0,2661790.0,0.0
1583024880040,2945578.0,2667162.0,0.0
1583024880082,2996559.0,2660926.0,0.0
1583024880292,3228342.0,2836703.0,0.0
1583024880292,2968354.0,2661126.0,0.0
1583024880292,2963480.0,2345348.0,0.0
1583024880292,3146642.0,2104076.0,0.0
1583024880349,3156197.0,2290446.0,0.0
1583024880398,3011130.0,2502528.0,0.0
1583024880429,2810890.0,2482133.0,0.0
1583024880473,2963145.0,2299652.0,0.0
1583024880526,3056014.0,2221884.0,0.0
1583024880575,3892134.0,2119153.0,0.0
1583024880623,4341816.0,1729399.0,0.0
1583024880672,4598332.0,1875195.0,0.0
1583024880720,5086866.0,2011658.0,0.0
1583024880769,5213994.0,1793729.0,0.0
1583024880812,5232745.0,1782450.0,0.0
1583024880866,5390390.0,1818906.0,0.0
1583024880915,5358732.0,1843634.0,0.0
1583024880963,5342224.0,1846983.0,0.0
1583024881013,5478891.0,1885391.0,0.0
1583024881061,5261116.0,1944815.0,0.0
1583024881110,5042301.0,2128950.0,0.0
1583024881153,5032283.0,2179689.0,0.0
1583024881206,5021417.0,2290826.0,0.0
1583024881257,5098351.0,2405280.0,0.0
1583024881304,5227648.0,2521569.0,0.0
1583024881352,5293047.0,2657233.0,0.0
1583024881400,5302739.0,2746126.0,0.0
1583024881451,5309251.0,2796332.0,0.0
1583024881496,5406277.0,2907503.0,0.0
1583024881547,5446779.0,2959922.0,0.0
1583024881601,5457724.0,3001730.0,0.0
1583024881644,5519823.0,3061443.0,0.0
1583024881692,5594654.0,3118799.0,0.0
1583024881741,5675522.0,3180808.0,0.0
1583024881790,5766251.0,3241323.0,0.0
1583024881835,5818817.0,3290305.0,0.0
1583024881883,6233256.0,3425883.0,0.0
1583024881935,6575512.0,3529750.0,0.0
1583024881985,6669202.0,3656972.0,0.0
1583024882033,6501156.0,3700274.0,0.0
1583024882077,6396871.0,3810052.0,0.0
1583024882130,6336967.0,3859707.0,0.0
1583024882176,6192788.0,3913969.0,0.0
1583024882228,6337192.0,3968140.0,0.0
1583024882276,6191160.0,4011585.0,0.0
1583024882318,6317935.0,4075416.0,0.0
1583024882367,6228282.0,4095707.0,0.0
1583024882417,6338401.0,4143888.0,0.0
1583024882467,6285903.0,4158711.0,0.0
1583024882515,6348296.0,4187999.0,0.0
1583024882563,6342710.0,4202172.0,0.0
1583024882613,6354978.0,4218481.0,0.0
1583024882661,6392202.0,4249474.0,0.0
1583024882710,6435405.0,4282648.0,0.0
1583024882758,6457488.0,4315806.0,0.0
1583024882812,6495130.0,4344787.0,0.0
1583024882854,6511095.0,4366986.0,0.0
1583024882908,6517575.0,4387293.0,0.0
1583024882957,6537939.0,4403492.0,0.0
1583024883006,6559331.0,4424452.0,0.0
1583024883055,6597345.0,4440261.0,0.0
1583024883101,6625670.0,4456194.0,0.0
1583024883155,6678202.0,4483478.0,0.0
1583024883198,6689997.0,4514602.0,0.0
1583024883249,6755917.0,4533042.0,0.0
1583024883301,7295411.0,4548707.0,0.0
1583024883346,7495089.0,4636300.0,0.0
1583024883395,7530634.0,4601602.0,0.0
1583024883442,7417675.0,4602542.0,0.0
1583024883493,7412137.0,4633360.0,0.0
1583024883537,7440049.0,4646013.0,0.0
1583024883589,7373191.0,4617856.0,0.0
1583024883637,7380649.0,4613944.0,0.0
1583024883686,7395578.0,4588769.0,0.0
1583024883734,7424713.0,4591660.0,0.0
1583024883781,7421382.0,4526094.0,0.0
1583024883833,7473400.0,4531504.0,0.0
1583024883876,7475521.0,4521872.0,0.0
1583024883929,7513276.0,4527425.0,0.0
1583024883978,7530271.0,4532555.0,0.0
1583024884026,7554170.0,4533955.0,0.0
1583024884075,7566077.0,4545828.0,0.0
1583024884122,7582403.0,4551080.0,0.0
1583024884172,7610054.0,4565404.0,0.0
1583024884218,7633619.0,4580447.0,0.0
1583024884270,7651137.0,4589720.0,0.0
1583024884321,7663770.0,4603993.0,0.0
1583024884367,7695420.0,4618485.0,0.0
1583024884415,7691452.0,4622327.0,0.0
1583024884462,7715975.0,4633090.0,0.0
1583024884513,7736343.0,4649925.0,0.0
1583024884555,7756724.0,4675240.0,0.0
1583024884610,7774286.0,4694515.0,0.0
1583024884659,7789479.0,4709989.0,0.0
1583024884707,7785291.0,4719530.0,0.0
1583024884757,7802417.0,4726643.0,0.0
1583024884804,7826667.0,4735305.0,0.0
1583024884849,7833411.0,4743086.0,0.0
1583024884899,7849620.0,4772484.0,0.0
1583024884950,7848066.0,4781456.0,0.0
1583024884998,7875949.0,4801080.0,0.0
1583024885041,7880643.0,4800851.0,0.0
1583024885092,7876835.0,4784136.0,0.0
1583024885146,7891808.0,4781507.0,0.0
1583024885195,7916784.0,4776254.0,0.0
1583024885236,7942400.0,4771413.0,0.0
1583024885293,7964193.0,4754249.0,0.0
1583024885339,7969744.0,4750029.0,0.0
1583024885389,7989488.0,4763721.0,0.0
1583024885436,8014753.0,4782407.0,0.0
1583024885485,8035500.0,4798171.0,0.0
1583024885534,8036764.0,4802182.0,0.0
1583024885577,8042187.0,4801040.0,0.0
1583024885632,8051521.0,4804681.0,0.0
1583024885680,8055794.0,4812092.0,0.0
1583024885723,8059778.0,4817194.0,0.0
1583024885776,8065679.0,4824586.0,0.0
1583024885826,8080044.0,4825006.0,0.0
1583024885875,8118844.0,4838351.0,0.0
1583024885918,8153707.0,4863057.0,0.0
1583024885974,8251240.0,4887931.0,0.0
1583024886019,8388432.0,4913349.0,0.0
1583024886069,8450434.0,4980884.0,0.0
1583024886118,8466907.0,5029546.0,0.0
1583024886165,8224475.0,5015324.0,0.0
1583024886215,8283702.0,5039809.0,0.0
1583024886258,8100425.0,4823826.0,0.0
1583024886312,8046824.0,4768442.0,0.0
1583024886360,8015438.0,4807052.0,0.0
1583024886410,8047900.0,4820085.0,0.0
1583024886458,8069083.0,4848363.0,0.0
1583024886507,8091266.0,4804201.0,0.0
1583024886556,8050445.0,4806912.0,0.0
1583024886598,8047652.0,4802881.0,0.0
1583024886653,8030179.0,4785176.0,0.0
1583024886702,8042827.0,4789278.0,0.0
1583024886749,8027692.0,4772973.0,0.0
1583024886797,8036895.0,4825106.0,0.0
1583024886843,8082849.0,4852744.0,0.0
1583024886896,8169667.0,4826396.0,0.0
1583024886943,8128556.0,4823155.0,0.0
1583024886991,8123177.0,4840200.0,0.0
1583024887041,8089521.0,4853794.0,0.0
1583024887086,8072863.0,4885902.0,0.0
1583024887138,8051607.0,4914279.0,0.0
1583024887188,8031851.0,4935883.0,0.0
1583024887236,8009216.0,4979994.0,0.0
1583024887280,7996975.0,4984216.0,0.0
1583024887334,7979107.0,4958908.0,0.0
1583024887380,7968990.0,4941515.0,0.0
1583024887424,7966009.0,4939164.0,0.0
1583024887474,7957548.0,4942254.0,0.0
1583024887524,7940830.0,4919769.0,0.0
1583024887573,7927674.0,4914988.0,0.0
1583024887621,7914401.0,4907546.0,0.0
1583024887671,7897391.0,4898115.0,0.0
1583024887721,7877025.0,4885552.0,0.0
1583024887770,7843210.0,4868878.0,0.0
1583024887818,7798870.0,4836390.0,0.0
1583024887868,7773136.0,4823107.0,0.0
1583024887917,7742623.0,4801340.0,0.0
1583024887959,7724828.0,4790247.0,0.0
1583024888013,7697716.0,4771234.0,0.0
1583024888060,7670938.0,4757479.0,0.0
1583024888112,7641660.0,4736365.0,0.0
1583024888159,7620652.0,4729063.0,0.0
1583024888209,7603570.0,4717590.0,0.0
1583024888256,7585601.0,4701027.0,0.0
1583024888300,7569363.0,4692914.0,0.0
1583024888355,7546059.0,4679712.0,0.0
1583024888402,7529994.0,4672048.0,0.0
1583024888539,7522434.0,4657576.0,0.0
1583024888539,7504044.0,4647033.0,0.0
1583024888559,7492007.0,4634229.0,0.0
1583024888709,7479520.0,4627348.0,0.0
1583024888709,7464225.0,4615576.0,0.0
1583024888709,7419334.0,4592920.0,0.0
1583024888760,7382697.0,4568153.0,0.0
1583024888792,7354976.0,4544617.0,0.0
1583024888838,7331395.0,4533575.0,0.0
1583024888890,7307162.0,4512640.0,0.0
1583024888933,7281616.0,4497076.0,0.0
1583024888981,7262093.0,4481233.0,0.0
1583024889032,7241798.0,4462618.0,0.0
1583024889084,7218917.0,4450625.0,0.0
1583024889133,7202852.0,4441382.0,0.0
1583024889181,7187850.0,4427580.0,0.0
1583024889231,7174692.0,4415567.0,0.0
1583024889277,7164807.0,4407515.0,0.0
1583024889321,7147232.0,4399963.0,0.0
1583024889375,7136444.0,4388969.0,0.0
1583024889423,7128173.0,4380147.0,0.0
1583024889473,7120875.0,4373717.0,0.0
1583024889520,7103952.0,4359153.0,0.0
1583024889570,7076012.0,4344539.0,0.0
1583024889619,7034070.0,4323453.0,0.0
1583024889663,7012234.0,4305879.0,0.0
1583024889717,6992054.0,4287804.0,0.0
1583024889763,6972473.0,4276752.0,0.0
1583024889812,6956439.0,4266591.0,0.0
1583024889860,6935708.0,4253947.0,0.0
1583024889911,6914962.0,4241643.0,0.0
1583024889958,6901195.0,4232403.0,0.0
1583024890002,6891352.0,4223420.0,0.0
1583024890051,6880538.0,4211616.0,0.0
1583024890103,6872163.0,4209036.0,0.0
1583024890152,6862393.0,4200974.0,0.0
1583024890200,6858976.0,4191741.0,0.0
1583024890251,6851521.0,4185851.0,0.0
1583024890299,6845719.0,4183190.0,0.0
1583024890343,6822138.0,4168766.0,0.0
1583024890397,6792685.0,4152173.0,0.0
1583024890444,6770458.0,4143581.0,0.0
1583024890490,6751937.0,4134099.0,0.0
1583024890537,6737935.0,4124765.0,0.0
1583024890589,6731757.0,4118393.0,0.0
1583024890638,6716144.0,4110273.0,0.0
1583024890683,6697056.0,4104720.0,0.0
1583024890736,6690296.0,4096828.0,0.0
1583024890778,6677997.0,4087086.0,0.0
1583024890834,6675074.0,4087137.0,0.0
1583024890877,6666731.0,4080664.0,0.0
1583024890927,6665422.0,4083346.0,0.0
1583024890979,6657253.0,4076424.0,0.0
1583024891023,6650187.0,4075733.0,0.0
1583024891075,6649445.0,4072563.0,0.0
1583024891124,6644459.0,4067301.0,0.0
1583024891174,6611458.0,4057849.0,0.0
1583024891223,6590714.0,4044497.0,0.0
1583024891273,6570825.0,4034844.0,0.0
1583024891320,6562656.0,4034444.0,0.0
1583024891363,6554268.0,4030553.0,0.0
1583024891416,6539569.0,4023931.0,0.0
1583024891464,6534757.0,4017040.0,0.0
1583024891514,6523577.0,4012619.0,0.0
1583024891561,6516469.0,4010447.0,0.0
1583024891613,6515116.0,4008626.0,0.0
1583024891660,6519886.0,4009707.0,0.0
1583024891705,6523520.0,4007716.0,0.0
1583024891756,6518752.0,4005957.0,0.0
1583024891805,6518068.0,4005016.0,0.0
1583024891862,6520131.0,4006676.0,0.0
1583024891903,6523070.0,4009648.0,0.0
1583024891953,6526296.0,4005877.0,0.0
1583024891999,6508387.0,4001135.0,0.0
1583024892044,6489312.0,3991513.0,0.0
1583024892093,6484558.0,3993384.0,0.0
1583024892146,6479950.0,3991574.0,0.0
1583024892195,6477899.0,3989652.0,0.0
1583024892242,6479326.0,3987712.0,0.0
1583024892292,6471403.0,3985001.0,0.0
1583024892337,6468304.0,3984532.0,0.0
1583024892387,6468422.0,3980149.0,0.0
1583024892438,6471998.0,3987622.0,0.0
1583024892486,6475851.0,3983951.0,0.0
1583024892532,6477829.0,3982770.0,0.0
1583024892584,6484790.0,3984172.0,0.0
1583024892633,6492977.0,3984142.0,0.0
1583024892680,6490112.0,3983611.0,0.0
1583024892817,6498225.0,3984111.0,0.0
1583024892818,6505116.0,3987222.0,0.0
1583024892836,6507629.0,3984631.0,0.0
1583024892933,6497060.0,3975980.0,0.0
1583024892933,6489704.0,3970218.0,0.0
1583024892989,6482813.0,3966598.0,0.0
1583024893020,6482176.0,3971039.0,0.0
1583024893066,6476826.0,3967557.0,0.0
1583024893118,6472144.0,3965277.0,0.0
1583024893167,6471839.0,3965277.0,0.0
1583024893216,6469323.0,3962496.0,0.0
1583024893265,6468480.0,3957544.0,0.0
1583024893311,6470240.0,3964517.0,0.0
1583024893362,6469148.0,3962896.0,0.0
1583024893408,6475415.0,3966187.0,0.0
1583024893459,6477071.0,3966256.0,0.0
1583024893507,6472406.0,3964537.0,0.0
1583024893557,6474354.0,3964367.0,0.0
1583024893605,6467171.0,3967997.0,0.0
1583024893650,6472348.0,3969328.0,0.0
1583024893701,6467928.0,3971358.0,0.0
1583024893748,6466139.0,3969668.0,0.0
1583024893799,6463320.0,3965677.0,0.0
1583024893848,6444682.0,3957554.0,0.0
1583024893896,6435931.0,3953594.0,0.0
1583024893944,6424053.0,3933368.0,0.0
1583024893992,6426015.0,3933299.0,0.0
1583024894041,6432208.0,3925447.0,0.0
1583024894090,6444217.0,3937509.0,0.0
1583024894139,6448809.0,3938750.0,0.0
1583024894188,6455847.0,3938019.0,0.0
1583024894238,6463872.0,3942861.0,0.0
1583024894285,6464728.0,3940992.0,0.0
1583024894329,6466664.0,3936790.0,0.0
1583024894382,6466998.0,3937239.0,0.0
1583024894429,6471314.0,3938371.0,0.0
1583024894480,6476549.0,3941270.0,0.0
1583024894529,6475326.0,3936810.0,0.0
1583024894578,6479704.0,3942251.0,0.0
1583024894625,6480867.0,3941241.0,0.0
1583024894674,6485765.0,3941591.0,0.0
1583024894723,6472377.0,3935360.0,0.0
1583024894770,6455541.0,3928129.0,0.0
1583024894820,6443998.0,3920426.0,0.0
1583024894869,6436250.0,3918955.0,0.0
1583024894918,6429795.0,3912403.0,0.0
1583024894966,6419576.0,3909853.0,0.0
1583024895122,6409500.0,3903632.0,0.0
1583024895122,6397100.0,3902201.0,0.0
1583024895122,6389104.0,3896590.0,0.0
1583024895282,6386661.0,3893640.0,0.0
1583024895282,6380018.0,3889678.0,0.0
1583024895282,6375904.0,3880927.0,0.0
1583024895326,6372284.0,3882577.0,0.0
1583024895351,6368679.0,3875415.0,0.0
1583024895403,6367386.0,3873844.0,0.0
1583024895449,6367618.0,3871853.0,0.0
1583024895501,6363211.0,3866453.0,0.0
1583024895551,6364099.0,3867832.0,0.0
1583024895599,6360479.0,3863401.0,0.0
1583024895646,6358982.0,3860171.0,0.0
1583024895694,6348165.0,3853720.0,0.0
1583024895743,6338891.0,3846548.0,0.0
1583024895791,6324323.0,3835564.0,0.0
1583024895841,6320820.0,3830493.0,0.0
1583024895891,6309728.0,3822181.0,0.0
1583024895935,6302547.0,3814540.0,0.0
1583024895986,6296965.0,3808808.0,0.0
1583024896030,6293605.0,3802146.0,0.0
1583024896084,6287281.0,3795356.0,0.0
1583024896134,6284549.0,3792014.0,0.0
1583024896181,6282893.0,3787483.0,0.0
1583024896230,6279562.0,3779011.0,0.0
1583024896276,6275288.0,3780191.0,0.0
1583024896331,6272206.0,3772850.0,0.0
1583024896371,6272788.0,3768909.0,0.0
1583024896425,6274139.0,3768139.0,0.0
1583024896473,6273543.0,3762677.0,0.0
1583024896521,6275957.0,3761576.0,0.0
1583024896571,6278282.0,3758726.0,0.0
1583024896617,6281759.0,3757545.0,0.0
1583024896668,6273238.0,3752165.0,0.0
1583024896711,6258774.0,3741171.0,0.0
1583024896765,6247915.0,3732049.0,0.0
1583024896815,6240282.0,3724117.0,0.0
1583024896862,6237186.0,3719617.0,0.0
1583024896913,6232562.0,3713105.0,0.0
1583024896960,6230483.0,3707595.0,0.0
1583024897009,6221920.0,3701613.0,0.0
1583024897052,6216048.0,3692279.0,0.0
1583024897102,6213882.0,3687950.0,0.0
1583024897152,6212020.0,3684217.0,0.0
1583024897203,6206380.0,3683149.0,0.0
1583024897253,6208937.0,3682588.0,0.0
1583024897301,6200651.0,3676907.0,0.0
1583024897351,6199110.0,3674455.0,0.0
1583024897397,6194155.0,3665513.0,0.0
1583024897443,6190709.0,3664483.0,0.0
1583024897490,6194387.0,3662652.0,0.0
1583024897544,6196190.0,3659272.0,0.0
1583024897595,6189907.0,3656332.0,0.0
1583024897639,6172389.0,3645358.0,0.0
1583024897687,6158900.0,3629765.0,0.0
1583024897734,6155846.0,3625703.0,0.0
1583024897788,6157241.0,3622493.0,0.0
1583024897831,6150716.0,3616211.0,0.0
1583024897884,6152983.0,3614961.0,0.0
1583024897932,6145452.0,3606729.0,0.0
1583024897981,6146034.0,3597226.0,0.0
1583024898031,6143009.0,3598396.0,0.0
1583024898080,6141019.0,3595926.0,0.0
1583024898128,6141831.0,3597866.0,0.0
1583024898173,6138271.0,3589544.0,0.0
1583024898225,6140786.0,3585773.0,0.0
1583024898273,6145583.0,3585123.0,0.0
1583024898322,6145786.0,3582943.0,0.0
1583024898372,6144566.0,3580092.0,0.0
1583024898420,6148649.0,3577602.0,0.0
1583024898469,6147850.0,3578583.0,0.0
1583024898513,6138678.0,3568599.0,0.0
1583024898566,6127861.0,3559068.0,0.0
1583024898613,6117161.0,3552146.0,0.0
1583024898663,6109165.0,3545315.0,0.0
1583024898712,6109356.0,3540494.0,0.0
1583024898760,6102159.0,3535571.0,0.0
1583024898809,6102841.0,3534602.0,0.0
1583024898852,6095631.0,3528870.0,0.0
1583024898907,6092768.0,3524778.0,0.0
1583024898953,6090049.0,3522698.0,0.0
1583024899004,6091096.0,3517807.0,0.0
1583024899052,6094134.0,3520839.0,0.0
1583024899096,6091138.0,3513205.0,0.0
1583024899150,6093189.0,3514656.0,0.0
1583024899194,6092316.0,3514936.0,0.0
1583024899246,6090702.0,3508455.0,0.0
1583024899293,6094672.0,3511255.0,0.0
1583024899344,6092128.0,3507716.0,0.0
1583024899394,6083913.0,3499664.0,0.0
1583024899441,6070872.0,3491031.0,0.0
1583024899490,6062369.0,3483030.0,0.0
1583024899534,6062383.0,3481329.0,0.0
1583024899587,6053807.0,3475636.0,0.0
1583024899634,6051743.0,3471577.0,0.0
1583024899684,6048036.0,3463803.0,0.0
1583024899734,6048020.0,3464785.0,0.0
1583024899781,6042817.0,3461493.0,0.0
1583024899830,6042046.0,3458834.0,0.0
1583024899875,6034776.0,3461063.0,0.0
1583024899927,6038104.0,3457794.0,0.0
1583024899975,6036594.0,3455242.0,0.0
1583024900024,6032684.0,3452322.0,0.0
1583024900074,6036971.0,3452921.0,0.0
1583024900121,6038906.0,3449801.0,0.0
1583024900171,6040403.0,3449551.0,0.0
1583024900215,6028570.0,3441119.0,0.0
1583024900267,6016504.0,3431556.0,0.0
1583024900314,6009654.0,3424024.0,0.0
1583024900365,6004451.0,3420824.0,0.0
1583024900414,6001340.0,3415903.0,0.0
1583024900462,6004769.0,3416362.0,0.0
1583024900514,6001107.0,3411000.0,0.0
1583024900554,5993620.0,3405830.0,0.0
1583024900608,5989114.0,3405480.0,0.0
1583024900655,5985538.0,3402069.0,0.0
1583024900705,5987615.0,3398708.0,0.0
1583024900754,5989389.0,3395267.0,0.0
1583024900802,5993853.0,3398609.0,0.0
1583024900851,5996483.0,3396929.0,0.0
1583024900894,5994595.0,3394677.0,0.0
1583024900948,5992283.0,3394127.0,0.0
1583024900995,5989898.0,3383875.0,0.0
1583024901045,5979590.0,3376503.0,0.0
1583024901094,5969575.0,3372121.0,0.0
1583024901143,5966537.0,3370991.0,0.0
1583024901192,5963906.0,3367432.0,0.0
1583024901234,5959572.0,3364130.0,0.0
1583024901289,5951242.0,3361119.0,0.0
1583024901339,5945965.0,3358929.0,0.0
1583024901462,5935339.0,3352756.0,0.0
1583024901463,5926413.0,3347445.0,0.0
1583024901518,5923591.0,3348307.0,0.0
1583024901565,5924508.0,3345485.0,0.0
1583024901653,5919900.0,3343725.0,0.0
1583024901653,5913780.0,3342065.0,0.0
1583024901703,5914812.0,3339715.0,0.0
1583024901727,5911481.0,3342925.0,0.0
1583024901776,5911614.0,3339253.0,0.0
1583024901825,5905739.0,3333241.0,0.0
1583024901873,5890256.0,3326732.0,0.0
1583024901920,5889167.0,3320829.0,0.0
1583024901972,5883177.0,3320389.0,0.0
1583024902016,5882407.0,3321270.0,0.0
1583024902068,5879209.0,3314878.0,0.0
1583024902115,5880458.0,3311837.0,0.0
1583024902165,5879149.0,3309437.0,0.0
1583024902214,5883235.0,3307836.0,0.0
1583024902261,5895533.0,3307357.0,0.0
1583024902313,5905653.0,3316579.0,0.0
1583024902357,5922384.0,3324310.0,0.0
1583024902408,5924435.0,3332352.0,0.0
1583024902457,5920684.0,3330222.0,0.0
1583024902505,5922996.0,3332693.0,0.0
1583024902554,5921251.0,3334022.0,0.0
1583024902601,5925626.0,3332683.0,0.0
1583024902651,5931632.0,3335044.0,0.0
1583024902697,5927721.0,3329481.0,0.0
1583024902749,5921744.0,3328422.0,0.0
1583024902793,5912398.0,3326971.0,0.0
1583024902846,5909025.0,3324430.0,0.0
1583024902896,5910857.0,3326681.0,0.0
1583024902942,5910188.0,3328820.0,0.0
1583024902993,5908662.0,3326581.0,0.0
1583024903038,5905522.0,3325811.0,0.0
1583024903089,5898310.0,3325370.0,0.0
1583024903137,5903704.0,3323331.0,0.0
1583024903186,5907803.0,3328190.0,0.0
1583024903235,5914840.0,3330052.0,0.0
1583024903283,5919770.0,3332091.0,0.0
1583024903335,5923620.0,3333812.0,0.0
1583024903379,5927734.0,3334003.0,0.0
1583024903429,5930731.0,3335612.0,0.0
1583024903477,5930091.0,3336752.0,0.0
1583024903527,5932737.0,3335304.0,0.0
1583024903577,5925524.0,3334192.0,0.0
1583024903621,5911016.0,3329422.0,0.0
1583024903673,5892540.0,3320450.0,0.0
1583024903718,5882435.0,3313698.0,0.0
1583024903770,5868421.0,3306985.0,0.0
1583024903819,5855775.0,3301065.0,0.0
1583024903867,5837907.0,3294933.0,0.0
1583024903916,5823762.0,3293072.0,0.0
1583024903962,5806053.0,3289811.0,0.0
1583024904012,5786093.0,3283541.0,0.0
1583024904058,5766948.0,3277628.0,0.0
1583024904106,5757978.0,3277198.0,0.0
1583024904159,5750564.0,3277468.0,0.0
1583024904207,5737626.0,3271328.0,0.0
1583024904255,5718799.0,3269747.0,0.0
1583024904300,5713405.0,3282200.0,0.0
1583024904354,5712344.0,3290652.0,0.0
1583024904399,5720283.0,3315128.0,0.0
1583024904450,5699390.0,3289662.0,0.0
1583024904498,5702329.0,3282529.0,0.0
1583024904548,5707896.0,3270737.0,0.0
1583024904596,5726824.0,3221095.0,0.0
1583024904641,5767429.0,3215664.0,0.0
1583024904694,5792026.0,3232018.0,0.0
1583024904740,5805735.0,3184820.0,0.0
1583024904791,5804515.0,3187260.0,0.0
1583024904839,5801649.0,3182709.0,0.0
1583024904888,5804382.0,3182303.0,0.0
1583024904932,5825491.0,3181622.0,0.0
1583024904984,5863552.0,3184400.0,0.0
1583024905034,5885460.0,3196783.0,0.0
1583024905082,5894721.0,3197372.0,0.0
1583024905132,5889849.0,3190434.0,0.0
1583024905179,5858711.0,3117395.0,0.0
1583024905227,5901233.0,3151311.0,0.0
1583024905277,5922212.0,3190099.0,0.0
1583024905321,5933594.0,3190794.0,0.0
1583024905375,5944816.0,3185844.0,0.0
1583024905421,5962336.0,3190832.0,0.0
1583024905471,5982383.0,3192766.0,0.0
1583024905519,5996165.0,3194451.0,0.0
1583024905569,6002008.0,3201877.0,0.0
1583024905618,6001136.0,3200822.0,0.0
1583024905664,6005237.0,3200952.0,0.0
1583024905713,5999595.0,3190871.0,0.0
1583024905760,5993882.0,3182043.0,0.0
1583024905812,5982644.0,3180446.0,0.0
1583024905859,5984666.0,3169468.0,0.0
1583024905909,5979504.0,3168514.0,0.0
1583024905957,5979838.0,3161697.0,0.0
1583024906002,5978020.0,3160612.0,0.0
1583024906051,5982309.0,3162959.0,0.0
1583024906100,5984026.0,3159243.0,0.0
1583024906151,5990452.0,3158775.0,0.0
1583024906199,5986889.0,3158905.0,0.0
1583024906249,5985392.0,3155968.0,0.0
1583024906297,5982615.0,3157475.0,0.0
1583024906340,5987646.0,3158853.0,0.0
1583024906396,5997633.0,3160198.0,0.0
1583024906441,6004843.0,3163166.0,0.0
1583024906491,6009511.0,3164588.0,0.0
1583024906540,6016720.0,3171059.0,0.0
1583024906590,6024803.0,3171894.0,0.0
1583024906637,6049227.0,3177782.0,0.0
1583024906682,6058109.0,3183794.0,0.0
1583024906734,6084015.0,3181027.0,0.0
1583024906785,6088798.0,3178150.0,0.0
1583024906833,6095239.0,3170868.0,0.0
1583024906880,6108149.0,3109906.0,0.0
1583024906926,6249192.0,3144533.0,0.0
1583024906978,6328205.0,3206558.0,0.0
1583024907027,6432122.0,3256009.0,0.0
1583024907076,6439361.0,3304082.0,0.0
1583024907125,6435756.0,3301863.0,0.0
1583024907168,6425566.0,3291660.0,0.0
1583024907220,6419604.0,3279063.0,0.0
1583024907269,6401300.0,3243808.0,0.0
1583024907317,6398947.0,3229460.0,0.0
1583024907361,6393654.0,3222383.0,0.0
1583024907415,6384336.0,3211430.0,0.0
1583024907463,6372895.0,3209656.0,0.0
1583024907513,6364711.0,3202688.0,0.0
1583024907561,6357571.0,3183941.0,0.0
1583024907611,6353778.0,3187108.0,0.0
1583024907658,6351365.0,3194266.0,0.0
1583024907704,6347540.0,3196653.0,0.0
1583024907755,6339079.0,3187894.0,0.0
1583024907802,6338337.0,3190290.0,0.0
1583024907853,6340942.0,3189715.0,0.0
1583024907900,6344241.0,3185800.0,0.0
1583024907951,6373433.0,3198327.0,0.0
1583024907999,6387085.0,3210873.0,0.0
1583024908042,6408003.0,3215660.0,0.0
1583024908096,6424547.0,3227601.0,0.0
1583024908146,6429839.0,3231654.0,0.0
1583024908194,6433387.0,3226170.0,0.0
1583024908241,6436396.0,3234019.0,0.0
1583024908291,6442472.0,3238928.0,0.0
1583024908339,6444755.0,3243205.0,0.0
1583024908383,6456108.0,3245338.0,0.0
1583024908436,6456996.0,3254786.0,0.0
1583024908486,6458697.0,3257110.0,0.0
1583024908533,6467375.0,3254855.0,0.0
1583024908581,6475371.0,3258319.0,0.0
1583024908633,6460847.0,3252024.0,0.0
1583024908679,6457155.0,3249789.0,0.0
1583024908723,6467011.0,3256667.0,0.0
1583024908777,6473278.0,3257760.0,0.0
1583024908825,6480080.0,3261210.0,0.0
1583024908875,6483294.0,3261080.0,0.0
1583024908922,6497598.0,3268063.0,0.0
1583024908972,6494764.0,3269623.0,0.0
1583024909020,6505550.0,3275276.0,0.0
1583024909062,6510900.0,3283262.0,0.0
1583024909110,6495971.0,3276186.0,0.0
1583024909159,6500302.0,3276905.0,0.0
1583024909208,6501072.0,3283415.0,0.0
1583024909262,6518125.0,3287109.0,0.0
1583024909313,6528869.0,3295851.0,0.0
1583024909360,6541779.0,3299325.0,0.0
1583024909404,6544091.0,3303302.0,0.0
1583024909458,6548626.0,3303891.0,0.0
1583024909505,6551259.0,3306040.0,0.0
1583024909555,6555634.0,3309399.0,0.0
1583024909602,6559109.0,3312121.0,0.0
1583024909653,6571086.0,3315303.0,0.0
1583024909699,6569605.0,3316750.0,0.0
1583024909746,6571958.0,3317376.0,0.0
1583024909796,6577906.0,3319182.0,0.0
1583024909845,6581524.0,3322776.0,0.0
1583024909895,6586467.0,3325775.0,0.0
1583024909941,6590654.0,3331197.0,0.0
1583024909994,6595555.0,3333079.0,0.0
1583024910039,6595714.0,3335635.0,0.0
1583024910086,6608493.0,3337187.0,0.0
1583024910136,6614919.0,3341921.0,0.0
1583024910186,6619410.0,3342106.0,0.0
1583024910235,6632931.0,3344262.0,0.0
1583024910283,6634966.0,3349762.0,0.0
1583024910332,6641726.0,3351413.0,0.0
1583024910381,6639211.0,3352340.0,0.0
1583024910424,6642975.0,3353831.0,0.0
1583024910477,6651117.0,3361028.0,0.0
1583024910526,6652410.0,3360440.0,0.0
1583024910576,6647468.0,3359392.0,0.0
1583024910623,6655566.0,3365764.0,0.0
1583024910672,6658706.0,3357419.0,0.0
1583024910720,6666775.0,3361387.0,0.0
1583024910765,6687519.0,3368677.0,0.0
1583024910817,6696199.0,3374155.0,0.0
1583024910867,6708237.0,3380587.0,0.0
1583024910916,6727309.0,3388113.0,0.0
1583024910965,6737384.0,3391670.0,0.0
1583024911014,6736801.0,3395961.0,0.0
1583024911061,6721319.0,3391234.0,0.0
1583024911105,6704310.0,3407488.0,0.0
1583024911158,6688987.0,3408619.0,0.0
1583024911208,6675338.0,3390415.0,0.0
1583024911256,6662922.0,3376028.0,0.0
1583024911303,6656161.0,3351529.0,0.0
1583024911347,6663053.0,3337386.0,0.0
1583024911401,6694601.0,3330356.0,0.0
1583024911447,6688538.0,3319251.0,0.0
1583024911498,6659795.0,3293366.0,0.0
1583024911547,6656060.0,3313735.0,0.0
1583024911596,6648560.0,3360247.0,0.0
1583024911644,6629135.0,3365158.0,0.0
1583024911690,6597080.0,3371424.0,0.0
1583024911741,6569009.0,3362521.0,0.0
1583024911789,6534640.0,3344981.0,0.0
1583024911834,6497060.0,3318493.0,0.0
1583024911888,6469744.0,3299049.0,0.0
1583024911932,6434680.0,3264239.0,0.0
1583024911984,6411796.0,3252384.0,0.0
1583024912033,6397288.0,3235456.0,0.0
1583024912082,6402160.0,3240521.0,0.0
1583024912129,6388798.0,3232841.0,0.0
1583024912178,6385658.0,3238095.0,0.0
1583024912228,6375860.0,3254907.0,0.0
1583024912277,6358183.0,3227479.0,0.0
1583024912325,6338032.0,3214888.0,0.0
1583024912369,6327100.0,3220203.0,0.0
1583024912422,6305206.0,3211914.0,0.0
1583024912468,6277788.0,3199345.0,0.0
1583024912519,6271190.0,3211454.0,0.0
1583024912569,6251911.0,3204333.0,0.0
1583024912613,6231369.0,3186159.0,0.0
1583024912665,6209300.0,3171474.0,0.0
1583024912710,6173510.0,3102687.0,0.0
1583024912763,6182522.0,3138277.0,0.0
1583024912809,6191696.0,3165429.0,0.0
1583024912860,6180372.0,3148472.0,0.0
1583024912908,6171141.0,3146538.0,0.0
1583024912958,6159030.0,3144510.0,0.0
1583024913004,6147837.0,3140272.0,0.0
1583024913051,6137602.0,3133145.0,0.0
1583024913102,6126495.0,3122895.0,0.0
1583024913150,6116231.0,3119047.0,0.0
1583024913200,6109152.0,3116952.0,0.0
1583024913250,6106041.0,3108599.0,0.0
1583024913298,6098481.0,3109609.0,0.0
1583024913350,6089061.0,3102327.0,0.0
1583024913393,6075162.0,3093392.0,0.0
1583024913444,6065481.0,3085958.0,0.0
1583024913494,6054198.0,3078164.0,0.0
1583024913541,6048180.0,3069872.0,0.0
1583024913591,6046887.0,3071303.0,0.0
1583024913640,6033773.0,3065864.0,0.0
1583024913687,6032188.0,3060419.0,0.0
1583024913737,6023016.0,3053527.0,0.0
1583024913785,6021300.0,3050376.0,0.0
1583024913830,6019745.0,3045365.0,0.0
1583024913881,6009103.0,3041418.0,0.0
1583024913930,6007256.0,3037074.0,0.0
1583024913979,6004218.0,3036537.0,0.0
1583024914118,6002983.0,3032354.0,0.0
1583024914118,5997923.0,3028760.0,0.0
1583024914164,5995830.0,3027092.0,0.0
1583024914273,5993315.0,3022693.0,0.0
1583024914273,5989710.0,3015962.0,0.0
1583024914293,5985042.0,3007349.0,0.0
1583024914334,5981322.0,3003924.0,0.0
1583024914478,5978516.0,2998562.0,0.0
1583024914478,5974794.0,2994714.0,0.0
1583024914478,5973616.0,2991991.0,0.0
1583024914626,5972934.0,2990240.0,0.0
1583024914626,5967352.0,2989084.0,0.0
1583024914626,5965024.0,2981351.0,0.0
1583024914685,5966317.0,2980801.0,0.0
1583024914709,5965983.0,2973917.0,0.0
1583024914752,5962974.0,2973817.0,0.0
1583024914806,5960939.0,2970390.0,0.0
1583024914856,5967540.0,2969150.0,0.0
1583024914902,5969065.0,2970802.0,0.0
1583024914951,5969110.0,2966970.0,0.0
1583024915093,5967903.0,2962604.0,0.0
1583024915094,5964779.0,2957663.0,0.0
1583024915094,5960722.0,2954044.0,0.0
1583024915255,5947449.0,2953317.0,0.0
1583024915255,5940208.0,2946663.0,0.0
1583024915255,5941880.0,2944239.0,0.0
1583024915294,5929291.0,2942035.0,0.0
1583024915552,5926136.0,2936031.0,0.0
1583024915553,5917952.0,2932788.0,0.0
1583024915553,5918401.0,2930135.0,0.0
1583024915553,5920219.0,2930891.0,0.0
1583024915554,5919579.0,2937362.0,0.0
1583024915615,5913430.0,2930562.0,0.0
1583024915683,5908051.0,2928497.0,0.0
1583024915688,5903007.0,2928566.0,0.0
1583024915725,5901756.0,2925139.0,0.0
1583024915774,5890998.0,2918072.0,0.0
1583024915823,5879834.0,2913566.0,0.0
1583024915872,5877130.0,2911776.0,0.0
1583024915920,5871649.0,2911280.0,0.0
1583024915968,5865411.0,2905039.0,0.0
1583024916016,5868567.0,2906422.0,0.0
1583024916065,5858813.0,2900128.0,0.0
1583024916114,5855148.0,2899080.0,0.0
1583024916163,5851616.0,2895867.0,0.0
1583024916213,5846919.0,2896579.0,0.0
1583024916260,5851266.0,2894888.0,0.0
1583024916309,5849377.0,2894039.0,0.0
1583024916363,5850148.0,2894811.0,0.0
1583024916411,5854202.0,2894344.0,0.0
1583024916541,5853027.0,2895492.0,0.0
1583024916541,5852097.0,2893433.0,0.0
1583024916565,5852909.0,2889557.0,0.0
1583024916711,5845206.0,2885526.0,0.0
1583024916711,5841891.0,2880363.0,0.0
1583024916711,5840305.0,2881946.0,0.0
1583024916769,5836366.0,2881135.0,0.0
1583024916797,5837165.0,2880875.0,0.0
1583024916847,5839433.0,2879422.0,0.0
1583024916892,5835159.0,2876928.0,0.0
1583024916941,5830332.0,2875268.0,0.0
1583024916990,5829634.0,2876775.0,0.0
1583024917037,5827105.0,2872492.0,0.0
1583024917087,5827134.0,2875322.0,0.0
1583024917138,5828210.0,2874282.0,0.0
1583024917188,5829156.0,2876338.0,0.0
1583024917234,5823689.0,2875558.0,0.0
1583024917285,5822628.0,2876623.0,0.0
1583024917334,5827657.0,2873455.0,0.0
1583024917382,5828284.0,2875749.0,0.0
1583024917432,5826510.0,2871153.0,0.0
1583024917478,5813556.0,2867045.0,0.0
1583024917524,5800210.0,2859373.0,0.0
1583024917574,5805954.0,2864300.0,0.0
1583024917625,5804747.0,2864544.0,0.0
1583024917674,5804544.0,2862815.0,0.0
1583024917718,5798697.0,2862333.0,0.0
1583024917768,5786908.0,2853629.0,0.0
1583024917817,5780934.0,2851931.0,0.0
1583024917868,5778390.0,2850883.0,0.0
1583024917914,5770219.0,2851756.0,0.0
1583024917965,5770801.0,2852130.0,0.0
1583024918196,5763053.0,2849139.0,0.0
1583024918197,5760391.0,2835173.0,0.0
1583024918197,5795166.0,2856322.0,0.0
1583024918198,5816769.0,2864375.0,0.0
1583024918224,5830405.0,2869203.0,0.0
1583024918324,5839289.0,2870052.0,0.0
1583024918324,5848897.0,2874886.0,0.0
1583024918355,5853142.0,2876202.0,0.0
1583024918403,5858027.0,2875337.0,0.0
1583024918453,5851049.0,2869485.0,0.0
1583024918498,5842865.0,2869898.0,0.0
1583024918549,5843738.0,2866013.0,0.0
1583024918598,5850569.0,2872202.0,0.0
1583024918647,5846658.0,2873616.0,0.0
1583024918695,5857285.0,2873654.0,0.0
1583024918744,5859205.0,2873577.0,0.0
1583024918789,5859422.0,2867902.0,0.0
1583024918840,5868828.0,2874955.0,0.0
1583024918891,5873321.0,2875497.0,0.0
1583024918934,5884238.0,2881135.0,0.0
1583024918987,5882422.0,2880983.0,0.0
1583024919035,5889645.0,2883974.0,0.0
1583024919084,5896189.0,2885717.0,0.0
1583024919128,5902832.0,2885625.0,0.0
1583024919180,5906816.0,2889648.0,0.0
1583024919231,5913751.0,2895422.0,0.0
1583024919276,5919028.0,2895867.0,0.0
1583024919328,5918302.0,2893029.0,0.0
1583024919378,5914723.0,2894246.0,0.0
1583024919425,5900797.0,2889565.0,0.0
1583024919474,5896131.0,2888998.0,0.0
1583024919520,5891218.0,2888968.0,0.0
1583024919571,5882814.0,2887875.0,0.0
1583024919615,5883149.0,2888240.0,0.0
1583024919668,5877245.0,2884041.0,0.0
1583024919827,5877261.0,2887200.0,0.0
1583024919827,5873029.0,2886436.0,0.0
1583024919827,5860077.0,2885694.0,0.0
1583024919976,5860688.0,2883819.0,0.0
1583024919976,5855600.0,2886528.0,0.0
1583024919977,5861762.0,2886887.0,0.0
1583024920014,5856326.0,2888525.0,0.0
1583024920054,5853578.0,2888555.0,0.0
1583024920101,5848549.0,2886849.0,0.0
1583024920151,5840378.0,2889557.0,0.0
1583024920198,5833108.0,2887842.0,0.0
1583024920249,5829663.0,2886229.0,0.0
1583024920297,5821275.0,2881074.0,0.0
1583024920344,5804107.0,2879315.0,0.0
1583024920394,5796532.0,2876034.0,0.0
1583024920446,5793987.0,2878053.0,0.0
1583024920495,5789844.0,2875682.0,0.0
1583024920544,5789032.0,2878457.0,0.0
1583024920593,5784421.0,2885831.0,0.0
1583024920634,5768518.0,2873088.0,0.0
1583024920864,5758283.0,2869317.0,0.0
1583024920864,5752178.0,2867634.0,0.0
1583024920864,5746740.0,2866464.0,0.0
1583024920864,5748064.0,2866052.0,0.0
1583024920903,5754388.0,2867850.0,0.0
1583024920996,5767894.0,2880178.0,0.0
1583024920997,5762761.0,2890672.0,0.0
1583024921031,5744966.0,2873356.0,0.0
1583024921080,5748077.0,2873906.0,0.0
1583024921123,5746246.0,2872246.0,0.0
1583024921176,5756685.0,2870840.0,0.0
1583024921224,5758283.0,2872982.0,0.0
1583024921275,5754373.0,2875245.0,0.0
1583024921316,5756264.0,2874556.0,0.0
1583024921373,5755376.0,2878266.0,0.0
1583024921418,5753529.0,2880438.0,0.0
1583024921468,5757891.0,2880339.0,0.0
1583024921516,5753022.0,2880975.0,0.0
1583024921565,5746421.0,2881800.0,0.0
1583024921614,5745622.0,2881700.0,0.0
1583024921659,5746552.0,2888569.0,0.0
1583024921711,5752991.0,2887545.0,0.0
1583024921758,5757993.0,2891140.0,0.0
1583024921807,5759592.0,2894506.0,0.0
1583024921857,5759592.0,2890412.0,0.0
1583024921905,5758662.0,2896662.0,0.0
1583024921955,5757063.0,2896172.0,0.0
1583024921998,5761859.0,2899415.0,0.0
1583024922048,5767369.0,2904450.0,0.0
1583024922214,5780250.0,2903501.0,0.0
1583024922214,5783144.0,2904884.0,0.0
1583024922214,5766308.0,2897649.0,0.0
1583024922513,5749067.0,2896410.0,0.0
1583024922514,5746217.0,2903562.0,0.0
1583024922515,5743179.0,2897273.0,0.0
1583024922577,5744561.0,2904281.0,0.0
1583024922586,5741682.0,2904441.0,0.0
1583024922658,5742976.0,2905612.0,0.0
1583024922678,5736419.0,2909336.0,0.0
1583024922732,5735648.0,2912067.0,0.0
1583024922774,5733409.0,2910943.0,0.0
1583024922829,5728015.0,2912885.0,0.0
1583024922877,5730620.0,2911043.0,0.0
1583024922922,5729980.0,2915303.0,0.0
1583024922975,5727566.0,2913284.0,0.0
1583024923019,5725168.0,2912404.0,0.0
1583024923071,5730821.0,2905626.0,0.0
1583024923122,5736244.0,2922928.0,0.0
1583024923169,5732145.0,2934816.0,0.0
1583024923218,5720312.0,2941484.0,0.0
1583024923267,5698068.0,2943750.0,0.0
1583024923315,5671071.0,2938028.0,0.0
1583024923358,5650238.0,2928497.0,0.0
1583024923413,5629711.0,2917138.0,0.0
1583024923461,5614942.0,2911256.0,0.0
1583024923511,5599140.0,2905734.0,0.0
1583024923558,5595243.0,2900410.0,0.0
1583024923607,5594634.0,2899974.0,0.0
1583024923655,5595373.0,2901144.0,0.0
1583024923699,5592656.0,2900264.0,0.0
1583024923753,5593819.0,2907087.0,0.0
1583024923800,5591565.0,2905764.0,0.0
1583024923851,5592016.0,2903753.0,0.0
1583024923898,5591434.0,2903379.0,0.0
1583024923947,5585024.0,2899791.0,0.0
1583024923996,5563493.0,2900632.0,0.0
1583024924039,5556500.0,2893228.0,0.0
1583024924094,5551122.0,2892180.0,0.0
1583024924141,5548256.0,2890550.0,0.0
1583024924191,5555105.0,2891507.0,0.0
1583024924238,5552284.0,2890995.0,0.0
1583024924289,5549450.0,2889090.0,0.0
1583024924336,5551412.0,2892088.0,0.0
1583024924382,5549857.0,2892097.0,0.0
1583024924433,5554494.0,2894734.0,0.0
1583024924481,5566226.0,2893342.0,0.0
1583024924532,5561733.0,2898214.0,0.0
1583024924578,5566445.0,2898383.0,0.0
1583024924701,5570108.0,2900518.0,0.0
1583024924701,5576374.0,2901298.0,0.0
1583024924762,5583425.0,2901918.0,0.0
1583024924813,5577027.0,2902308.0,0.0
1583024924927,5559363.0,2900142.0,0.0
1583024924927,5547326.0,2897993.0,0.0
1583024924927,5551237.0,2898789.0,0.0
1583024924981,5551501.0,2898482.0,0.0
1583024925017,5558026.0,2904135.0,0.0
1583024925059,5556399.0,2902109.0,0.0
1583024925115,5559131.0,2902109.0,0.0
1583024925162,5553985.0,2902934.0,0.0
1583024925211,5556064.0,2905252.0,0.0
1583024925259,5561704.0,2904425.0,0.0
1583024925309,5564306.0,2907593.0,0.0
1583024925358,5566168.0,2907524.0,0.0
1583024925402,5567853.0,2908993.0,0.0
1583024925455,5576954.0,2910736.0,0.0
1583024925502,5579951.0,2911195.0,0.0
1583024925552,5583396.0,2913062.0,0.0
1583024925599,5588615.0,2913804.0,0.0
1583024925650,5576970.0,2911961.0,0.0
1583024925698,5562287.0,2910805.0,0.0
1583024925741,5558478.0,2910415.0,0.0
1583024925796,5557924.0,2907493.0,0.0
1583024925843,5567955.0,2911516.0,0.0
1583024925888,5568888.0,2913314.0,0.0
1583024925936,5564627.0,2913046.0,0.0
1583024925989,5569120.0,2913643.0,0.0
1583024926038,5569149.0,2912121.0,0.0
1583024926082,5576811.0,2911012.0,0.0
1583024926132,5583396.0,2912863.0,0.0
1583024926183,5593644.0,2909842.0,0.0
1583024926391,5601917.0,2912893.0,0.0
1583024926391,5615435.0,2916067.0,0.0
1583024926391,5631399.0,2914553.0,0.0
1583024926393,5641532.0,2916488.0,0.0
1583024926432,5638029.0,2912083.0,0.0
1583024926514,5636210.0,2919716.0,0.0
1583024926534,5636080.0,2917077.0,0.0
1583024926574,5635032.0,2920795.0,0.0
1583024926621,5635819.0,2918087.0,0.0
1583024926673,5642273.0,2926638.0,0.0
1583024926720,5643232.0,2922630.0,0.0
1583024926762,5646837.0,2925949.0,0.0
1583024926816,5652827.0,2928772.0,0.0
1583024926864,5657858.0,2934332.0,0.0
1583024926915,5662800.0,2939312.0,0.0
1583024926961,5667322.0,2934219.0,0.0
1583024927012,5673908.0,2942098.0,0.0
1583024927059,5679258.0,2940407.0,0.0
1583024927103,5685146.0,2952177.0,0.0
1583024927156,5686773.0,2949447.0,0.0
1583024927207,5681146.0,2955674.0,0.0
1583024927254,5677264.0,2953677.0,0.0
1583024927304,5675984.0,2967927.0,0.0
1583024927352,5672367.0,2972172.0,0.0
1583024927400,5670230.0,2989842.0,0.0
1583024927444,5654820.0,2979118.0,0.0
1583024927497,5660444.0,2978131.0,0.0
1583024927545,5651273.0,2974147.0,0.0
1583024927595,5677366.0,2968326.0,0.0
1583024927643,5711589.0,2971522.0,0.0
1583024927693,5762296.0,2992824.0,0.0
1583024927734,5791997.0,3009828.0,0.0
1583024927784,5793159.0,3007410.0,0.0
1583024927837,5805518.0,3008099.0,0.0
1583024927886,5811725.0,3002768.0,0.0
1583024927931,5832236.0,2999838.0,0.0
1583024927983,5830261.0,2992235.0,0.0
1583024928031,5828675.0,2995494.0,0.0
1583024928079,5820157.0,3000535.0,0.0
1583024928126,5817364.0,3006317.0,0.0
1583024928178,5817641.0,2994141.0,0.0
1583024928226,5831350.0,2999877.0,0.0
1583024928275,5845830.0,2989925.0,0.0
1583024928324,5888483.0,2989925.0,0.0
1583024928372,5934017.0,3026840.0,0.0
1583024928420,5932314.0,3040239.0,0.0
1583024928467,5937491.0,3031070.0,0.0
1583024928517,5924187.0,3022197.0,0.0
1583024928566,5934511.0,3013729.0,0.0
1583024928615,5945137.0,3023061.0,0.0
1583024928663,5939466.0,3036308.0,0.0
1583024928711,5930482.0,3039162.0,0.0
1583024928760,5934176.0,3035475.0,0.0
1583024928807,5927677.0,3033088.0,0.0
1583024928857,5933071.0,3028500.0,0.0
1583024928906,5936590.0,3030525.0,0.0
1583024928956,5945020.0,3030495.0,0.0
1583024929004,5950764.0,3040247.0,0.0
1583024929053,5958658.0,3045089.0,0.0
1583024929100,5956331.0,3051851.0,0.0
1583024929147,5951344.0,3050796.0,0.0
1583024929197,5951780.0,3046383.0,0.0
1583024929247,5952885.0,3051469.0,0.0
1583024929295,5953481.0,3054429.0,0.0
1583024929344,5960416.0,3051889.0,0.0
1583024929388,5961260.0,3058139.0,0.0
1583024929442,5958454.0,3053787.0,0.0
1583024929486,5962365.0,3059019.0,0.0
1583024929538,5969603.0,3062964.0,0.0
1583024929586,5978472.0,3059063.0,0.0
1583024929636,5977440.0,3067869.0,0.0
1583024929685,5972046.0,3060892.0,0.0
1583024929731,5971072.0,3065758.0,0.0
1583024929781,5964575.0,3062629.0,0.0
1583024929827,5962292.0,3063653.0,0.0
1583024929878,5967380.0,3062408.0,0.0
1583024929927,5969444.0,3063379.0,0.0
1583024929977,5970549.0,3057466.0,0.0
1583024930024,5976756.0,3062040.0,0.0
1583024930070,5982631.0,3064464.0,0.0
1583024930121,5986118.0,3063470.0,0.0
1583024930168,5987194.0,3066599.0,0.0
1583024930219,6004101.0,3067485.0,0.0
1583024930267,6008769.0,3071563.0,0.0
1583024930317,6017475.0,3072343.0,0.0
1583024930364,6030764.0,3072780.0,0.0
1583024930412,6039371.0,3076551.0,0.0
1583024930461,6046218.0,3078003.0,0.0
1583024930511,6030356.0,3069842.0,0.0
1583024930559,6018640.0,3068672.0,0.0
1583024930607,6018246.0,3066882.0,0.0
1583024930658,6020427.0,3062881.0,0.0
1583024930704,6030881.0,3064679.0,0.0
1583024930749,6030968.0,3067394.0,0.0
1583024930801,6023640.0,3069283.0,0.0
1583024930849,6007648.0,3061940.0,0.0
1583024930899,6000075.0,3043644.0,0.0
1583024930949,6009409.0,2975386.0,0.0
1583024930998,6039967.0,2947153.0,0.0
1583024931044,6063576.0,3009767.0,0.0
1583024931090,6066162.0,3075807.0,0.0
1583024931137,6127281.0,3195560.0,0.0
1583024931189,6229190.0,3283974.0,0.0
1583024931239,6268340.0,3333156.0,0.0
1583024931290,6325125.0,3336667.0,0.0
1583024931338,6317578.0,3328207.0,0.0
1583024931388,6287587.0,3363415.0,0.0
1583024931430,6317970.0,3381796.0,0.0
1583024931486,6284969.0,3404743.0,0.0
1583024931589,6256914.0,3458974.0,0.0
1583024931589,6323001.0,3515505.0,0.0
1583024931636,6429884.0,3571496.0,0.0
1583024931673,6524306.0,3602690.0,0.0
1583024931722,6578894.0,3619378.0,0.0
1583024931770,6643675.0,3626729.0,0.0
1583024931823,6657964.0,3620150.0,0.0
1583024931870,6663228.0,3647941.0,0.0
1583024931919,6652833.0,3668248.0,0.0
1583024931968,6649780.0,3702430.0,0.0
1583024932011,6686095.0,3764081.0,0.0
1583024932065,6710475.0,3791670.0,0.0
1583024932117,6735130.0,3816988.0,0.0
1583024932162,6746832.0,3820255.0,0.0
1583024932221,6769541.0,3860994.0,0.0
1583024932253,6799694.0,3868734.0,0.0
1583024932310,6838522.0,3914122.0,0.0
1583024932354,6885232.0,3915452.0,0.0
1583024932408,6907634.0,3886021.0,0.0
1583024932454,6912258.0,3876719.0,0.0
1583024932503,6926884.0,3866233.0,0.0
1583024932552,6930330.0,3854498.0,0.0
1583024932599,6932887.0,3855876.0,0.0
1583024932649,6946494.0,3860679.0,0.0
1583024932692,6958633.0,3859378.0,0.0
1583024932745,6948414.0,3864964.0,0.0
1583024932796,6932495.0,3877178.0,0.0
1583024932842,6935868.0,3882877.0,0.0
1583024932897,6933135.0,3899544.0,0.0
1583024932936,6920646.0,3907254.0,0.0
1583024932989,6952500.0,3939342.0,0.0
1583024933034,1.4229031E7,5862916.0,0.0
1583024933086,1.0111848E7,3842192.0,0.0
1583024933131,9304220.0,3631778.0,0.0
1583024933183,8236307.0,3449167.0,0.0
1583024933232,7317125.0,3387050.0,0.0
1583024933279,7336644.0,3413684.0,0.0
1583024933330,7087971.0,3403221.0,0.0
1583024933377,6914995.0,3383226.0,0.0
1583024933427,7020265.0,3403702.0,0.0
1583024933473,7517690.0,3415466.0,0.0
1583024933523,6655732.0,3351858.0,0.0
1583024933572,6350469.0,3347728.0,0.0
1583024933621,6373833.0,3388281.0,0.0
1583024933669,6488251.0,3435666.0,0.0
1583024933714,7459245.0,3511574.0,0.0
1583024933766,7515616.0,3506549.0,0.0
1583024933817,7088967.0,3420430.0,0.0
1583024933863,7022609.0,3417760.0,0.0
1583024933915,7335662.0,3428829.0,0.0
1583024933960,6820997.0,3379616.0,0.0
1583024934010,7480553.0,3421539.0,0.0
1583024934051,7470025.0,3462078.0,0.0
1583024934106,7233368.0,3445418.0,0.0
1583024934156,7554400.0,3446934.0,0.0
1583024934203,7236266.0,3432844.0,0.0
1583024934252,7612717.0,3463141.0,0.0
1583024934300,7350479.0,3446068.0,0.0
1583024934350,7574075.0,3412163.0,0.0
1583024934392,6989587.0,3339895.0,0.0
1583024934446,7045373.0,3295425.0,0.0
1583024934495,6679162.0,3255480.0,0.0
1583024934543,6113240.0,3189134.0,0.0
1583024934592,5297191.0,3029662.0,0.0
1583024934640,5345584.0,3090807.0,0.0
1583024934689,5399404.0,3161965.0,0.0
1583024934734,5489666.0,3259627.0,0.0
1583024934780,5718599.0,3277693.0,0.0
1583024934835,6008558.0,3313621.0,0.0
1583024934879,6348663.0,3381406.0,0.0
1583024934928,5671554.0,3269349.0,0.0
1583024934976,5713883.0,3244068.0,0.0
1583024935026,7211332.0,3345487.0,0.0
1583024935074,8362740.0,3616778.0,0.0
1583024935124,8468374.0,3847155.0,0.0
1583024935177,8769001.0,3936373.0,0.0
1583024935224,7798132.0,3390447.0,0.0
1583024935274,8721368.0,3759804.0,0.0
1583024935321,8655783.0,3673762.0,0.0
1583024935372,8565919.0,3689183.0,0.0
1583024935417,5894724.0,2946259.0,0.0
1583024935468,5671443.0,2933248.0,0.0
1583024935517,5665157.0,2977403.0,0.0
1583024935565,5325559.0,2989559.0,0.0
1583024935614,5355682.0,3051715.0,0.0
1583024935662,5485772.0,3024544.0,0.0
1583024935713,5888881.0,3057527.0,0.0
1583024935755,6029548.0,3089759.0,0.0
1583024935810,5595901.0,3031040.0,0.0
1583024935854,5401526.0,3013516.0,0.0
1583024935906,5229582.0,3005728.0,0.0
1583024935955,5234568.0,3024644.0,0.0
1583024936003,5168890.0,3065665.0,0.0
1583024936051,5343826.0,3102900.0,0.0
1583024936099,5251490.0,3156534.0,0.0
1583024936145,5292108.0,3180017.0,0.0
1583024936195,5314494.0,3223371.0,0.0
1583024936246,5320240.0,3233842.0,0.0
1583024936295,5342893.0,3248696.0,0.0
1583024936344,5381882.0,3262457.0,0.0
1583024936394,5755008.0,3203974.0,0.0
1583024936434,6348902.0,3264682.0,0.0
1583024936483,6829309.0,3432049.0,0.0
1583024936532,7191293.0,3530016.0,0.0
1583024936583,7815230.0,3612609.0,0.0
1583024936632,1.0038388E7,4164892.0,0.0
1583024936680,9459771.0,4102645.0,0.0
1583024936730,9396104.0,4104687.0,0.0
1583024936776,7948470.0,3940075.0,0.0
1583024936830,7524608.0,3910038.0,0.0
1583024936876,7421286.0,3904729.0,0.0
1583024936926,7522724.0,3926536.0,0.0
1583024936975,6963453.0,3817624.0,0.0
1583024937024,6783371.0,3775148.0,0.0
1583024937073,6492797.0,3729064.0,0.0
1583024937114,7032740.0,3712107.0,0.0
1583024937169,7028736.0,3699433.0,0.0
1583024937220,7374967.0,3709643.0,0.0
1583024937267,7109040.0,3700801.0,0.0
1583024937316,7992937.0,3791465.0,0.0
1583024937360,7289406.0,3702936.0,0.0
1583024937410,7232039.0,3704795.0,0.0
1583024937458,6598018.0,3675284.0,0.0
1583024937507,6959049.0,3710226.0,0.0
1583024937556,6454803.0,3662480.0,0.0
1583024937607,6126284.0,3675353.0,0.0
1583024937655,6832918.0,3819168.0,0.0
1583024937704,6156282.0,3730724.0,0.0
1583024937753,6028219.0,3703564.0,0.0
1583024937797,6026382.0,3711227.0,0.0
1583024937851,5730377.0,3585219.0,0.0
1583024937896,5714056.0,3543141.0,0.0
1583024937947,5666599.0,3536847.0,0.0
1583024937995,5676794.0,3558684.0,0.0
1583024938044,5859581.0,3639594.0,0.0
1583024938094,6106197.0,3775057.0,0.0
1583024938136,6617107.0,3841342.0,0.0
1583024938190,6996155.0,3853435.0,0.0
1583024938237,7049124.0,3866859.0,0.0
1583024938287,6929006.0,3811443.0,0.0
1583024938337,6482727.0,3762299.0,0.0
1583024938384,6420832.0,3766796.0,0.0
1583024938434,6396168.0,3775386.0,0.0
1583024938476,6308804.0,3755729.0,0.0
1583024938532,6265508.0,3741019.0,0.0
1583024938576,6271018.0,3729493.0,0.0
1583024938628,6351451.0,3733953.0,0.0
1583024938676,6411397.0,3777834.0,0.0
1583024938725,6733917.0,3845688.0,0.0
1583024938772,6820522.0,3841458.0,0.0
1583024938816,6629139.0,3816354.0,0.0
1583024938871,6556859.0,3801378.0,0.0
1583024938923,6605536.0,3824270.0,0.0
1583024938967,6625752.0,3824339.0,0.0
1583024939015,6608022.0,3803954.0,0.0
1583024939065,6577075.0,3799365.0,0.0
1583024939114,6752975.0,3827108.0,0.0
1583024939156,6958498.0,3836487.0,0.0
1583024939212,6982573.0,3820645.0,0.0
1583024939258,7003881.0,3789377.0,0.0
1583024939308,7004737.0,3782460.0,0.0
1583024939356,7281001.0,3798302.0,0.0
1583024939399,7497838.0,3785368.0,0.0
1583024939455,7744264.0,3783204.0,0.0
1583024939499,7837596.0,3767562.0,0.0
1583024939554,7721944.0,3734777.0,0.0
1583024939599,7537018.0,3706516.0,0.0
1583024939648,7392381.0,3678238.0,0.0
1583024939696,7488657.0,3672492.0,0.0
1583024939745,7745831.0,3682781.0,0.0
1583024939793,7719870.0,3661929.0,0.0
1583024939836,7797833.0,3667642.0,0.0
1583024939891,7728688.0,3657914.0,0.0
1583024939934,7887698.0,3666245.0,0.0
1583024939987,7888745.0,3661370.0,0.0
1583024940029,7817494.0,3649241.0,0.0
1583024940081,7711829.0,3646027.0,0.0
1583024940127,7665083.0,3634683.0,0.0
1583024940177,7564165.0,3615386.0,0.0
1583024940233,7685614.0,3626768.0,0.0
1583024940278,7680455.0,3627227.0,0.0
1583024940327,7620346.0,3623738.0,0.0
1583024940377,7712935.0,3626217.0,0.0
1583024940419,7690393.0,3620496.0,0.0
1583024940475,7782698.0,3628243.0,0.0
1583024940521,7726313.0,3620228.0,0.0
1583024940572,7778614.0,3624779.0,0.0
1583024940619,7821767.0,3629513.0,0.0
1583024940663,7833244.0,3626552.0,0.0
1583024940717,7936298.0,3636642.0,0.0
1583024940761,7846400.0,3624250.0,0.0
1583024940813,7717717.0,3619096.0,0.0
1583024940858,7484637.0,3609122.0,0.0
1583024940911,7314608.0,3621054.0,0.0
1583024940958,7123871.0,3627747.0,0.0
1583024941007,6798392.0,3613765.0,0.0
1583024941054,6589579.0,3609213.0,0.0
1583024941101,6393289.0,3580621.0,0.0
1583024941149,6308582.0,3548350.0,0.0
1583024941200,6242158.0,3471425.0,0.0
1583024941252,6199449.0,3477178.0,0.0
1583024941299,6273092.0,3481102.0,0.0
1583024941348,6202015.0,3461658.0,0.0
1583024941400,6195367.0,3461871.0,0.0
1583024941439,6198658.0,3467402.0,0.0
1583024941490,6188765.0,3475984.0,0.0
1583024941540,6179015.0,3499406.0,0.0
1583024941591,6239689.0,3521473.0,0.0
1583024941639,6353792.0,3522023.0,0.0
1583024941689,6636435.0,3600402.0,0.0
1583024941737,6910421.0,3666358.0,0.0
1583024941784,8089358.0,3748295.0,0.0
1583024941834,7987271.0,3725019.0,0.0
1583024941879,8734808.0,3797829.0,0.0
1583024941928,8685767.0,3829089.0,0.0
1583024941980,9008190.0,3860449.0,0.0
1583024942030,8717585.0,3828195.0,0.0
1583024942078,8912133.0,3788405.0,0.0
1583024942125,8819450.0,3734517.0,0.0
1583024942177,9762409.0,3976338.0,0.0
1583024942225,9435963.0,3947144.0,0.0
1583024942272,9348835.0,3961209.0,0.0
1583024942320,9175875.0,3943472.0,0.0
1583024942364,8706134.0,3899253.0,0.0
1583024942412,8198784.0,3859486.0,0.0
1583024942463,7826563.0,3834636.0,0.0
1583024942512,7708153.0,3828981.0,0.0
1583024942560,7589548.0,3818512.0,0.0
1583024942609,7383785.0,3801799.0,0.0
1583024942655,7253123.0,3796833.0,0.0
1583024942706,7352320.0,3804330.0,0.0
1583024942758,7337235.0,3805645.0,0.0
1583024942805,7314636.0,3805614.0,0.0
1583024942854,7341260.0,3807902.0,0.0
1583024942903,7356576.0,3812920.0,0.0
1583024942947,7315152.0,3815643.0,0.0
1583024943000,7309363.0,3820645.0,0.0
1583024943050,7309488.0,3833457.0,0.0
1583024943093,7320707.0,3836310.0,0.0
1583024943140,7299766.0,3837389.0,0.0
1583024943196,7283808.0,3836791.0,0.0
1583024943243,7268867.0,3839514.0,0.0
1583024943292,7254192.0,3841342.0,0.0
1583024943339,7281171.0,3840930.0,0.0
1583024943389,7319552.0,3841007.0,0.0
1583024943438,7338713.0,3836363.0,0.0
1583024943482,7333369.0,3834727.0,0.0
1583024943535,7370537.0,3839744.0,0.0
1583024943584,7454076.0,3840700.0,0.0
1583024943631,7363680.0,3826641.0,0.0
1583024943680,7255545.0,3801132.0,0.0
1583024943731,7179129.0,3779577.0,0.0
1583024943778,7170118.0,3788619.0,0.0
1583024943825,7185878.0,3802593.0,0.0
1583024943875,7197526.0,3808865.0,0.0
1583024943923,7228707.0,3815566.0,0.0
1583024943972,7292393.0,3824048.0,0.0
1583024944019,7327030.0,3821279.0,0.0
1583024944070,7273408.0,3817096.0,0.0
1583024944118,7209580.0,3786945.0,0.0
1583024944165,7006419.0,3780388.0,0.0
1583024944216,6840371.0,3725500.0,0.0
1583024944264,6799500.0,3720413.0,0.0
1583024944312,6790934.0,3728635.0,0.0
1583024944359,6825020.0,3738573.0,0.0
1583024944404,6823417.0,3731543.0,0.0
1583024944458,6809990.0,3735873.0,0.0
1583024944504,6751132.0,3735161.0,0.0
1583024944555,6769190.0,3738877.0,0.0
1583024944604,6786163.0,3736537.0,0.0
1583024944652,6814300.0,3739030.0,0.0
1583024944700,6826268.0,3737953.0,0.0
1583024944748,6854742.0,3738443.0,0.0
1583024944798,6876809.0,3738863.0,0.0
1583024944844,6887955.0,3723611.0,0.0
1583024944894,6917235.0,3722715.0,0.0
1583024944942,6945462.0,3718723.0,0.0
1583024944993,6970784.0,3714700.0,0.0
1583024945033,6973526.0,3700374.0,0.0
1583024945087,6967561.0,3680471.0,0.0
1583024945131,6958016.0,3663185.0,0.0
1583024945184,6950624.0,3651388.0,0.0
1583024945231,6935184.0,3639779.0,0.0
1583024945279,6923324.0,3629551.0,0.0
1583024945329,6900940.0,3614996.0,0.0
1583024945379,6871324.0,3601099.0,0.0
1583024945423,6849900.0,3591117.0,0.0
1583024945477,6819430.0,3578985.0,0.0
1583024945526,6789920.0,3569836.0,0.0
1583024945574,6769209.0,3565752.0,0.0
1583024945624,6742851.0,3556335.0,0.0
1583024945672,6722601.0,3549513.0,0.0
1583024945721,6694108.0,3540020.0,0.0
1583024945769,6676086.0,3531454.0,0.0
1583024945818,6645276.0,3521915.0,0.0
1583024945865,6613222.0,3512423.0,0.0
1583024945915,6579635.0,3495190.0,0.0
1583024945963,6548470.0,3482800.0,0.0
1583024946014,6520707.0,3474102.0,0.0
1583024946147,6483929.0,3464273.0,0.0
1583024946147,6458268.0,3457741.0,0.0
1583024946169,6414691.0,3444051.0,0.0
1583024946317,6372592.0,3435743.0,0.0
1583024946317,6340892.0,3429441.0,0.0
1583024946317,6316742.0,3430083.0,0.0
1583024946370,6301481.0,3429999.0,0.0
1583024946403,6282745.0,3424461.0,0.0
1583024946452,6266681.0,3424270.0,0.0
1583024946498,6248448.0,3420009.0,0.0
1583024946545,6236070.0,3417425.0,0.0
1583024946597,6226380.0,3415320.0,0.0
1583024946644,6202144.0,3409078.0,0.0
1583024946690,6169216.0,3394822.0,0.0
1583024946742,6140134.0,3384358.0,0.0
1583024946791,6118604.0,3377765.0,0.0
1583024946838,6091088.0,3370650.0,0.0
1583024946887,6066707.0,3363033.0,0.0
1583024947020,6043484.0,3355851.0,0.0
1583024947020,6010112.0,3352340.0,0.0
1583024947045,5997648.0,3349554.0,0.0
1583024947170,5974211.0,3343008.0,0.0
1583024947170,5948742.0,3339420.0,0.0
1583024947188,5927891.0,3336537.0,0.0
1583024947232,5910864.0,3335779.0,0.0
1583024947277,5897046.0,3329294.0,0.0
1583024947324,5854412.0,3323808.0,0.0
1583024947375,5826220.0,3317621.0,0.0
1583024947424,5801200.0,3314125.0,0.0
1583024947467,5755020.0,3299492.0,0.0
1583024947519,5689414.0,3283002.0,0.0
