"1573037618342","5039800.0"
"1573037618392","5038687.0"
"1573037618447","5039790.0"
"1573037618491","5042121.0"
"1573037618545","5051930.0"
"1573037618588","5046166.0"
"1573037618636","5027817.0"
"1573037618687","4970467.0"
"1573037618734","4943483.0"
"1573037618784","4904764.0"
"1573037618831","4882939.0"
"1573037618879","4916540.0"
"1573037618931","4964339.0"
"1573037618982","4983501.0"
"1573037619028","4959138.0"
"1573037619076","4921325.0"
"1573037619124","4941123.0"
"1573037619174","4900957.0"
"1573037619283","4842806.0"
"1573037619337","4753450.0"
"1573037619339","4771498.0"
"1573037619381","4796588.0"
"1573037619453","4753907.0"
"1573037619470","4715188.0"
"1573037619514","4666733.0"
"1573037619565","4638533.0"
"1573037619612","4619568.0"
"1573037619663","4609978.0"
"1573037619712","4690669.0"
"1573037619764","4731345.0"
"1573037619810","4656737.0"
"1573037619863","4614284.0"
"1573037619914","4596610.0"
"1573037619956","4565142.0"
"1573037620006","4578771.0"
"1573037620054","4479977.0"
"1573037620103","4482027.0"
"1573037620152","4486343.0"
"1573037620200","4445525.0"
"1573037620250","4385428.0"
"1573037620298","4338566.0"
"1573037620348","4296976.0"
"1573037620396","4264198.0"
"1573037620448","4232250.0"
"1573037620495","4369054.0"
"1573037620544","4524988.0"
"1573037620592","4479603.0"
"1573037620641","4477220.0"
"1573037620689","4480258.0"
"1573037620739","4443515.0"
"1573037620788","4418009.0"
"1573037620836","4345411.0"
"1573037620887","4283213.0"
"1573037620939","4358901.0"
"1573037620984","4299899.0"
"1573037621032","4230369.0"
"1573037621084","4199472.0"
"1573037621129","4168535.0"
"1573037621182","4153201.0"
"1573037621233","4162440.0"
"1573037621276","4149187.0"
"1573037621325","4123253.0"
"1573037621373","4114629.0"
"1573037621423","4107170.0"
"1573037621473","4120445.0"
"1573037621524","4123440.0"
"1573037621572","4119759.0"
"1573037621621","4129308.0"
"1573037621670","4083130.0"
"1573037621717","4100597.0"
"1573037621772","4112820.0"
"1573037621820","4065259.0"
"1573037621870","4080489.0"
"1573037621922","4077722.0"
"1573037621968","4084827.0"
"1573037622017","4117325.0"
"1573037622070","4237568.0"
"1573037622116","4304507.0"
"1573037622160","4254575.0"
"1573037622213","4225251.0"
"1573037622261","4218467.0"
"1573037622312","4205413.0"
"1573037622359","4203643.0"
"1573037622407","4180404.0"
"1573037622459","4148979.0"
"1573037622507","4252401.0"
"1573037622556","4167954.0"
"1573037622604","4147990.0"
"1573037622649","4127164.0"
"1573037622701","4126051.0"
"1573037622748","4134009.0"
"1573037622794","4155741.0"
"1573037622847","4196041.0"
"1573037622896","4351496.0"
"1573037622953","4427851.0"
"1573037622996","4412871.0"
"1573037623043","4406670.0"
"1573037623093","4369117.0"
"1573037623141","4354033.0"
"1573037623191","4324969.0"
"1573037623239","4255959.0"
"1573037623287","4282026.0"
"1573037623335","4308542.0"
"1573037623380","4251412.0"
"1573037623442","4235434.0"
"1573037623486","4231763.0"
"1573037623529","4246107.0"
"1573037623581","4277221.0"
"1573037623628","4396621.0"
"1573037623679","4525592.0"
"1573037623728","4579405.0"
"1573037623777","4609729.0"
"1573037623827","4613099.0"
"1573037623875","4627724.0"
"1573037623926","4630991.0"
"1573037623968","4594998.0"
"1573037624023","4539292.0"
"1573037624068","4483234.0"
"1573037624119","4556216.0"
"1573037624169","4567525.0"
"1573037624211","4489860.0"
"1573037624267","4432406.0"
"1573037624315","4398587.0"
"1573037624365","4400648.0"
"1573037624415","4416948.0"
"1573037624455","4453814.0"
"1573037624509","4551578.0"
"1573037624552","4659244.0"
"1573037624606","4707990.0"
"1573037624654","4696870.0"
"1573037624707","4684793.0"
"1573037624756","4663655.0"
"1573037624804","4604797.0"
"1573037624849","4498826.0"
"1573037624896","4553866.0"
"1573037624954","4556842.0"
"1573037624994","4498255.0"
"1573037625050","4456624.0"
"1573037625095","4425197.0"
"1573037625143","4422857.0"
"1573037625192","4433312.0"
"1573037625244","4452794.0"
"1573037625289","4502467.0"
"1573037625342","4451494.0"
"1573037625393","4409740.0"
"1573037625447","4397954.0"
"1573037625494","4400898.0"
"1573037625531","4372967.0"
"1573037625581","4354856.0"
"1573037625632","4338190.0"
"1573037625680","4413557.0"
"1573037625731","4366340.0"
"1573037625778","4305704.0"
"1573037625830","4255833.0"
"1573037625879","4245806.0"
"1573037625933","4232687.0"
"1573037625977","4215399.0"
"1573037626025","4201990.0"
"1573037626074","4282370.0"
"1573037626124","4341144.0"
"1573037626174","4342280.0"
"1573037626216","4323909.0"
"1573037626273","4312787.0"
"1573037626319","4323336.0"
"1573037626369","4306035.0"
"1573037626415","4380227.0"
"1573037626462","4344598.0"
"1573037626515","4263791.0"
"1573037626560","4207721.0"
"1573037626611","4165530.0"
"1573037626657","4162169.0"
"1573037626716","4162763.0"
"1573037626760","4155522.0"
"1573037626808","4167964.0"
"1573037626853","4193544.0"
"1573037626912","4196622.0"
"1573037626954","4214493.0"
"1573037627005","4196654.0"
"1573037627055","4189383.0"
"1573037627101","4171272.0"
"1573037627151","4155438.0"
"1573037627192","4103623.0"
"1573037627249","4138317.0"
"1573037627296","4132959.0"
"1573037627345","4124440.0"
"1573037627395","4109834.0"
"1573037627447","4117709.0"
"1573037627496","4121880.0"
"1573037627541","4137390.0"
"1573037627591","4157165.0"
"1573037627635","4187125.0"
"1573037627682","4135060.0"
"1573037627730","4093399.0"
"1573037627781","4073935.0"
"1573037627829","4068733.0"
"1573037627880","4082080.0"
"1573037627933","4042841.0"
"1573037627984","4061056.0"
"1573037628030","4110854.0"
"1573037628079","4099171.0"
"1573037628128","4080312.0"
"1573037628176","4060381.0"
"1573037628226","4043654.0"
"1573037628271","4033312.0"
"1573037628324","4044267.0"
"1573037628374","4087698.0"
"1573037628426","4148282.0"
"1573037628471","4191047.0"
"1573037628514","4158122.0"
"1573037628569","4145109.0"
"1573037628616","4113454.0"
"1573037628666","4126051.0"
"1573037628714","4142685.0"
"1573037628764","4112715.0"
"1573037628817","4141395.0"
"1573037628856","4143185.0"
"1573037628913","4091692.0"
"1573037628962","4059828.0"
"1573037629010","4035279.0"
"1573037629056","4032574.0"
"1573037629107","4032721.0"
"1573037629150","4050976.0"
"1573037629204","4112361.0"
"1573037629257","4097414.0"
"1573037629301","4059495.0"
"1573037629345","4024502.0"
"1573037629402","4006985.0"
"1573037629451","3992055.0"
"1573037629491","3999120.0"
"1573037629541","3974570.0"
"1573037629597","4061576.0"
"1573037629637","4051059.0"
"1573037629693","4016835.0"
"1573037629741","4001794.0"
"1573037629791","3976671.0"
"1573037629839","3978835.0"
"1573037629889","3973207.0"
"1573037629931","3985097.0"
"1573037629987","4061931.0"
"1573037630036","4059838.0"
"1573037630083","4026926.0"
"1573037630133","3988790.0"
"1573037630180","3960984.0"
"1573037630230","3951081.0"
"1573037630279","3972114.0"
"1573037630329","3947617.0"
"1573037630374","3994906.0"
"1573037630430","3965062.0"
"1573037630479","3922182.0"
"1573037630525","3899589.0"
"1573037630574","3899266.0"
"1573037630622","3880147.0"
"1573037630672","3910822.0"
"1573037630719","3827311.0"
"1573037630768","3828165.0"
"1573037630815","3813018.0"
"1573037630861","3835780.0"
"1573037630920","3820830.0"
"1573037630959","3845120.0"
"1573037631013","3823744.0"
"1573037631062","3808587.0"
"1573037631111","3784244.0"
"1573037631155","3764490.0"
"1573037631209","3774809.0"
"1573037631255","3785317.0"
"1573037631305","3839565.0"
"1573037631356","3884225.0"
"1573037631406","3866977.0"
"1573037631450","3864011.0"
"1573037631496","3898985.0"
"1573037631547","3830712.0"
"1573037631596","3810948.0"
"1573037631645","3816472.0"
"1573037631692","3794980.0"
"1573037631747","3775662.0"
"1573037631800","3764396.0"
"1573037631843","3784307.0"
"1573037631894","3780240.0"
"1573037631947","3779823.0"
"1573037631991","3828289.0"
"1573037632035","3852934.0"
"1573037632088","3841408.0"
"1573037632135","4083651.0"
"1573037632187","4210415.0"
"1573037632237","4312029.0"
"1573037632284","4098484.0"
"1573037632334","4304891.0"
"1573037632377","4392689.0"
"1573037632431","4441301.0"
"1573037632475","4501406.0"
"1573037632530","4515596.0"
"1573037632580","4561877.0"
"1573037632626","4624593.0"
"1573037632672","4560420.0"
"1573037632724","4458422.0"
"1573037632775","4634601.0"
"1573037632820","4478594.0"
"1573037632867","4526996.0"
"1573037632923","4685354.0"
"1573037632971","4734652.0"
"1573037633022","4712244.0"
"1573037633067","4719246.0"
"1573037633115","4698461.0"
"1573037633161","4614263.0"
"1573037633209","4614483.0"
"1573037633256","4617790.0"
"1573037633308","4636546.0"
"1573037633355","4668907.0"
"1573037633407","4704526.0"
"1573037633455","4738190.0"
"1573037633500","4753428.0"
"1573037633556","4812795.0"
"1573037633604","4814315.0"
"1573037633650","4857902.0"
"1573037633702","4902383.0"
"1573037633753","4923739.0"
"1573037633799","4911203.0"
"1573037633850","4941507.0"
"1573037633904","4902434.0"
"1573037633954","4923615.0"
"1573037633996","4913950.0"
"1573037634044","4950932.0"
"1573037634094","4911079.0"
"1573037634137","4882035.0"
"1573037634192","4814376.0"
"1573037634237","4767077.0"
"1573037634288","4741122.0"
"1573037634337","4749767.0"
"1573037634380","4755218.0"
"1573037634435","4737387.0"
"1573037634487","4723521.0"
"1573037634534","4731688.0"
"1573037634578","4750807.0"
"1573037634630","4783451.0"
"1573037634680","4992209.0"
"1573037634728","4996744.0"
"1573037634777","4947518.0"
"1573037634819","4999293.0"
"1573037634870","5000771.0"
"1573037634919","5067190.0"
"1573037634975","5070019.0"
"1573037635019","5025257.0"
"1573037635068","5016061.0"
"1573037635118","4968657.0"
"1573037635162","4919078.0"
"1573037635217","4912339.0"
"1573037635266","4912359.0"
"1573037635315","4962998.0"
"1573037635362","4990992.0"
"1573037635425","5022677.0"
"1573037635461","5018632.0"
"1573037635509","5024893.0"
"1573037635558","5010610.0"
"1573037635604","5041787.0"
"1573037635652","5041767.0"
"1573037635701","5159647.0"
"1573037635750","5218381.0"
"1573037635799","5181098.0"
"1573037635849","5171393.0"
"1573037635902","5131603.0"
"1573037635947","5125248.0"
"1573037635996","5133194.0"
"1573037636043","5149734.0"
"1573037636093","5221896.0"
"1573037636142","5324800.0"
"1573037636191","5391573.0"
"1573037636240","5350670.0"
"1573037636288","5288358.0"
"1573037636338","5282690.0"
"1573037636387","5271497.0"
"1573037636440","5259034.0"
"1573037636483","5265338.0"
"1573037636532","5244667.0"
"1573037636586","5243410.0"
"1573037636635","5237345.0"
"1573037636678","5212690.0"
"1573037636732","5188234.0"
"1573037636782","5189877.0"
"1573037636830","5184093.0"
"1573037636874","5190678.0"
"1573037636924","5212086.0"
"1573037636981","5255560.0"
"1573037637027","5234462.0"
"1573037637075","5245624.0"
"1573037637120","5231457.0"
"1573037637173","5366387.0"
"1573037637224","5487140.0"
"1573037637271","5507114.0"
"1573037637319","5470163.0"
"1573037637368","5483355.0"
"1573037637421","5473357.0"
"1573037637467","5454082.0"
"1573037637515","5448567.0"
"1573037637560","5343274.0"
"1573037637614","5347850.0"
"1573037637663","5314301.0"
"1573037637711","5172733.0"
"1573037637757","5207822.0"
"1573037637809","5076116.0"
"1573037637856","4974088.0"
"1573037637914","4898616.0"
"1573037637951","4861647.0"
"1573037638002","4748529.0"
"1573037638054","4773422.0"
"1573037638105","4730502.0"
"1573037638146","4731105.0"
"1573037638199","4735837.0"
"1573037638244","4703372.0"
"1573037638294","4843599.0"
"1573037638343","4910809.0"
"1573037638392","5057391.0"
"1573037638447","5142952.0"
"1573037638489","5178674.0"
"1573037638535","5143617.0"
"1573037638591","5117913.0"
"1573037638639","5044939.0"
"1573037638688","4935578.0"
"1573037638736","4876261.0"
"1573037638785","4843753.0"
"1573037638830","4921191.0"
"1573037638886","4945147.0"
"1573037638932","4963405.0"
"1573037638975","5094237.0"
"1573037639025","5230988.0"
"1573037639075","5282834.0"
"1573037639125","5289252.0"
"1573037639172","5247435.0"
"1573037639222","5294673.0"
"1573037639271","5283750.0"
"1573037639322","5257941.0"
"1573037639369","5190054.0"
"1573037639417","5135294.0"
"1573037639472","5059076.0"
"1573037639514","5030885.0"
"1573037639564","4971290.0"
"1573037639612","4951379.0"
"1573037639664","4860450.0"
"1573037639710","4848184.0"
"1573037639763","4768501.0"
"1573037639809","4722763.0"
"1573037639856","5097565.0"
"1573037639909","5271381.0"
"1573037639954","5210912.0"
"1573037640003","5031885.0"
"1573037640054","4883876.0"
"1573037640103","4888037.0"
"1573037640150","4946551.0"
"1573037640198","4862488.0"
"1573037640248","4809634.0"
"1573037640296","4768168.0"
"1573037640347","4691285.0"
"1573037640395","4640987.0"
"1573037640448","4671207.0"
"1573037640493","4610322.0"
"1573037640542","4580902.0"
"1573037640588","4580049.0"
"1573037640636","4577074.0"
"1573037640686","4561761.0"
"1573037640733","4538565.0"
"1573037640785","4599543.0"
"1573037640831","4728328.0"
"1573037640882","4798232.0"
"1573037640934","4877572.0"
"1573037640984","4921138.0"
"1573037641029","4984813.0"
"1573037641078","4939562.0"
"1573037641128","4871153.0"
"1573037641175","4864757.0"
"1573037641232","4943057.0"
"1573037641278","4976262.0"
"1573037641327","5000135.0"
"1573037641375","5014511.0"
"1573037641430","5010807.0"
"1573037641475","5015042.0"
"1573037641522","5013648.0"
"1573037641573","5021399.0"
"1573037641621","5027191.0"
"1573037641671","5007719.0"
"1573037641718","4982544.0"
"1573037641768","4988848.0"
"1573037641816","4965266.0"
"1573037641865","5003308.0"
"1573037641930","5005295.0"
"1573037641964","5023894.0"
"1573037642008","5077343.0"
"1573037642059","5031125.0"
"1573037642111","4982107.0"
"1573037642154","4919974.0"
"1573037642208","4878071.0"
"1573037642256","4885697.0"
"1573037642305","4923989.0"
"1573037642352","5039603.0"
"1573037642405","5115469.0"
"1573037642457","5132269.0"
"1573037642502","5121054.0"
"1573037642545","5118506.0"
"1573037642597","5103485.0"
"1573037642645","5067253.0"
"1573037642696","5037303.0"
"1573037642746","5027431.0"
"1573037642788","5023550.0"
"1573037642842","5011360.0"
"1573037642887","4959804.0"
"1573037642942","4920431.0"
"1573037642992","4877655.0"
"1573037643037","4897909.0"
"1573037643089","4916677.0"
"1573037643136","4950952.0"
"1573037643184","4947165.0"
"1573037643235","5006470.0"
"1573037643283","5040444.0"
"1573037643331","5059076.0"
"1573037643375","5081297.0"
"1573037643428","5079964.0"
"1573037643486","5079507.0"
"1573037643527","5080090.0"
"1573037643576","5093000.0"
"1573037643625","5101289.0"
"1573037643674","5081597.0"
"1573037643722","4992843.0"
"1573037643770","4923105.0"
"1573037643819","4875847.0"
"1573037643871","4874130.0"
"1573037643924","4895746.0"
"1573037643967","4946667.0"
"1573037644009","4993062.0"
"1573037644059","5013534.0"
"1573037644109","5054031.0"
"1573037644158","5065880.0"
"1573037644212","5058098.0"
"1573037644255","5041194.0"
"1573037644308","5039510.0"
"1573037644357","5036076.0"
"1573037644408","5051326.0"
"1573037644460","5067794.0"
"1573037644503","5021023.0"
"1573037644549","4980829.0"
"1573037644601","4914106.0"
"1573037644649","4943410.0"
"1573037644699","4939136.0"
"1573037644748","4986101.0"
"1573037644793","5066867.0"
"1573037644846","5132050.0"
"1573037644894","5149338.0"
"1573037644950","5136804.0"
"1573037644992","5138094.0"
"1573037645042","5103746.0"
"1573037645090","5094580.0"
"1573037645139","5086238.0"
"1573037645189","5084812.0"
"1573037645237","5122667.0"
"1573037645285","5131290.0"
"1573037645334","5044866.0"
"1573037645378","4959087.0"
"1573037645431","4931041.0"
"1573037645486","4972267.0"
"1573037645529","5010954.0"
"1573037645579","5047476.0"
"1573037645629","5099948.0"
"1573037645676","5133173.0"
"1573037645725","5150224.0"
"1573037645774","5128096.0"
"1573037645822","5106490.0"
"1573037645875","5096984.0"
"1573037645936","5096098.0"
"1573037645974","5068344.0"
"1573037646031","5116976.0"
"1573037646097","5097514.0"
"1573037646120","5030428.0"
"1573037646162","4965993.0"
"1573037646210","4948352.0"
"1573037646262","4958618.0"
"1573037646312","5011183.0"
"1573037646355","5043815.0"
"1573037646413","5131249.0"
"1573037646456","5171943.0"
"1573037646509","5171372.0"
"1573037646552","5158930.0"
"1573037646608","5154622.0"
"1573037646652","5144720.0"
"1573037646707","5147601.0"
"1573037646754","5147404.0"
"1573037646796","5165734.0"
"1573037646849","5119900.0"
"1573037646901","4996910.0"
"1573037646952","4902217.0"
"1573037646992","4838678.0"
"1573037647050","4822678.0"
"1573037647092","4818320.0"
"1573037647141","4844086.0"
"1573037647196","4901447.0"
"1573037647243","4962448.0"
"1573037647291","4971987.0"
"1573037647334","4962645.0"
"1573037647390","4888590.0"
"1573037647434","4859066.0"
"1573037647491","4813785.0"
"1573037647532","4830189.0"
"1573037647589","4845949.0"
"1573037647634","4833976.0"
"1573037647685","4770748.0"
"1573037647733","4713587.0"
"1573037647779","4682691.0"
"1573037647833","4687985.0"
"1573037647874","4674515.0"
"1573037647933","4652919.0"
"1573037647971","4665122.0"
"1573037648028","4742558.0"
"1573037648077","4760450.0"
"1573037648125","4746449.0"
"1573037648170","4731782.0"
"1573037648218","4728411.0"
"1573037648273","4743224.0"
"1573037648315","4796871.0"
"1573037648370","4829919.0"
"1573037648412","4765734.0"
"1573037648467","4667950.0"
"1573037648515","4604225.0"
"1573037648564","4567826.0"
"1573037648611","4561854.0"
"1573037648656","4573517.0"
"1573037648713","4603091.0"
"1573037648754","4625269.0"
"1573037648810","4655540.0"
"1573037648850","4704038.0"
"1573037648907","4706409.0"
"1573037648958","4721546.0"
"1573037649003","4746999.0"
"1573037649050","4761096.0"
"1573037649100","4779934.0"
"1573037649146","4795747.0"
"1573037649193","4817060.0"
"1573037649250","4802996.0"
"1573037649291","4764424.0"
"1573037649347","4740394.0"
"1573037649396","4710030.0"
"1573037649442","4696267.0"
"1573037649490","4703372.0"
"1573037649542","4747270.0"
"1573037649583","4811318.0"
"1573037649632","4850421.0"
"1573037649680","4867232.0"
"1573037649732","4872903.0"
"1573037649781","4896505.0"
"1573037649832","4900750.0"
"1573037649877","4910413.0"
"1573037649932","4922231.0"
"1573037649974","4925840.0"
"1573037650033","4880455.0"
"1573037650075","4801592.0"
"1573037650130","4740341.0"
"1573037650176","4725634.0"
"1573037650226","4727537.0"
"1573037650272","4784491.0"
"1573037650322","4837211.0"
"1573037650371","4859920.0"
"1573037650419","4868376.0"
"1573037650471","4870842.0"
"1573037650520","4869885.0"
"1573037650568","4876554.0"
"1573037650615","4870989.0"
"1573037650660","4885883.0"
"1573037650714","4906565.0"
"1573037650762","4914429.0"
"1573037650810","4852815.0"
"1573037650857","4764164.0"
"1573037650912","4671874.0"
"1573037650961","4634508.0"
"1573037651009","4634112.0"
"1573037651055","4667066.0"
"1573037651103","4740457.0"
"1573037651149","4794051.0"
"1573037651200","4802757.0"
"1573037651253","4806773.0"
"1573037651293","4805369.0"
"1573037651344","4832373.0"
"1573037651395","4826329.0"
"1573037651441","4794248.0"
"1573037651492","4765933.0"
"1573037651543","4772236.0"
"1573037651590","4711298.0"
"1573037651639","4695527.0"
"1573037651692","4677959.0"
"1573037651741","4677699.0"
"1573037651790","4690649.0"
"1573037651838","4706596.0"
"1573037651880","4748830.0"
"1573037651938","4777283.0"
"1573037651983","4806107.0"
"1573037652031","4791054.0"
"1573037652078","4773912.0"
"1573037652130","4774422.0"
"1573037652176","4794684.0"
"1573037652229","4832820.0"
"1573037652276","4881485.0"
"1573037652325","4895798.0"
"1573037652375","4828348.0"
"1573037652415","4720140.0"
"1573037652466","4639697.0"
"1573037652517","4590307.0"
"1573037652566","4571759.0"
"1573037652618","4590921.0"
"1573037652663","4674972.0"
"1573037652716","4730418.0"
"1573037652764","4756144.0"
"1573037652816","4783565.0"
"1573037652860","4768534.0"
"1573037652910","4759493.0"
"1573037652962","4755655.0"
"1573037653012","4783648.0"
"1573037653058","4802113.0"
"1573037653100","4815689.0"
"1573037653151","4802933.0"
"1573037653204","4732478.0"
"1573037653256","4693022.0"
"1573037653295","4677469.0"
"1573037653351","4661471.0"
"1573037653399","4637379.0"
"1573037653446","4697067.0"
"1573037653500","4794363.0"
"1573037653547","4842203.0"
"1573037653598","4853762.0"
"1573037653639","4861240.0"
"1573037653695","4873307.0"
"1573037653738","4889994.0"
"1573037653790","4900197.0"
"1573037653839","4920962.0"
"1573037653885","4948758.0"
"1573037653943","4944014.0"
"1573037653988","4915364.0"
"1573037654038","4875190.0"
"1573037654080","4853719.0"
"1573037654136","4849840.0"
"1573037654177","4857299.0"
"1573037654232","4886133.0"
"1573037654280","4937366.0"
"1573037654324","4982721.0"
"1573037654375","4987611.0"
"1573037654421","4987131.0"
"1573037654477","4989078.0"
"1573037654518","4985728.0"
"1573037654576","4979840.0"
"1573037654618","4978685.0"
"1573037654668","5005962.0"
"1573037654720","5015511.0"
"1573037654770","4999625.0"
"1573037654818","4961594.0"
"1573037654865","4940986.0"
"1573037654914","4920661.0"
"1573037654959","4897420.0"
"1573037655015","4875617.0"
"1573037655061","4934964.0"
"1573037655114","4995943.0"
"1573037655154","5025091.0"
"1573037655207","5016551.0"
"1573037655259","4995193.0"
"1573037655299","5002215.0"
"1573037655357","4991209.0"
"1573037655398","4984167.0"
"1573037655453","4989244.0"
"1573037655501","5001281.0"
"1573037655552","4924249.0"
"1573037655601","4835630.0"
"1573037655643","4774099.0"
"1573037655699","4767431.0"
"1573037655738","4745908.0"
"1573037655796","4692906.0"
"1573037655840","4644431.0"
"1573037655887","4612713.0"
"1573037655943","4712234.0"
"1573037655992","4740518.0"
"1573037656031","4751607.0"
"1573037656085","4775960.0"
"1573037656132","4780131.0"
"1573037656179","4803382.0"
"1573037656237","4815252.0"
"1573037656280","4823594.0"
"1573037656325","4788599.0"
"1573037656373","4679862.0"
"1573037656423","4587550.0"
"1573037656471","4575628.0"
"1573037656520","4585366.0"
"1573037656571","4642214.0"
"1573037656623","4738970.0"
"1573037656670","4859264.0"
"1573037656721","4862927.0"
"1573037656768","4921878.0"
"1573037656815","4941923.0"
"1573037656864","4910955.0"
"1573037656913","4893811.0"
"1573037656962","4886580.0"
"1573037657012","4959691.0"
"1573037657061","4938532.0"
"1573037657109","4910175.0"
"1573037657157","4851045.0"
"1573037657208","4770312.0"
"1573037657255","4714918.0"
"1573037657304","4662916.0"
"1573037657353","4613254.0"
"1573037657402","4579872.0"
"1573037657451","4672798.0"
"1573037657502","4780153.0"
"1573037657556","4775389.0"
"1573037657603","4797307.0"
"1573037657649","4833340.0"
"1573037657702","4873173.0"
"1573037657745","4894549.0"
"1573037657799","4886613.0"
"1573037657839","4861730.0"
"1573037657889","4910529.0"
"1573037657944","4887007.0"
"1573037657989","4821731.0"
"1573037658037","4757351.0"
"1573037658089","4734880.0"
"1573037658140","4739354.0"
"1573037658182","4729545.0"
"1573037658239","4740331.0"
"1573037658281","4759722.0"
"1573037658338","4793760.0"
"1573037658381","4833280.0"
"1573037658433","4841622.0"
"1573037658482","4851774.0"
"1573037658530","4851401.0"
"1573037658581","4861834.0"
"1573037658622","4851275.0"
"1573037658679","4865121.0"
"1573037658724","4846573.0"
"1573037658783","4737700.0"
"1573037658824","4646105.0"
"1573037658874","4594925.0"
"1573037658914","4584210.0"
"1573037658962","4589173.0"
"1573037659015","4593095.0"
"1573037659063","4608365.0"
"1573037659111","4608219.0"
"1573037659165","4655500.0"
"1573037659211","4695736.0"
"1573037659258","4724000.0"
"1573037659309","4731999.0"
"1573037659362","4725424.0"
"1573037659406","4690245.0"
"1573037659461","4713567.0"
"1573037659502","4704298.0"
"1573037659559","4684097.0"
"1573037659606","4655217.0"
"1573037659650","4633945.0"
"1573037659704","4639136.0"
"1573037659748","4647759.0"
"1573037659802","4648385.0"
"1573037659845","4656778.0"
"1573037659892","4703236.0"
"1573037659949","4738001.0"
"1573037659998","4755697.0"
"1573037660046","4770301.0"
"1573037660094","4775326.0"
"1573037660145","4780298.0"
"1573037660192","4761990.0"
"1573037660242","4759619.0"
"1573037660283","4795611.0"
"1573037660338","4785282.0"
"1573037660384","4758318.0"
"1573037660437","4731906.0"
"1573037660486","4725040.0"
"1573037660532","4732686.0"
"1573037660583","4735276.0"
"1573037660627","4734266.0"
"1573037660681","4755791.0"
"1573037660725","4817913.0"
"1573037660779","4857902.0"
"1573037660828","4860533.0"
"1573037660875","4880568.0"
"1573037660925","4900073.0"
"1573037660967","4892688.0"
"1573037661022","4894996.0"
"1573037661064","4932955.0"
"1573037661121","4926173.0"
"1573037661171","4884096.0"
"1573037661219","4827639.0"
"1573037661268","4788246.0"
"1573037661315","4784282.0"
"1573037661364","4783524.0"
"1573037661411","4793467.0"
"1573037661453","4834881.0"
"1573037661507","4854458.0"
"1573037661553","4892064.0"
"1573037661608","4896713.0"
"1573037661651","4918351.0"
"1573037661706","4923302.0"
"1573037661753","4929907.0"
"1573037661803","4928607.0"
"1573037661846","4953179.0"
"1573037661894","4930448.0"
"1573037661948","4860420.0"
"1573037662000","4808395.0"
"1573037662049","4760429.0"
"1573037662096","4741934.0"
"1573037662141","4719536.0"
"1573037662188","4720172.0"
"1573037662243","4743421.0"
"1573037662287","4795715.0"
"1573037662342","4859763.0"
"1573037662391","4870936.0"
"1573037662440","4885126.0"
"1573037662489","4900926.0"
"1573037662536","4901343.0"
"1573037662585","4889795.0"
"1573037662633","4890244.0"
"1573037662684","4915407.0"
"1573037662727","4904598.0"
"1573037662775","4865475.0"
"1573037662830","4818537.0"
"1573037662878","4808374.0"
"1573037662929","4806753.0"
"1573037662971","4803236.0"
"1573037663021","4801540.0"
"1573037663070","4816883.0"
"1573037663118","4878685.0"
"1573037663168","4929950.0"
"1573037663222","4932841.0"
"1573037663270","4947592.0"
"1573037663317","4949069.0"
"1573037663369","4941559.0"
"1573037663411","4931281.0"
"1573037663465","4965983.0"
"1573037663507","4957494.0"
"1573037663563","4887777.0"
"1573037663609","4800843.0"
"1573037663655","4731312.0"
"1573037663710","4710217.0"
"1573037663758","4703049.0"
"1573037663807","4715834.0"
"1573037663849","4750890.0"
"1573037663897","4781017.0"
"1573037663948","4784459.0"
"1573037664004","4773786.0"
"1573037664048","4763936.0"
"1573037664098","4731926.0"
"1573037664146","4696797.0"
"1573037664195","4631875.0"
"1573037664247","4616364.0"
"1573037664289","4595549.0"
"1573037664346","4526622.0"
"1573037664392","4499002.0"
"1573037664443","4488340.0"
"1573037664490","4476566.0"
"1573037664539","4420016.0"
"1573037664590","4364206.0"
"1573037664630","4399284.0"
"1573037664686","4475993.0"
"1573037664729","4551442.0"
"1573037664785","4581069.0"
"1573037664833","4594052.0"
"1573037664876","4609385.0"
"1573037664933","4625259.0"
"1573037664977","4619871.0"
"1573037665029","4604651.0"
"1573037665070","4584399.0"
"1573037665120","4509738.0"
"1573037665177","4434913.0"
"1573037665222","4390609.0"
"1573037665274","4383307.0"
"1573037665316","4381756.0"
"1573037665373","4374152.0"
"1573037665412","4406192.0"
"1573037665470","4454844.0"
"1573037665512","4533343.0"
"1573037665566","4545294.0"
"1573037665614","4554552.0"
"1573037665658","4566328.0"
"1573037665714","4572247.0"
"1573037665759","4564508.0"
"1573037665811","4584606.0"
"1573037665852","4592761.0"
"1573037665905","4545970.0"
"1573037665952","4456364.0"
"1573037666007","4366443.0"
"1573037666056","4362449.0"
"1573037666102","4391899.0"
"1573037666152","4403122.0"
"1573037666193","4408960.0"
"1573037666252","4448323.0"
"1573037666292","4529473.0"
"1573037666348","4567576.0"
"1573037666389","4576928.0"
"1573037666445","4588590.0"
"1573037666493","4584699.0"
"1573037666541","4527195.0"
"1573037666590","4484805.0"
"1573037666634","4558433.0"
"1573037666692","4479437.0"
"1573037666732","4418342.0"
"1573037666789","4385294.0"
"1573037666830","4376462.0"
"1573037666887","4354596.0"
"1573037666934","4299379.0"
"1573037666976","4319288.0"
"1573037667031","4368367.0"
"1573037667080","4420620.0"
"1573037667131","4442652.0"
"1573037667172","4472622.0"
"1573037667228","4481954.0"
"1573037667271","4479697.0"
"1573037667326","4446876.0"
"1573037667376","4434070.0"
"1573037667421","4421827.0"
"1573037667471","4391233.0"
"1573037667517","4336329.0"
"1573037667571","4300950.0"
"1573037667612","4276317.0"
"1573037667664","4283099.0"
"1573037667716","4286447.0"
"1573037667763","4290952.0"
"1573037667811","4261504.0"
"1573037667862","4258444.0"
"1573037667907","4242446.0"
"1573037667952","4224688.0"
"1573037668001","4230139.0"
"1573037668052","4243183.0"
"1573037668102","4257686.0"
"1573037668152","4284107.0"
"1573037668200","4316251.0"
"1573037668248","4306992.0"
"1573037668300","4223524.0"
"1573037668353","4152047.0"
"1573037668398","4114994.0"
"1573037668450","4107763.0"
"1573037668491","4125291.0"
"1573037668546","4166528.0"
"1573037668595","4188300.0"
"1573037668639","4259017.0"
"1573037668690","4325229.0"
"1573037668741","4353316.0"
"1573037668793","4364166.0"
"1573037668837","4385544.0"
"1573037668892","4400451.0"
"1573037668937","4411820.0"
"1573037668990","4428848.0"
"1573037669035","4447979.0"
"1573037669083","4438503.0"
"1573037669130","4432166.0"
"1573037669175","4414722.0"
"1573037669231","4424364.0"
"1573037669272","4452723.0"
"1573037669330","4502530.0"
"1573037669378","4574350.0"
"1573037669426","4669657.0"
"1573037669476","4712661.0"
"1573037669521","4743141.0"
"1573037669570","4767930.0"
"1573037669619","4773995.0"
"1573037669671","4787413.0"
"1573037669716","4795361.0"
"1573037669768","4815313.0"
"1573037669817","4830990.0"
"1573037669868","4813129.0"
"1573037669913","4795331.0"
"1573037669961","4786998.0"
"1573037670009","4802289.0"
"1573037670055","4817259.0"
"1573037670111","4837617.0"
"1573037670155","4854219.0"
"1573037670208","4879809.0"
"1573037670254","4912910.0"
"1573037670306","4918497.0"
"1573037670354","4919994.0"
"1573037670400","4915667.0"
"1573037670453","4914003.0"
"1573037670494","4930210.0"
"1573037670549","4925259.0"
"1573037670600","4926713.0"
"1573037670644","4886706.0"
"1573037670696","4837491.0"
"1573037670744","4784168.0"
"1573037670791","4747136.0"
"1573037670841","4731906.0"
"1573037670890","4745305.0"
"1573037670938","4783305.0"
"1573037670994","4903474.0"
"1573037671037","4859534.0"
"1573037671078","4842735.0"
"1573037671135","4832050.0"
"1573037671185","4823917.0"
"1573037671232","4772673.0"
"1573037671282","4727838.0"
"1573037671333","4740831.0"
"1573037671375","4718226.0"
"1573037671429","4641340.0"
"1573037671478","4597827.0"
"1573037671527","4565382.0"
"1573037671575","4543266.0"
"1573037671626","4540052.0"
"1573037671669","4501780.0"
"1573037671718","4529347.0"
"1573037671772","4560503.0"
"1573037671818","4596102.0"
"1573037671869","4615854.0"
"1573037671917","4634871.0"
"1573037671965","4656757.0"
"1573037672018","4654096.0"
"1573037672060","4642214.0"
"1573037672114","4690836.0"
"1573037672160","4668336.0"
"1573037672213","4580612.0"
"1573037672262","4521774.0"
"1573037672309","4491910.0"
"1573037672358","4501552.0"
"1573037672403","4503019.0"
"1573037672458","4523544.0"
"1573037672500","4564914.0"
"1573037672550","4600313.0"
"1573037672599","4600687.0"
"1573037672644","4616167.0"
"1573037672699","4634662.0"
"1573037672742","4650985.0"
"1573037672797","4660191.0"
"1573037672840","4648602.0"
"1573037672895","4674598.0"
"1573037672940","4677323.0"
"1573037672996","4639979.0"
"1573037673039","4610602.0"
"1573037673083","4571800.0"
"1573037673131","4529233.0"
"1573037673182","4483265.0"
"1573037673230","4447926.0"
"1573037673280","4446803.0"
"1573037673331","4480237.0"
"1573037673378","4492887.0"
"1573037673429","4516813.0"
"1573037673479","4512881.0"
"1573037673531","4521577.0"
"1573037673579","4532790.0"
"1573037673626","4553429.0"
"1573037673677","4571406.0"
"1573037673727","4549361.0"
"1573037673775","4568202.0"
"1573037673818","4586573.0"
"1573037673872","4594685.0"
"1573037673926","4593251.0"
"1573037673969","4575097.0"
"1573037674020","4545190.0"
"1573037674066","4457819.0"
"1573037674118","4359808.0"
"1573037674161","4287863.0"
"1573037674206","4242580.0"
"1573037674260","4206183.0"
"1573037674307","4204517.0"
"1573037674355","4211789.0"
"1573037674403","4238815.0"
"1573037674459","4256696.0"
"1573037674501","4274610.0"
"1573037674557","4277544.0"
"1573037674597","4260193.0"
"1573037674649","4257903.0"
"1573037674700","4261057.0"
"1573037674752","4262491.0"
"1573037674802","4257509.0"
"1573037674851","4235331.0"
"1573037674899","4212589.0"
"1573037674947","4174610.0"
"1573037675001","4132199.0"
"1573037675039","4068504.0"
"1573037675096","4039940.0"
"1573037675141","4065676.0"
"1573037675195","4128351.0"
"1573037675242","4198162.0"
"1573037675287","4244994.0"
"1573037675339","4271490.0"
"1573037675382","4289735.0"
"1573037675438","4311009.0"
"1573037675479","4325833.0"
"1573037675529","4324803.0"
"1573037675581","4287217.0"
"1573037675632","4247054.0"
"1573037675682","4218217.0"
"1573037675732","4179374.0"
"1573037675781","4152183.0"
"1573037675823","4139347.0"
"1573037675878","4150851.0"
"1573037675929","4182704.0"
"1573037675977","4234227.0"
"1573037676024","4273590.0"
"1573037676075","4298473.0"
"1573037676122","4307856.0"
"1573037676172","4324063.0"
"1573037676220","4347928.0"
"1573037676264","4365590.0"
"1573037676319","4388798.0"
"1573037676360","4390712.0"
"1573037676418","4388465.0"
"1573037676464","4359704.0"
"1573037676514","4316450.0"
"1573037676562","4271553.0"
"1573037676609","4251121.0"
"1573037676654","4247470.0"
"1573037676701","4288623.0"
"1573037676758","4351225.0"
"1573037676802","4442652.0"
"1573037676855","4485585.0"
"1573037676903","4515823.0"
"1573037676953","4535537.0"
"1573037677007","4542705.0"
"1573037677050","4550058.0"
"1573037677101","4559390.0"
"1573037677141","4586613.0"
"1573037677198","4577127.0"
"1573037677240","4553075.0"
"1573037677296","4495654.0"
"1573037677345","4454637.0"
"1573037677392","4441041.0"
"1573037677442","4435049.0"
"1573037677485","4365893.0"
"1573037677533","4330711.0"
"1573037677583","4324282.0"
"1573037677631","4298599.0"
"1573037677682","4278574.0"
"1573037677730","4281465.0"
"1573037677777","4296196.0"
"1573037677825","4313870.0"
"1573037677873","4340760.0"
"1573037677922","4309168.0"
"1573037677971","4248041.0"
"1573037678021","4162419.0"
"1573037678071","4106162.0"
"1573037678120","4087708.0"
"1573037678169","4097300.0"
"1573037678218","4106682.0"
"1573037678267","4113475.0"
"1573037678316","4111591.0"
"1573037678365","4112164.0"
"1573037678420","4097527.0"
"1573037678463","4091879.0"
"1573037678519","4072947.0"
"1573037678565","4076139.0"
"1573037678617","4079449.0"
"1573037678657","4101075.0"
"1573037678706","4134956.0"
"1573037678762","4116502.0"
"1573037678806","4058487.0"
"1573037678859","4025604.0"
"1573037678905","3998246.0"
"1573037678957","3955970.0"
"1573037679010","3939035.0"
"1573037679056","3959300.0"
"1573037679104","3997696.0"
"1573037679148","4049219.0"
"1573037679202","4069357.0"
"1573037679244","4069264.0"
"1573037679294","4074372.0"
"1573037679342","4093023.0"
"1573037679392","4104819.0"
"1573037679440","4081726.0"
"1573037679487","4078315.0"
"1573037679543","4044901.0"
"1573037679590","3970389.0"
"1573037679639","3935498.0"
"1573037679683","3918563.0"
"1573037679739","3910001.0"
"1573037679785","3904914.0"
"1573037679838","3894054.0"
"1573037679886","3895604.0"
"1573037679936","3939846.0"
"1573037679983","3931190.0"
"1573037680026","3923285.0"
"1573037680081","3935634.0"
"1573037680124","3993732.0"
"1573037680179","4018895.0"
"1573037680228","4041480.0"
"1573037680277","4092619.0"
"1573037680325","4107286.0"
"1573037680368","4030297.0"
"1573037680423","3921954.0"
"1573037680465","3851964.0"
"1573037680521","3826147.0"
"1573037680567","3828134.0"
"1573037680619","3836997.0"
"1573037680661","3889550.0"
"1573037680710","3948251.0"
"1573037680765","3931379.0"
"1573037680811","3925126.0"
"1573037680861","3923275.0"
"1573037680905","3905101.0"
"1573037680961","3906537.0"
"1573037681010","3922901.0"
"1573037681058","3996029.0"
"1573037681108","4071365.0"
"1573037681151","4037776.0"
"1573037681205","3980072.0"
"1573037681246","3949998.0"
"1573037681302","3950488.0"
"1573037681345","3950508.0"
"1573037681399","3932751.0"
"1573037681449","3929163.0"
"1573037681497","3950352.0"
"1573037681547","3992608.0"
"1573037681593","4026083.0"
"1573037681641","4056917.0"
"1573037681686","4073705.0"
"1573037681741","4098848.0"
"1573037681788","4104882.0"
"1573037681839","4083411.0"
"1573037681888","4042644.0"
"1573037681938","4007608.0"
"1573037681986","3974237.0"
"1573037682027","3935664.0"
"1573037682084","3927009.0"
"1573037682126","3930079.0"
"1573037682181","3923015.0"
"1573037682228","3921424.0"
"1573037682277","3890403.0"
"1573037682329","3835946.0"
"1573037682371","3796177.0"
"1573037682426","3782267.0"
"1573037682468","3777503.0"
"1573037682523","3802595.0"
"1573037682568","3831586.0"
"1573037682621","3821840.0"
"1573037682670","3856302.0"
"1573037682713","3848419.0"
"1573037682768","3851280.0"
"1573037682811","3838744.0"
"1573037682865","3792119.0"
"1573037682909","3755503.0"
"1573037682963","3735539.0"
"1573037683008","3722808.0"
"1573037683055","3688354.0"
"1573037683108","3664698.0"
"1573037683152","3636435.0"
"1573037683199","3628883.0"
"1573037683249","3649625.0"
"1573037683305","3667258.0"
"1573037683348","3640439.0"
"1573037683402","3629383.0"
"1573037683450","3641896.0"
"1573037683499","3624254.0"
"1573037683549","3605967.0"
"1573037683593","3594731.0"
"1573037683641","3588969.0"
"1573037683689","3599943.0"
"1573037683736","3607621.0"
"1573037683788","3585192.0"
"1573037683836","3561630.0"
"1573037683886","3616806.0"
"1573037683934","3654046.0"
"1573037683989","3652892.0"
"1573037684029","3681082.0"
"1573037684086","3690351.0"
"1573037684129","3724190.0"
"1573037684184","3739410.0"
"1573037684230","3790445.0"
"1573037684275","3769567.0"
"1573037684326","3708702.0"
"1573037684371","3670889.0"
"1573037684423","3664491.0"
"1573037684472","3679719.0"
"1573037684526","3692109.0"
"1573037684570","3705415.0"
"1573037684621","3722132.0"
"1573037684675","3746681.0"
"1573037684715","3801388.0"
"1573037684770","3794190.0"
"1573037684811","3783745.0"
"1573037684868","3776652.0"
"1573037684911","3792993.0"
"1573037684965","3823181.0"
"1573037685017","3866841.0"
"1573037685054","3898215.0"
"1573037685111","3864657.0"
"1573037685154","3865541.0"
"1573037685210","3849167.0"
"1573037685251","3800628.0"
"1573037685308","3767933.0"
"1573037685352","3771398.0"
"1573037685405","3815722.0"
"1573037685455","3853962.0"
"1573037685497","3890797.0"
"1573037685545","3920768.0"
"1573037685593","3934177.0"
"1573037685646","3941489.0"
"1573037685692","3956605.0"
"1573037685749","3943226.0"
"1573037685792","3934801.0"
"1573037685845","3939015.0"
"1573037685890","3932034.0"
"1573037685942","3912259.0"
"1573037685992","3890153.0"
"1573037686035","3874216.0"
"1573037686089","3872146.0"
"1573037686130","3890320.0"
"1573037686186","3916253.0"
"1573037686232","3920414.0"
"1573037686282","3929526.0"
"1573037686330","3920570.0"
"1573037686375","3912498.0"
"1573037686431","3925262.0"
"1573037686471","3935508.0"
"1573037686529","3951288.0"
"1573037686576","3989414.0"
"1573037686625","4028621.0"
"1573037686675","3981456.0"
"1573037686716","3915213.0"
"1573037686770","3884785.0"
"1573037686818","3863887.0"
"1573037686870","3865437.0"
"1573037686911","3874799.0"
"1573037686964","3913435.0"
"1573037687014","3962097.0"
"1573037687064","3992691.0"
"1573037687112","4009126.0"
"1573037687156","3998913.0"
"1573037687210","3987126.0"
"1573037687253","3974727.0"
"1573037687310","3975671.0"
"1573037687350","3975870.0"
"1573037687406","4007442.0"
"1573037687457","4029224.0"
"1573037687505","3999067.0"
"1573037687552","3980509.0"
"1573037687598","3975495.0"
"1573037687646","3953485.0"
"1573037687694","3928872.0"
"1573037687750","3941189.0"
"1573037687792","3962711.0"
"1573037687839","3981832.0"
"1573037687893","3970897.0"
"1573037687939","3959027.0"
"1573037687990","3962554.0"
"1573037688035","3962118.0"
"1573037688087","3979782.0"
"1573037688133","3937038.0"
"1573037688184","3948781.0"
"1573037688232","3951112.0"
"1573037688287","3944153.0"
"1573037688337","3933240.0"
"1573037688378","3934488.0"
"1573037688431","3936995.0"
"1573037688481","3942312.0"
"1573037688530","3970377.0"
"1573037688577","3960620.0"
"1573037688632","3957343.0"
"1573037688675","3923525.0"
"1573037688720","3913799.0"
"1573037688778","3890060.0"
"1573037688825","3905527.0"
"1573037688870","3926875.0"
"1573037688916","3945350.0"
"1573037688969","3968485.0"
"1573037689013","3976068.0"
"1573037689069","3940272.0"
"1573037689118","3907401.0"
"1573037689162","3893211.0"
"1573037689215","3901783.0"
"1573037689263","3913549.0"
"1573037689305","3943612.0"
"1573037689356","3974030.0"
"1573037689405","3987094.0"
"1573037689454","3994522.0"
"1573037689499","3991765.0"
"1573037689559","3995916.0"
"1573037689606","3944600.0"
"1573037689649","3933647.0"
"1573037689700","3915089.0"
"1573037689749","3930256.0"
"1573037689798","3936881.0"
"1573037689852","3924085.0"
"1573037689896","3903687.0"
"1573037689949","3899619.0"
"1573037689994","3905664.0"
"1573037690045","3870659.0"
"1573037690094","3858872.0"
"1573037690139","3846619.0"
"1573037690189","3852184.0"
"1573037690237","3864687.0"
"1573037690289","3870669.0"
"1573037690340","3888707.0"
"1573037690379","3905320.0"
"1573037690435","3926072.0"
"1573037690485","3947617.0"
"1573037690530","3968900.0"
"1573037690575","3966039.0"
"1573037690633","3970503.0"
"1573037690675","3954732.0"
"1573037690729","3963398.0"
"1573037690777","3965342.0"
"1573037690826","3966435.0"
"1573037690874","3978898.0"
"1573037690918","4002407.0"
"1573037690967","3993378.0"
"1573037691017","3979585.0"
"1573037691071","3942769.0"
"1573037691118","3922578.0"
"1573037691167","3901242.0"
"1573037691219","3913788.0"
"1573037691266","3919498.0"
"1573037691313","3952932.0"
"1573037691358","3984442.0"
"1573037691412","4001481.0"
"1573037691461","3962097.0"
"1573037691511","3909315.0"
"1573037691558","3882965.0"
"1573037691607","3876047.0"
"1573037691651","3881518.0"
"1573037691698","3901876.0"
"1573037691754","3954076.0"
"1573037691797","3975808.0"
"1573037691853","3978262.0"
"1573037691898","3969586.0"
"1573037691951","3968193.0"
"1573037691999","3960651.0"
"1573037692041","3963751.0"
"1573037692096","3966799.0"
"1573037692139","3997092.0"
"1573037692195","4000180.0"
"1573037692235","4015067.0"
"1573037692290","3994938.0"
"1573037692338","3992691.0"
"1573037692383","3989934.0"
"1573037692439","3967236.0"
"1573037692484","3946951.0"
"1573037692537","3946711.0"
"1573037692577","3970803.0"
"1573037692634","3995105.0"
"1573037692677","4034259.0"
"1573037692727","4034779.0"
"1573037692779","4049458.0"
"1573037692829","4068610.0"
"1573037692878","4094813.0"
"1573037692920","4116272.0"
"1573037692970","4123410.0"
"1573037693017","4138597.0"
"1573037693072","4135350.0"
"1573037693123","4157842.0"
"1573037693171","4163970.0"
"1573037693219","4156239.0"
"1573037693267","4148333.0"
"1573037693319","4152598.0"
"1573037693359","4146045.0"
"1573037693408","4147303.0"
"1573037693456","4173519.0"
"1573037693505","4199826.0"
"1573037693557","4215253.0"
"1573037693603","4209334.0"
"1573037693651","4199785.0"
"1573037693709","4204090.0"
"1573037693759","4220944.0"
"1573037693798","4224168.0"
"1573037693857","4230909.0"
"1573037693898","4193481.0"
"1573037693949","4163334.0"
"1573037694000","4143248.0"
"1573037694050","4123243.0"
"1573037694099","4118749.0"
"1573037694140","4107847.0"
"1573037694188","4120289.0"
"1573037694239","4137504.0"
"1573037694296","4146690.0"
"1573037694340","4123160.0"
"1573037694392","4064219.0"
"1573037694442","4040813.0"
"1573037694489","4026207.0"
"1573037694540","4045381.0"
"1573037694586","4065696.0"
"1573037694638","4087822.0"
"1573037694678","4120860.0"
"1573037694729","4143591.0"
"1573037694779","4121547.0"
"1573037694832","4094012.0"
"1573037694882","4068463.0"
"1573037694925","4063158.0"
"1573037694980","4043643.0"
"1573037695023","4066403.0"
"1573037695078","4079386.0"
"1573037695118","4091119.0"
"1573037695177","4089975.0"
"1573037695221","4074518.0"
"1573037695272","4056500.0"
"1573037695322","4008098.0"
"1573037695369","4017231.0"
"1573037695420","4025439.0"
"1573037695461","4055491.0"
"1573037695517","4083714.0"
"1573037695566","4086365.0"
"1573037695617","4066226.0"
"1573037695662","4057510.0"
"1573037695712","4052579.0"
"1573037695760","4010583.0"
"1573037695803","3989788.0"
"1573037695860","3995448.0"
"1573037695901","3994012.0"
"1573037695957","4011706.0"
"1573037696002","4012247.0"
"1573037696051","4027186.0"
"1573037696104","4037516.0"
"1573037696148","4049229.0"
"1573037696201","4061742.0"
"1573037696244","4055950.0"
"1573037696299","4026333.0"
"1573037696340","4040990.0"
"1573037696397","4012600.0"
"1573037696442","4024116.0"
"1573037696492","4029411.0"
"1573037696543","4042280.0"
"1573037696593","4055190.0"
"1573037696640","4077492.0"
"1573037696684","4090339.0"
"1573037696738","4062273.0"
"1573037696781","4040626.0"
"1573037696837","4023170.0"
"1573037696883","4030171.0"
"1573037696928","4039866.0"
"1573037696974","4062628.0"
"1573037697029","4078896.0"
"1573037697073","4073695.0"
"1573037697120","4125988.0"
"1573037697178","4080040.0"
"1573037697224","4045431.0"
"1573037697276","4022462.0"
"1573037697324","4023233.0"
"1573037697367","4032449.0"
"1573037697421","4050373.0"
"1573037697465","4082736.0"
"1573037697520","4106496.0"
"1573037697561","4108867.0"
"1573037697618","4109574.0"
"1573037697668","4112123.0"
"1573037697714","4089268.0"
"1573037697764","4092940.0"
"1573037697811","4095500.0"
"1573037697861","4122514.0"
"1573037697902","4146690.0"
"1573037697959","4152224.0"
"1573037698005","4151434.0"
"1573037698055","4141498.0"
"1573037698105","4149883.0"
"1573037698149","4143872.0"
"1573037698204","4157218.0"
"1573037698245","4185866.0"
"1573037698301","4232397.0"
"1573037698342","4244506.0"
"1573037698393","4253139.0"
"1573037698441","4254138.0"
"1573037698490","4253025.0"
"1573037698539","4260857.0"
"1573037698589","4280112.0"
"1573037698636","4280372.0"
"1573037698685","4299463.0"
"1573037698735","4297996.0"
"1573037698785","4281933.0"
"1573037698832","4273466.0"
"1573037698884","4271896.0"
"1573037698929","4276648.0"
"1573037698980","4287488.0"
"1573037699029","4310072.0"
"1573037699076","4378146.0"
"1573037699127","4406389.0"
"1573037699174","4432272.0"
"1573037699224","4437473.0"
"1573037699272","4445702.0"
"1573037699323","4452723.0"
"1573037699370","4465300.0"
"1573037699420","4478270.0"
"1573037699470","4517073.0"
"1573037699518","4551858.0"
"1573037699570","4564831.0"
"1573037699621","4565528.0"
"1573037699668","4536911.0"
"1573037699720","4514909.0"
"1573037699767","4492137.0"
"1573037699815","4482557.0"
"1573037699866","4479207.0"
"1573037699911","4486552.0"
"1573037699963","4518830.0"
"1573037700011","4528733.0"
"1573037700052","4549008.0"
"1573037700105","4551214.0"
"1573037700152","4560034.0"
"1573037700202","4564622.0"
"1573037700248","4561950.0"
"1573037700304","4579852.0"
"1573037700356","4604871.0"
"1573037700403","4608522.0"
"1573037700445","4603924.0"
"1573037700501","4595175.0"
"1573037700547","4580331.0"
"1573037700600","4551308.0"
"1573037700641","4521004.0"
"1573037700695","4505494.0"
"1573037700745","4529962.0"
"1573037700787","4544067.0"
"1573037700842","4561086.0"
"1573037700886","4561127.0"
"1573037700934","4568888.0"
"1573037700988","4570292.0"
"1573037701037","4555136.0"
"1573037701088","4564144.0"
"1573037701135","4568773.0"
"1573037701185","4570833.0"
"1573037701231","4552139.0"
"1573037701282","4537971.0"
"1573037701326","4533508.0"
"1573037701374","4526476.0"
"1573037701427","4530023.0"
"1573037701477","4515533.0"
"1573037701528","4502779.0"
"1573037701574","4506827.0"
"1573037701624","4506534.0"
"1573037701668","4493824.0"
"1573037701722","4488226.0"
"1573037701768","4502550.0"
"1573037701820","4511248.0"
"1573037701870","4527122.0"
"1573037701917","4523708.0"
"1573037701968","4469461.0"
"1573037702009","4416585.0"
"1573037702065","4360578.0"
"1573037702107","4362626.0"
"1573037702156","4357237.0"
"1573037702208","4389132.0"
"1573037702257","4444472.0"
"1573037702311","4507524.0"
"1573037702357","4541299.0"
"1573037702407","4522138.0"
"1573037702450","4501792.0"
"1573037702505","4494498.0"
"1573037702549","4479664.0"
"1573037702603","4457341.0"
"1573037702648","4495538.0"
"1573037702699","4562127.0"
"1573037702750","4521421.0"
"1573037702792","4489756.0"
"1573037702847","4416292.0"
"1573037702890","4360899.0"
"1573037702938","4327716.0"
"1573037702988","4330940.0"
"1573037703043","4366370.0"
"1573037703095","4389632.0"
"1573037703139","4343580.0"
"1573037703189","4387435.0"
"1573037703232","4392450.0"
"1573037703286","4407066.0"
"1573037703328","4419529.0"
"1573037703378","4412017.0"
"1573037703429","4403665.0"
"1573037703482","4383244.0"
"1573037703529","4406566.0"
"1573037703578","4388445.0"
"1573037703630","4402082.0"
"1573037703676","4411070.0"
"1573037703727","4428755.0"
"1573037703771","4449436.0"
"1573037703824","4436827.0"
"1573037703873","4434976.0"
"1573037703918","4436983.0"
"1573037703970","4455948.0"
"1573037704013","4467204.0"
"1573037704070","4481017.0"
"1573037704112","4494831.0"
"1573037704163","4506764.0"
"1573037704217","4503186.0"
"1573037704258","4481414.0"
"1573037704314","4483858.0"
"1573037704356","4445368.0"
"1573037704413","4385751.0"
"1573037704455","4355947.0"
"1573037704509","4358038.0"
"1573037704551","4356167.0"
"1573037704607","4364218.0"
"1573037704651","4388445.0"
"1573037704706","4443089.0"
"1573037704753","4481475.0"
"1573037704795","4499815.0"
"1573037704852","4496351.0"
"1573037704892","4510102.0"
"1573037704943","4512172.0"
"1573037704991","4538325.0"
"1573037705037","4546180.0"
"1573037705097","4554179.0"
"1573037705138","4555239.0"
"1573037705191","4506971.0"
"1573037705237","4419819.0"
"1573037705290","4362386.0"
"1573037705332","4342716.0"
"1573037705382","4336495.0"
"1573037705431","4345732.0"
"1573037705486","4381974.0"
"1573037705533","4408783.0"
"1573037705583","4381309.0"
"1573037705629","4356134.0"
"1573037705679","4346595.0"
"1573037705731","4300273.0"
"1573037705777","4268503.0"
"1573037705828","4274423.0"
"1573037705869","4285606.0"
"1573037705926","4309219.0"
"1573037705972","4285159.0"
"1573037706022","4275193.0"
"1573037706066","4233884.0"
"1573037706120","4217293.0"
"1573037706172","4165800.0"
"1573037706212","4127238.0"
"1573037706268","4150810.0"
"1573037706313","4230389.0"
"1573037706365","4308731.0"
"1573037706418","4333655.0"
"1573037706454","4349592.0"
"1573037706505","4351912.0"
"1573037706552","4356603.0"
"1573037706601","4390952.0"
"1573037706652","4358568.0"
"1573037706702","4289621.0"
"1573037706753","4241052.0"
"1573037706826","4208887.0"
"1573037706873","4188706.0"
"1573037706947","4198381.0"
"1573037706947","4202105.0"
"1573037707006","4219800.0"
"1573037707043","4228079.0"
"1573037707090","4317001.0"
"1573037707140","4393283.0"
"1573037707190","4414338.0"
"1573037707236","4436920.0"
"1573037707288","4475962.0"
"1573037707335","4499555.0"
"1573037707386","4519403.0"
"1573037707432","4504027.0"
"1573037707480","4504736.0"
"1573037707532","4487062.0"
"1573037707579","4391348.0"
"1573037707632","4283089.0"
"1573037707677","4219394.0"
"1573037707725","4199826.0"
"1573037707775","4194688.0"
"1573037707826","4241696.0"
"1573037707872","4225531.0"
"1573037707922","4221807.0"
"1573037707971","4256739.0"
"1573037708019","4274236.0"
"1573037708070","4276388.0"
"1573037708117","4239034.0"
"1573037708167","4242425.0"
"1573037708214","4241666.0"
"1573037708267","4244266.0"
"1573037708313","4239648.0"
"1573037708362","4195624.0"
"1573037708413","4177450.0"
"1573037708458","4170918.0"
"1573037708510","4171418.0"
"1573037708557","4147366.0"
"1573037708607","4123483.0"
"1573037708654","4138628.0"
"1573037708702","4140324.0"
"1573037708754","4134249.0"
"1573037708802","4144579.0"
"1573037708853","4174289.0"
"1573037708898","4201532.0"
"1573037708947","4214316.0"
"1573037708997","4238025.0"
"1573037709046","4228933.0"
"1573037709094","4194584.0"
"1573037709145","4152880.0"
"1573037709194","4102948.0"
"1573037709245","4080239.0"
"1573037709298","4081196.0"
"1573037709343","4082287.0"
"1573037709389","4105912.0"
"1573037709435","4115181.0"
"1573037709490","4082110.0"
"1573037709539","4040147.0"
"1573037709589","3992858.0"
"1573037709633","4001657.0"
"1573037709680","4001637.0"
"1573037709736","4060391.0"
"1573037709783","4076005.0"
"1573037709827","4099888.0"
"1573037709874","4126041.0"
"1573037709925","4128965.0"
"1573037709979","4110167.0"
"1573037710022","4055771.0"
"1573037710078","4028123.0"
"1573037710119","4029921.0"
"1573037710169","4042717.0"
"1573037710218","4094720.0"
"1573037710272","4166788.0"
"1573037710315","4215773.0"
"1573037710370","4259173.0"
"1573037710415","4286283.0"
"1573037710468","4311903.0"
"1573037710520","4329640.0"
"1573037710565","4324480.0"
"1573037710614","4315044.0"
"1573037710656","4392825.0"
"1573037710713","4421743.0"
"1573037710761","4417208.0"
"1573037710810","4392472.0"
"1573037710859","4389225.0"
"1573037710902","4392732.0"
"1573037710954","4389745.0"
"1573037711000","4421743.0"
"1573037711058","4464186.0"
"1573037711098","4478281.0"
"1573037711147","4502926.0"
"1573037711200","4493281.0"
"1573037711251","4501625.0"
"1573037711300","4501656.0"
"1573037711348","4529690.0"
"1573037711391","4534903.0"
"1573037711440","4584220.0"
"1573037711488","4586644.0"
"1573037711536","4528473.0"
"1573037711589","4467525.0"
"1573037711635","4428005.0"
"1573037711686","4418903.0"
"1573037711736","4418935.0"
"1573037711781","4438950.0"
"1573037711830","4479737.0"
"1573037711880","4500835.0"
"1573037711930","4488716.0"
"1573037711983","4477937.0"
"1573037712033","4477563.0"
"1573037712076","4478033.0"
"1573037712126","4490963.0"
"1573037712177","4478073.0"
"1573037712230","4495404.0"
"1573037712278","4500012.0"
"1573037712321","4472925.0"
"1573037712369","4420360.0"
"1573037712424","4335632.0"
"1573037712473","4291567.0"
"1573037712517","4277617.0"
"1573037712570","4307742.0"
"1573037712619","4386301.0"
"1573037712667","4440051.0"
"1573037712714","4486509.0"
"1573037712762","4492117.0"
"1573037712810","4503143.0"
"1573037712857","4505037.0"
"1573037712913","4513078.0"
"1573037712958","4511662.0"
"1573037713011","4516603.0"
"1573037713060","4561440.0"
"1573037713102","4545743.0"
"1573037713153","4530316.0"
"1573037713206","4498348.0"
"1573037713255","4490433.0"
"1573037713299","4504183.0"
"1573037713347","4510675.0"
"1573037713398","4604361.0"
"1573037713454","4642944.0"
"1573037713504","4697984.0"
"1573037713545","4707126.0"
"1573037713592","4711027.0"
"1573037713644","4710196.0"
"1573037713695","4713744.0"
"1573037713739","4710674.0"
"1573037713793","4705306.0"
"1573037713837","4705493.0"
"1573037713891","4662771.0"
"1573037713941","4652546.0"
"1573037713989","4629544.0"
"1573037714037","4627714.0"
"1573037714080","4641414.0"
"1573037714136","4647188.0"
"1573037714184","4660014.0"
"1573037714234","4690232.0"
"1573037714281","4717175.0"
"1573037714324","4724583.0"
"1573037714374","4732895.0"
"1573037714429","4725424.0"
"1573037714477","4723157.0"
"1573037714521","4722169.0"
"1573037714569","4722366.0"
"1573037714625","4734226.0"
"1573037714668","4689536.0"
"1573037714722","4650412.0"
"1573037714765","4610342.0"
"1573037714814","4578178.0"
"1573037714869","4544587.0"
"1573037714917","4533894.0"
"1573037714960","4556489.0"
"1573037715014","4598139.0"
"1573037715060","4589121.0"
"1573037715113","4590421.0"
"1573037715156","4594862.0"
"1573037715209","4606378.0"
"1573037715257","4595829.0"
"1573037715302","4549207.0"
"1573037715354","4509094.0"
"1573037715402","4516096.0"
"1573037715454","4467287.0"
"1573037715503","4443308.0"
"1573037715546","4412984.0"
"1573037715595","4395050.0"
"1573037715646","4367297.0"
"1573037715697","4322909.0"
"1573037715743","4287447.0"
"1573037715792","4248561.0"
"1573037715844","4216669.0"
"1573037715894","4181851.0"
"1573037715944","4154014.0"
"1573037715991","4153795.0"
"1573037716034","4165248.0"
"1573037716090","4164894.0"
"1573037716133","4158839.0"
"1573037716183","4180374.0"
"1573037716229","4134363.0"
"1573037716278","4089632.0"
"1573037716334","4056624.0"
"1573037716380","4045204.0"
"1573037716431","4041988.0"
"1573037716475","4026697.0"
"1573037716525","4021266.0"
"1573037716585","4010999.0"
"1573037716628","4005154.0"
"1573037716670","4019395.0"
"1573037716720","4043778.0"
"1573037716767","4057851.0"
"1573037716821","4059558.0"
"1573037716866","4044350.0"
"1573037716915","4024919.0"
"1573037716964","4040647.0"
"1573037717012","4042197.0"
"1573037717062","4033021.0"
"1573037717111","4029214.0"
"1573037717163","4038670.0"
"1573037717208","3999057.0"
"1573037717257","3986273.0"
"1573037717308","4013350.0"
"1573037717355","4055480.0"
"1573037717406","4103592.0"
"1573037717453","4134373.0"
"1573037717504","4159599.0"
"1573037717551","4180874.0"
"1573037717604","4197518.0"
"1573037717649","4177003.0"
"1573037717697","4151714.0"
"1573037717747","4117168.0"
"1573037717795","4055854.0"
"1573037717846","4034352.0"
"1573037717893","4028403.0"
"1573037717941","4023233.0"
"1573037717988","4023056.0"
"1573037718042","4043767.0"
"1573037718089","4061035.0"
"1573037718137","4030431.0"
"1573037718187","3973873.0"
"1573037718234","3951268.0"
"1573037718286","3942239.0"
"1573037718332","3928299.0"
"1573037718381","3974747.0"
"1573037718431","3994428.0"
"1573037718480","4003447.0"
"1573037718528","4018625.0"
"1573037718577","3962764.0"
"1573037718626","3895438.0"
"1573037718672","3848397.0"
"1573037718727","3841084.0"
"1573037718777","3846410.0"
"1573037718827","3877764.0"
"1573037718875","3937245.0"
"1573037718927","3953225.0"
"1573037718973","3962327.0"
"1573037719021","3977191.0"
"1573037719065","3990568.0"
"1573037719119","3964531.0"
"1573037719167","3941583.0"
"1573037719217","3940949.0"
"1573037719268","3939128.0"
"1573037719315","3944382.0"
"1573037719365","3930983.0"
"1573037719414","3926188.0"
"1573037719463","3921954.0"
"1573037719512","3934478.0"
"1573037719559","3906984.0"
"1573037719612","3893971.0"
"1573037719654","3905787.0"
"1573037719708","3924679.0"
"1573037719756","3954639.0"
"1573037719809","3973467.0"
"1573037719854","3990974.0"
"1573037719905","4009126.0"
"1573037719948","4027674.0"
"1573037720000","4018645.0"
"1573037720048","3972240.0"
"1573037720098","3947877.0"
"1573037720145","3930764.0"
"1573037720196","3920788.0"
"1573037720245","3914286.0"
"1573037720293","3917470.0"
"1573037720343","3925398.0"
"1573037720392","3997767.0"
"1573037720440","4098058.0"
"1573037720487","4124793.0"
"1573037720538","4121193.0"
"1573037720587","4109470.0"
"1573037720636","4092732.0"
"1573037720685","4092170.0"
"1573037720735","4091733.0"
"1573037720783","4080406.0"
"1573037720831","4075339.0"
"1573037720881","4071365.0"
"1573037720926","4040990.0"
"1573037720978","4004695.0"
"1573037721025","3968516.0"
"1573037721075","3958320.0"
"1573037721119","3957707.0"
"1573037721174","3971116.0"
"1573037721223","4004551.0"
"1573037721270","4006974.0"
"1573037721319","4005611.0"
"1573037721368","4012143.0"
"1573037721417","4019321.0"
"1573037721466","3991525.0"
"1573037721515","3981488.0"
"1573037721558","3978012.0"
"1573037721609","3979938.0"
"1573037721658","3977711.0"
"1573037721710","3963064.0"
"1573037721759","3961047.0"
"1573037721812","3952069.0"
"1573037721857","3953099.0"
"1573037721906","3926499.0"
"1573037721950","3944766.0"
"1573037722003","3964094.0"
"1573037722052","3999630.0"
"1573037722102","4044777.0"
"1573037722149","4075329.0"
"1573037722199","4096520.0"
"1573037722250","4111581.0"
"1573037722298","4123908.0"
"1573037722348","4104196.0"
"1573037722394","4053182.0"
"1573037722444","4034291.0"
"1573037722492","4007588.0"
"1573037722541","4006245.0"
"1573037722588","4005538.0"
"1573037722638","4033365.0"
"1573037722682","4074965.0"
"1573037722730","4137494.0"
"1573037722782","4166018.0"
"1573037722829","4209064.0"
"1573037722879","4194834.0"
"1573037722930","4190266.0"
"1573037722981","4186729.0"
"1573037723033","4190589.0"
"1573037723073","4191193.0"
"1573037723128","4190984.0"
"1573037723176","4187656.0"
"1573037723225","4172176.0"
"1573037723269","4140355.0"
"1573037723323","4096623.0"
"1573037723373","4048729.0"
"1573037723421","4036319.0"
"1573037723474","4042686.0"
"1573037723518","4062888.0"
"1573037723568","4054440.0"
"1573037723616","4082807.0"
"1573037723667","4110230.0"
"1573037723711","4115232.0"
"1573037723764","4114328.0"
"1573037723811","4084534.0"
"1573037723862","4060952.0"
"1573037723914","4047835.0"
"1573037723957","4040470.0"
"1573037724008","4046971.0"
"1573037724057","3998423.0"
"1573037724099","3965488.0"
"1573037724151","3949677.0"
"1573037724199","3956179.0"
"1573037724250","3953432.0"
"1573037724296","3951382.0"
"1573037724354","3928996.0"
"1573037724400","3947148.0"
"1573037724450","3957707.0"
"1573037724496","3974278.0"
"1573037724546","3994689.0"
"1573037724590","4003697.0"
"1573037724644","4015087.0"
"1573037724692","4001773.0"
"1573037724741","3952849.0"
"1573037724791","3925418.0"
"1573037724839","3894438.0"
"1573037724890","3891360.0"
"1573037724937","3901179.0"
"1573037724987","3908805.0"
"1573037725030","3929849.0"
"1573037725085","3944423.0"
"1573037725134","3983589.0"
"1573037725181","3986230.0"
"1573037725227","3945671.0"
"1573037725279","3933137.0"
"1573037725329","3924878.0"
"1573037725372","3939441.0"
"1573037725426","3950331.0"
"1573037725468","3965738.0"
"1573037725524","3979075.0"
"1573037725575","3994502.0"
"1573037725621","3989445.0"
"1573037725670","3957916.0"
"1573037725719","3932584.0"
"1573037725768","3928882.0"
"1573037725817","3931150.0"
"1573037725865","3970793.0"
"1573037725914","4006371.0"
"1573037725961","4037953.0"
"1573037726010","4044871.0"
"1573037726060","4054930.0"
"1573037726110","4052713.0"
"1573037726154","4051195.0"
"1573037726208","4056657.0"
"1573037726255","4053577.0"
"1573037726307","4040783.0"
"1573037726356","4058101.0"
"1573037726403","4067403.0"
"1573037726457","4058487.0"
"1573037726501","4048199.0"
"1573037726552","4053526.0"
"1573037726598","4059454.0"
"1573037726644","4047928.0"
"1573037726690","4056750.0"
"1573037726746","4117252.0"
"1573037726793","4158685.0"
"1573037726843","4148282.0"
"1573037726892","4160390.0"
"1573037726941","4168838.0"
"1573037726990","4181757.0"
"1573037727034","4190110.0"
"1573037727091","4196778.0"
"1573037727131","4161243.0"
"1573037727186","4157425.0"
"1573037727231","4118353.0"
"1573037727283","4106650.0"
"1573037727328","4101762.0"
"1573037727376","4110208.0"
"1573037727430","4120433.0"
"1573037727479","4141592.0"
"1573037727527","4175006.0"
"1573037727574","4187103.0"
"1573037727625","4183545.0"
"1573037727675","4183598.0"
"1573037727723","4195084.0"
"1573037727773","4198859.0"
"1573037727815","4201656.0"
"1573037727865","4210312.0"
"1573037727913","4182558.0"
"1573037727963","4218987.0"
"1573037728012","4191930.0"
"1573037728059","4152267.0"
"1573037728107","4124137.0"
"1573037728157","4114411.0"
"1573037728207","4122951.0"
"1573037728255","4135976.0"
"1573037728305","4158403.0"
"1573037728355","4195354.0"
"1573037728402","4211799.0"
"1573037728454","4222077.0"
"1573037728499","4231460.0"
"1573037728548","4217896.0"
"1573037728597","4205204.0"
"1573037728646","4217073.0"
"1573037728694","4221931.0"
"1573037728749","4229713.0"
"1573037728799","4208231.0"
"1573037728844","4212165.0"
"1573037728894","4223431.0"
"1573037728943","4227269.0"
"1573037728993","4229369.0"
"1573037729040","4220757.0"
"1573037729091","4239282.0"
"1573037729133","4299180.0"
"1573037729185","4314337.0"
"1573037729233","4316334.0"
"1573037729282","4315461.0"
"1573037729331","4298589.0"
"1573037729378","4319488.0"
"1573037729433","4336369.0"
"1573037729482","4340343.0"
"1573037729532","4295988.0"
"1573037729573","4330658.0"
"1573037729628","4304830.0"
"1573037729679","4308398.0"
"1573037729726","4301657.0"
"1573037729774","4298203.0"
"1573037729824","4306171.0"
"1573037729872","4318187.0"
"1573037729922","4357768.0"
"1573037729971","4394323.0"
"1573037730013","4410300.0"
"1573037730071","4412611.0"
"1573037730118","4409906.0"
"1573037730163","4415045.0"
"1573037730215","4426331.0"
"1573037730261","4453668.0"
"1573037730313","4461129.0"
"1573037730355","4524749.0"
"1573037730413","4507534.0"
"1573037730460","4486749.0"
"1573037730507","4445763.0"
"1573037730556","4425614.0"
"1573037730604","4403342.0"
"1573037730650","4407129.0"
"1573037730698","4406930.0"
"1573037730751","4442975.0"
"1573037730795","4460993.0"
"1573037730851","4468004.0"
"1573037730901","4473226.0"
"1573037730946","4462782.0"
"1573037730994","4474599.0"
"1573037731044","4490193.0"
"1573037731094","4494841.0"
"1573037731137","4516096.0"
"1573037731191","4518987.0"
"1573037731237","4499949.0"
"1573037731293","4479780.0"
"1573037731339","4458205.0"
"1573037731380","4443475.0"
"1573037731435","4428714.0"
"1573037731484","4421160.0"
"1573037731533","4433582.0"
"1573037731577","4451090.0"
"1573037731631","4477803.0"
"1573037731680","4493978.0"
"1573037731727","4496975.0"
"1573037731776","4497381.0"
"1573037731820","4510978.0"
"1573037731874","4508604.0"
"1573037731923","4510758.0"
"1573037731972","4532030.0"
"1573037732016","4525031.0"
"1573037732070","4531646.0"
"1573037732120","4515386.0"
"1573037732161","4516563.0"
"1573037732216","4507014.0"
"1573037732259","4506130.0"
"1573037732314","4500419.0"
"1573037732357","4497058.0"
"1573037732412","4486312.0"
"1573037732463","4502727.0"
"1573037732509","4521951.0"
"1573037732558","4531002.0"
"1573037732607","4536931.0"
"1573037732651","4507034.0"
"1573037732704","4509958.0"
"1573037732753","4517416.0"
"1573037732798","4543579.0"
"1573037732852","4543453.0"
"1573037732903","4535641.0"
"1573037732949","4512725.0"
"1573037732997","4494437.0"
"1573037733046","4483254.0"
"1573037733095","4482818.0"
"1573037733140","4482795.0"
"1573037733193","4498494.0"
"1573037733240","4532364.0"
"1573037733290","4578625.0"
"1573037733340","4599897.0"
"1573037733389","4618384.0"
"1573037733436","4629764.0"
"1573037733487","4638439.0"
"1573037733534","4643630.0"
"1573037733580","4642891.0"
"1573037733633","4641694.0"
"1573037733683","4657091.0"
"1573037733731","4665049.0"
"1573037733778","4660315.0"
"1573037733829","4628307.0"
"1573037733876","4608459.0"
"1573037733926","4577834.0"
"1573037733975","4578925.0"
"1573037734018","4596089.0"
"1573037734071","4643557.0"
"1573037734122","4662135.0"
"1573037734164","4649195.0"
"1573037734218","4650922.0"
"1573037734268","4640010.0"
"1573037734316","4634892.0"
"1573037734358","4611829.0"
"1573037734409","4581412.0"
"1573037734460","4608615.0"
"1573037734508","4601614.0"
"1573037734556","4604661.0"
"1573037734605","4592512.0"
"1573037734653","4585760.0"
"1573037734707","4584210.0"
"1573037734755","4576731.0"
"1573037734798","4579622.0"
"1573037734847","4598233.0"
"1573037734900","4608355.0"
"1573037734945","4594395.0"
"1573037734993","4596776.0"
"1573037735049","4597422.0"
"1573037735098","4600366.0"
"1573037735140","4604391.0"
"1573037735196","4604411.0"
"1573037735240","4615180.0"
"1573037735294","4614046.0"
"1573037735342","4582796.0"
"1573037735391","4559463.0"
"1573037735439","4546647.0"
"1573037735490","4544763.0"
"1573037735537","4543036.0"
"1573037735582","4545920.0"
"1573037735636","4554313.0"
"1573037735682","4583159.0"
"1573037735733","4593875.0"
"1573037735781","4593365.0"
"1573037735831","4588984.0"
"1573037735879","4586790.0"
"1573037735930","4588757.0"
"1573037735976","4582983.0"
"1573037736024","4591638.0"
"1573037736075","4619111.0"
"1573037736124","4599606.0"
"1573037736167","4572310.0"
"1573037736221","4528952.0"
"1573037736270","4513629.0"
"1573037736318","4509947.0"
"1573037736367","4508418.0"
"1573037736416","4538305.0"
"1573037736464","4573870.0"
"1573037736514","4582058.0"
"1573037736567","4586613.0"
"1573037736612","4590941.0"
"1573037736656","4595758.0"
"1573037736710","4592865.0"
"1573037736758","4570603.0"
"1573037736801","4563748.0"
"1573037736850","4566121.0"
"1573037736906","4556643.0"
"1573037736953","4531313.0"
"1573037737003","4504403.0"
"1573037737052","4501719.0"
"1573037737100","4493021.0"
"1573037737146","4477064.0"
"1573037737198","4458402.0"
"1573037737241","4441061.0"
"1573037737296","4444411.0"
"1573037737348","4448562.0"
"1573037737393","4444909.0"
"1573037737441","4449956.0"
"1573037737491","4451506.0"
"1573037737538","4451340.0"
"1573037737591","4463437.0"
"1573037737637","4425510.0"
"1573037737683","4353379.0"
"1573037737734","4290474.0"
"1573037737784","4246117.0"
"1573037737834","4235954.0"
"1573037737880","4258050.0"
"1573037737925","4264758.0"
"1573037737975","4257393.0"
"1573037738025","4287250.0"
"1573037738070","4314327.0"
"1573037738122","4289924.0"
"1573037738169","4278438.0"
"1573037738220","4277357.0"
"1573037738266","4275088.0"
"1573037738322","4279936.0"
"1573037738370","4278501.0"
"1573037738418","4266652.0"
"1573037738462","4278905.0"
"1573037738516","4253348.0"
"1573037738567","4234873.0"
"1573037738615","4179604.0"
"1573037738660","4159246.0"
"1573037738713","4172082.0"
"1573037738761","4204716.0"
"1573037738812","4267662.0"
"1573037738859","4315347.0"
"1573037738908","4347719.0"
"1573037738956","4357674.0"
"1573037739005","4373995.0"
"1573037739054","4373871.0"
"1573037739103","4356603.0"
"1573037739145","4327881.0"
"1573037739200","4268816.0"
"1573037739247","4230763.0"
"1573037739298","4187333.0"
"1573037739349","4164666.0"
"1573037739395","4139501.0"
"1573037739445","4157635.0"
"1573037739490","4155595.0"
"1573037739538","4122880.0"
"1573037739589","4079272.0"
"1573037739636","4072957.0"
"1573037739686","4062346.0"
"1573037739736","4070284.0"
"1573037739790","4077565.0"
"1573037739835","4081883.0"
"1573037739883","4081643.0"
"1573037739933","4099161.0"
"1573037739980","4086511.0"
"1573037740025","4023940.0"
"1573037740079","3946888.0"
"1573037740126","3910645.0"
"1573037740176","3904581.0"
"1573037740226","3936528.0"
"1573037740275","3956699.0"
"1573037740323","3994095.0"
"1573037740368","4034165.0"
"1573037740420","4040167.0"
"1573037740469","4039669.0"
"1573037740518","4011780.0"
"1573037740569","3994668.0"
"1573037740616","3992015.0"
"1573037740662","3999286.0"
"1573037740714","4011467.0"
"1573037740762","4007598.0"
"1573037740812","4012363.0"
"1573037740860","3976734.0"
"1573037740909","3954805.0"
"1573037740957","3917429.0"
"1573037741008","3886502.0"
"1573037741056","3869732.0"
"1573037741104","3892784.0"
"1573037741147","3925822.0"
"1573037741202","3984400.0"
"1573037741249","4029401.0"
"1573037741292","4052807.0"
"1573037741349","4079427.0"
"1573037741397","4096227.0"
"1573037741446","4104706.0"
"1573037741496","4073175.0"
"1573037741543","4033375.0"
"1573037741589","4030441.0"
"1573037741641","4012653.0"
"1573037741689","4001097.0"
"1573037741739","3988603.0"
"1573037741795","3998963.0"
"1573037741835","4016961.0"
"1573037741886","4029547.0"
"1573037741933","4040626.0"
"1573037741982","4041157.0"
"1573037742031","4042426.0"
"1573037742080","4052599.0"
"1573037742129","4070761.0"
"1573037742171","4087458.0"
"1573037742225","4103426.0"
"1573037742275","4115078.0"
"1573037742325","4119612.0"
"1573037742368","4110104.0"
"1573037742423","4050570.0"
"1573037742476","3990568.0"
"1573037742519","3947554.0"
"1573037742574","3951445.0"
"1573037742618","3966559.0"
"1573037742667","3991151.0"
"1573037742715","4028580.0"
"1573037742764","4075849.0"
"1573037742809","4108243.0"
"1573037742862","4122077.0"
"1573037742913","4121433.0"
"1573037742959","4106922.0"
"1573037743009","4090235.0"
"1573037743056","4082070.0"
"1573037743108","4090829.0"
"1573037743150","4122223.0"
"1573037743204","4091505.0"
"1573037743254","4080572.0"
"1573037743301","4069627.0"
"1573037743354","4084461.0"
"1573037743399","4067963.0"
"1573037743449","4053327.0"
"1573037743491","4071844.0"
"1573037743546","4114651.0"
"1573037743588","4133946.0"
"1573037743644","4149020.0"
"1573037743694","4153171.0"
"1573037743741","4163116.0"
"1573037743789","4177056.0"
"1573037743838","4183558.0"
"1573037743882","4155908.0"
"1573037743930","4122900.0"
"1573037743979","4117252.0"
"1573037744029","4089685.0"
"1573037744078","4069617.0"
"1573037744130","4070678.0"
"1573037744180","4099244.0"
"1573037744230","4130929.0"
"1573037744278","4143331.0"
"1573037744326","4193064.0"
"1573037744370","4219414.0"
"1573037744424","4236204.0"
"1573037744473","4244307.0"
"1573037744518","4263448.0"
"1573037744570","4276837.0"
"1573037744615","4292878.0"
"1573037744665","4268338.0"
"1573037744710","4202760.0"
"1573037744766","4240666.0"
"1573037744810","4224835.0"
"1573037744863","4163013.0"
"1573037744916","4117085.0"
"1573037744960","4110551.0"
"1573037745011","4107619.0"
"1573037745058","4121526.0"
"1573037745109","4143695.0"
"1573037745152","4194043.0"
"1573037745204","4255439.0"
"1573037745253","4291504.0"
"1573037745303","4308366.0"
"1573037745356","4331617.0"
"1573037745401","4337670.0"
"1573037745451","4333935.0"
"1573037745493","4312330.0"
"1573037745550","4298817.0"
"1573037745592","4301834.0"
"1573037745644","4280799.0"
"1573037745693","4264104.0"
"1573037745743","4262501.0"
"1573037745797","4246773.0"
"1573037745841","4206640.0"
"1573037745890","4202686.0"
"1573037745939","4224845.0"
"1573037745990","4267558.0"
"1573037746037","4291275.0"
"1573037746088","4316481.0"
"1573037746137","4328350.0"
"1573037746182","4340043.0"
"1573037746233","4347302.0"
"1573037746281","4296799.0"
"1573037746331","4241676.0"
"1573037746374","4249738.0"
"1573037746427","4249541.0"
"1573037746471","4237025.0"
"1573037746525","4259380.0"
"1573037746576","4268265.0"
"1573037746622","4282766.0"
"1573037746667","4312506.0"
"1573037746716","4367713.0"
"1573037746766","4378292.0"
"1573037746812","4342081.0"
"1573037746868","4331710.0"
"1573037746914","4315503.0"
"1573037746959","4324012.0"
"1573037747015","4333635.0"
"1573037747062","4332438.0"
"1573037747112","4329411.0"
"1573037747155","4330317.0"
"1573037747203","4273080.0"
"1573037747251","4220714.0"
"1573037747308","4191244.0"
"1573037747358","4198318.0"
"1573037747403","4197465.0"
"1573037747453","4209854.0"
"1573037747502","4237702.0"
"1573037747550","4295145.0"
"1573037747597","4294135.0"
"1573037747646","4285730.0"
"1573037747696","4274911.0"
"1573037747745","4239408.0"
"1573037747798","4211342.0"
"1573037747843","4182932.0"
"1573037747893","4141478.0"
"1573037747941","4191223.0"
"1573037747983","4162127.0"
"1573037748034","4154691.0"
"1573037748082","4136517.0"
"1573037748133","4141675.0"
"1573037748179","4109013.0"
"1573037748230","4097017.0"
"1573037748278","4071293.0"
"1573037748332","4150727.0"
"1573037748376","4188206.0"
"1573037748430","4203196.0"
"1573037748475","4215513.0"
"1573037748527","4225802.0"
"1573037748579","4228215.0"
"1573037748624","4213589.0"
"1573037748674","4152504.0"
"1573037748718","4131118.0"
"1573037748767","4079126.0"
"1573037748816","4059142.0"
"1573037748865","4058644.0"
"1573037748912","4082913.0"
"1573037748963","4093836.0"
"1573037749014","4115431.0"
"1573037749060","4155034.0"
"1573037749110","4126852.0"
"1573037749157","4093210.0"
"1573037749206","4066799.0"
"1573037749257","4058394.0"
"1573037749305","4073882.0"
"1573037749355","4077732.0"
"1573037749402","4094720.0"
"1573037749451","4087665.0"
"1573037749499","4078126.0"
"1573037749546","3992515.0"
"1573037749598","3902573.0"
"1573037749647","3860506.0"
"1573037749698","3858643.0"
"1573037749743","3889383.0"
"1573037749801","3971896.0"
"1573037749845","4025656.0"
"1573037749894","4064449.0"
"1573037749944","4093919.0"
"1573037749993","4107223.0"
"1573037750041","4102312.0"
"1573037750094","4087854.0"
"1573037750137","4053337.0"
"1573037750190","4028027.0"
"1573037750238","4107910.0"
"1573037750285","4137744.0"
"1573037750334","4126134.0"
"1573037750378","4086137.0"
"1573037750432","4059392.0"
"1573037750480","4046982.0"
"1573037750531","4018781.0"
"1573037750581","4002157.0"
"1573037750626","4016160.0"
"1573037750675","4044651.0"
"1573037750725","4047211.0"
"1573037750774","4043028.0"
"1573037750821","4041457.0"
"1573037750872","4045442.0"
"1573037750914","4082891.0"
"1573037750970","4108450.0"
"1573037751020","4095053.0"
"1573037751068","4025750.0"
"1573037751116","3954015.0"
"1573037751163","3915952.0"
"1573037751209","3880551.0"
"1573037751261","3883704.0"
"1573037751313","3897268.0"
"1573037751360","3973800.0"
"1573037751408","4100658.0"
"1573037751461","4197298.0"
"1573037751508","4191764.0"
"1573037751555","4152578.0"
"1573037751605","4114828.0"
"1573037751649","4099078.0"
"1573037751698","4088175.0"
"1573037751753","4095457.0"
"1573037751803","4142362.0"
"1573037751848","4117199.0"
"1573037751897","4045557.0"
"1573037751946","3965291.0"
"1573037751995","3888540.0"
"1573037752044","3853911.0"
"1573037752094","3848200.0"
"1573037752136","3882445.0"
"1573037752190","3890974.0"
"1573037752240","3895635.0"
"1573037752290","3904321.0"
"1573037752337","3920601.0"
"1573037752380","3945963.0"
"1573037752434","3954285.0"
"1573037752483","3915836.0"
"1573037752533","3926365.0"
"1573037752579","4003498.0"
"1573037752632","4009209.0"
"1573037752683","3986950.0"
"1573037752729","3977597.0"
"1573037752777","3968629.0"
"1573037752826","3984390.0"
"1573037752874","3998006.0"
"1573037752921","4014890.0"
"1573037752968","4079209.0"
"1573037753021","4111894.0"
"1573037753070","4110084.0"
"1573037753120","4092982.0"
"1573037753169","4095250.0"
"1573037753212","4104549.0"
"1573037753266","4120809.0"
"1573037753315","4109553.0"
"1573037753358","4102761.0"
"1573037753413","4078149.0"
"1573037753464","4015524.0"
"1573037753510","4013153.0"
"1573037753554","4020996.0"
"1573037753608","4062108.0"
"1573037753652","4102365.0"
"1573037753706","4195968.0"
"1573037753754","4294052.0"
"1573037753800","4402614.0"
"1573037753853","4449497.0"
"1573037753904","4494978.0"
"1573037753949","4510457.0"
"1573037753997","4511861.0"
"1573037754048","4530336.0"
"1573037754098","4562104.0"
"1573037754139","4606585.0"
"1573037754190","4670811.0"
"1573037754239","4641424.0"
"1573037754287","4624552.0"
"1573037754337","4612496.0"
"1573037754386","4609032.0"
"1573037754434","4616791.0"
"1573037754487","4633665.0"
"1573037754535","4702852.0"
"1573037754580","4733425.0"
"1573037754634","4771872.0"
"1573037754685","4781131.0"
"1573037754732","4789203.0"
"1573037754779","4800095.0"
"1573037754830","4812005.0"
"1573037754877","4807354.0"
"1573037754928","4813972.0"
"1573037754975","4841632.0"
"1573037755021","4861001.0"
"1573037755073","4850608.0"
"1573037755124","4834818.0"
"1573037755171","4804589.0"
"1573037755214","4795091.0"
"1573037755271","4796350.0"
"1573037755317","4799355.0"
"1573037755364","4810684.0"
"1573037755415","4839105.0"
"1573037755460","4887830.0"
"1573037755514","4892875.0"
"1573037755561","4891211.0"
"1573037755606","4904838.0"
"1573037755655","4914147.0"
"1573037755710","4918351.0"
"1573037755757","4923073.0"
"1573037755800","4950786.0"
"1573037755855","4960761.0"
"1573037755908","4936679.0"
"1573037755953","4913743.0"
"1573037756000","4910309.0"
"1573037756050","4909175.0"
"1573037756100","4908665.0"
"1573037756146","4954053.0"
"1573037756196","5079444.0"
"1573037756245","5220055.0"
"1573037756295","5261344.0"
"1573037756348","5292716.0"
"1573037756391","5318995.0"
"1573037756441","5322209.0"
"1573037756490","5314531.0"
"1573037756537","5337687.0"
"1573037756587","5358659.0"
"1573037756636","5366243.0"
"1573037756688","5366347.0"
"1573037756727","5339477.0"
"1573037756783","5322406.0"
"1573037756833","5318182.0"
"1573037756880","5327471.0"
"1573037756930","5399779.0"
"1573037756978","5482595.0"
"1573037757030","5556983.0"
"1573037757076","5623913.0"
"1573037757124","5675125.0"
"1573037757173","5673908.0"
"1573037757218","5651896.0"
"1573037757272","5636417.0"
"1573037757321","5634939.0"
"1573037757366","5642491.0"
"1573037757418","5649649.0"
"1573037757461","5642701.0"
"1573037757516","5640931.0"
"1573037757566","5621936.0"
"1573037757614","5621176.0"
"1573037757658","5607749.0"
"1573037757712","5602005.0"
"1573037757760","5648016.0"
"1573037757805","5699009.0"
"1573037757857","5729582.0"
"1573037757908","5742336.0"
"1573037757955","5744863.0"
"1573037757999","5737707.0"
"1573037758052","5732120.0"
"1573037758104","5724298.0"
"1573037758147","5716746.0"
"1573037758198","5722997.0"
"1573037758246","5716443.0"
"1573037758296","5706240.0"
"1573037758348","5675022.0"
"1573037758394","5627960.0"
"1573037758445","5606916.0"
"1573037758492","5594443.0"
"1573037758541","5586474.0"
"1573037758585","5574365.0"
"1573037758638","5565015.0"
"1573037758688","5531320.0"
"1573037758736","5507801.0"
"1573037758785","5491427.0"
"1573037758834","5484560.0"
"1573037758882","5472056.0"
"1573037758933","5461343.0"
"1573037758981","5444012.0"
"1573037759027","5453696.0"
"1573037759077","5477227.0"
"1573037759127","5425735.0"
"1573037759175","5339871.0"
"1573037759225","5268073.0"
"1573037759274","5251835.0"
"1573037759323","5256143.0"
"1573037759368","5264765.0"
"1573037759420","5290772.0"
"1573037759468","5358128.0"
"1573037759518","5370351.0"
"1573037759567","5369114.0"
"1573037759610","5359459.0"
"1573037759659","5343418.0"
"1573037759709","5336397.0"
"1573037759758","5326754.0"
"1573037759810","5330478.0"
"1573037759855","5362383.0"
"1573037759909","5364931.0"
"1573037759957","5330708.0"
"1573037760002","5302091.0"
"1573037760051","5278122.0"
"1573037760097","5236429.0"
"1573037760150","5212243.0"
"1573037760202","5208632.0"
"1573037760248","5239852.0"
"1573037760298","5255903.0"
"1573037760352","5253552.0"
"1573037760396","5237729.0"
"1573037760447","5226599.0"
"1573037760494","5221908.0"
"1573037760543","5215000.0"
"1573037760592","5158796.0"
"1573037760639","5126682.0"
"1573037760689","5091427.0"
"1573037760739","5012047.0"
"1573037760789","4961251.0"
"1573037760838","4919588.0"
"1573037760886","4918694.0"
"1573037760930","4904068.0"
"1573037760983","4884356.0"
"1573037761029","4825831.0"
"1573037761081","4788953.0"
"1573037761133","4768637.0"
"1573037761178","4750110.0"
"1573037761228","4753470.0"
"1573037761275","4754417.0"
"1573037761327","4753357.0"
"1573037761371","4748186.0"
"1573037761424","4762542.0"
"1573037761472","4766161.0"
"1573037761521","4656010.0"
"1573037761574","4561720.0"
"1573037761619","4501355.0"
"1573037761669","4473579.0"
"1573037761715","4468421.0"
"1573037761766","4459599.0"
"1573037761809","4491524.0"
"1573037761863","4543910.0"
"1573037761910","4528152.0"
"1573037761962","4502739.0"
"1573037762014","4467004.0"
"1573037762059","4461533.0"
"1573037762110","4460639.0"
"1573037762153","4446126.0"
"1573037762205","4463666.0"
"1573037762248","4488456.0"
"1573037762302","4450643.0"
"1573037762354","4437607.0"
"1573037762401","4427528.0"
"1573037762453","4377366.0"
"1573037762494","4324323.0"
"1573037762543","4316064.0"
"1573037762590","4349976.0"
"1573037762644","4383337.0"
"1573037762689","4401968.0"
"1573037762743","4395956.0"
"1573037762793","4397391.0"
"1573037762841","4391056.0"
"1573037762894","4378615.0"
"1573037762939","4340884.0"
"1573037762982","4357071.0"
"1573037763037","4393593.0"
"1573037763079","4401521.0"
"1573037763128","4388685.0"
"1573037763183","4357290.0"
"1573037763229","4346638.0"
"1573037763280","4345971.0"
"1573037763331","4357363.0"
"1573037763373","4368816.0"
"1573037763428","4380893.0"
"1573037763476","4411444.0"
"1573037763525","4435653.0"
"1573037763568","4452650.0"
"1573037763622","4463894.0"
"1573037763673","4475276.0"
"1573037763720","4473673.0"
"1573037763769","4444535.0"
"1573037763817","4454958.0"
"1573037763868","4466267.0"
"1573037763913","4424230.0"
"1573037763965","4392200.0"
"1573037764013","4364572.0"
"1573037764062","4360151.0"
"1573037764116","4364145.0"
"1573037764155","4385731.0"
"1573037764209","4417249.0"
"1573037764258","4435330.0"
"1573037764307","4442038.0"
"1573037764351","4427871.0"
"1573037764404","4404091.0"
"1573037764455","4395696.0"
"1573037764502","4389079.0"
"1573037764550","4418383.0"
"1573037764599","4430929.0"
"1573037764644","4420996.0"
"1573037764696","4403965.0"
"1573037764746","4388414.0"
"1573037764795","4373455.0"
"1573037764843","4332521.0"
"1573037764896","4302707.0"
"1573037764941","4311726.0"
"1573037764990","4315607.0"
"1573037765031","4329524.0"
"1573037765089","4324656.0"
"1573037765132","4329847.0"
"1573037765186","4328246.0"
"1573037765235","4328827.0"
"1573037765282","4321005.0"
"1573037765331","4281506.0"
"1573037765375","4248437.0"
"1573037765429","4214316.0"
"1573037765478","4163500.0"
"1573037765528","4134903.0"
"1573037765571","4136641.0"
"1573037765620","4143142.0"
"1573037765674","4127664.0"
"1573037765722","4108190.0"
"1573037765772","4056801.0"
"1573037765820","4044672.0"
"1573037765870","4007982.0"
"1573037765918","3997143.0"
"1573037765968","4004435.0"
"1573037766012","4012696.0"
"1573037766064","4015067.0"
"1573037766117","4014474.0"
"1573037766158","4013964.0"
"1573037766211","3967132.0"
"1573037766259","3890110.0"
"1573037766308","3827801.0"
"1573037766351","3820686.0"
"1573037766406","3822837.0"
"1573037766457","3851767.0"
"1573037766504","3871221.0"
"1573037766553","3850760.0"
"1573037766601","3863324.0"
"1573037766647","3856178.0"
"1573037766697","3832669.0"
"1573037766743","3791869.0"
"1573037766799","3773271.0"
"1573037766841","3768090.0"
"1573037766892","3768360.0"
"1573037766939","3793347.0"
"1573037766989","3783745.0"
"1573037767037","3749875.0"
"1573037767086","3728217.0"
"1573037767132","3718064.0"
"1573037767187","3710220.0"
"1573037767233","3669276.0"
"1573037767284","3652725.0"
"1573037767334","3638058.0"
"1573037767378","3638912.0"
"1573037767431","3631297.0"
"1573037767480","3618803.0"
"1573037767529","3631443.0"
"1573037767573","3661255.0"
"1573037767627","3679648.0"
"1573037767677","3661224.0"
"1573037767724","3621601.0"
"1573037767774","3603646.0"
"1573037767822","3560466.0"
"1573037767872","3566967.0"
"1573037767915","3562640.0"
"1573037767968","3572043.0"
"1573037768018","3590706.0"
"1573037768067","3603927.0"
"1573037768121","3658363.0"
"1573037768162","3646547.0"
"1573037768213","3645817.0"
"1573037768261","3633450.0"
"1573037768311","3658073.0"
"1573037768352","3696729.0"
"1573037768409","3706309.0"
"1573037768458","3720456.0"
"1573037768504","3703584.0"
"1573037768554","3736309.0"
"1573037768603","3722662.0"
"1573037768649","3663867.0"
"1573037768696","3631703.0"
"1573037768751","3615849.0"
"1573037768797","3661641.0"
"1573037768849","3738390.0"
"1573037768895","3829735.0"
"1573037768946","3888229.0"
"1573037768993","3945786.0"
"1573037769043","3976192.0"
"1573037769093","4003978.0"
"1573037769136","4035716.0"
"1573037769189","4051102.0"
"1573037769237","4061035.0"
"1573037769286","4046545.0"
"1573037769335","4097497.0"
"1573037769380","4115628.0"
"1573037769433","4106880.0"
"1573037769482","4099057.0"
"1573037769531","4101398.0"
"1573037769574","4122077.0"
"1573037769626","4151818.0"
"1573037769676","4193263.0"
"1573037769723","4270917.0"
"1573037769771","4336849.0"
"1573037769820","4373735.0"
"1573037769870","4394010.0"
"1573037769918","4413515.0"
"1573037769968","4424001.0"
"1573037770015","4435122.0"
"1573037770064","4454991.0"
"1573037770117","4487332.0"
"1573037770162","4514015.0"
"1573037770211","4485989.0"
"1573037770259","4471612.0"
"1573037770308","4465091.0"
"1573037770358","4465664.0"
"1573037770407","4466474.0"
"1573037770458","4494134.0"
"1573037770506","4551452.0"
"1573037770553","4596975.0"
"1573037770605","4611299.0"
"1573037770650","4598087.0"
"1573037770703","4589121.0"
"1573037770752","4585626.0"
"1573037770798","4576107.0"
"1573037770850","4583275.0"
"1573037770903","4610072.0"
"1573037770948","4617717.0"
"1573037770995","4589391.0"
"1573037771045","4558776.0"
"1573037771093","4545523.0"
"1573037771137","4533040.0"
"1573037771192","4541049.0"
"1573037771241","4550517.0"
"1573037771289","4626653.0"
"1573037771337","4695383.0"
"1573037771380","4702665.0"
"1573037771435","4691866.0"
"1573037771485","4696714.0"
"1573037771533","4700667.0"
"1573037771576","4714741.0"
"1573037771630","4772289.0"
"1573037771683","4828359.0"
"1573037771729","4860783.0"
"1573037771771","4872890.0"
"1573037771822","4857849.0"
"1573037771872","4849381.0"
"1573037771920","4858433.0"
"1573037771970","4871529.0"
"1573037772018","4904838.0"
"1573037772066","5038833.0"
"1573037772118","5104430.0"
"1573037772165","5104950.0"
"1573037772213","5101539.0"
"1573037772263","5086622.0"
"1573037772312","5069665.0"
"1573037772365","5059742.0"
"1573037772408","5073785.0"
"1573037772460","5080090.0"
"1573037772512","5071215.0"
"1573037772562","5048569.0"
"1573037772609","5010620.0"
"1573037772653","4988911.0"
"1573037772706","4988858.0"
"1573037772755","4982337.0"
"1573037772798","4970237.0"
"1573037772853","5004629.0"
"1573037772904","5008062.0"
"1573037772950","5017144.0"
"1573037772994","5016332.0"
"1573037773049","5014127.0"
"1573037773096","5010163.0"
"1573037773140","5009820.0"
"1573037773195","5017331.0"
"1573037773238","5020722.0"
"1573037773292","5022699.0"
"1573037773344","4997701.0"
"1573037773390","4928867.0"
"1573037773438","4895672.0"
"1573037773489","4864851.0"
"1573037773536","4865432.0"
"1573037773586","4889524.0"
"1573037773635","4939977.0"
"1573037773680","4948018.0"
"1573037773732","4963529.0"
"1573037773782","4947134.0"
"1573037773830","4944711.0"
"1573037773878","4931311.0"
"1573037773925","4920108.0"
"1573037773976","4923552.0"
"1573037774021","4934235.0"
"1573037774073","4932498.0"
"1573037774127","4919558.0"
"1573037774172","4894705.0"
"1573037774220","4885780.0"
"1573037774270","4875690.0"
"1573037774317","4880132.0"
"1573037774368","4894394.0"
"1573037774416","4920681.0"
"1573037774463","4985780.0"
"1573037774512","5007863.0"
"1573037774563","5020816.0"
"1573037774611","5039863.0"
"1573037774656","5048539.0"
"1573037774710","5040414.0"
"1573037774758","5056985.0"
"1573037774806","5073942.0"
"1573037774855","5089003.0"
"1573037774904","5122781.0"
"1573037774953","5109861.0"
"1573037775001","5114325.0"
"1573037775051","5109705.0"
"1573037775099","5118537.0"
"1573037775146","5191168.0"
"1573037775197","5207708.0"
"1573037775243","5223779.0"
"1573037775295","5319493.0"
"1573037775346","5372692.0"
"1573037775394","5375219.0"
"1573037775441","5388629.0"
"1573037775491","5407717.0"
"1573037775538","5423144.0"
"1573037775590","5433433.0"
"1573037775632","5441889.0"
"1573037775687","5430290.0"
"1573037775734","5408881.0"
"1573037775784","5357732.0"
"1573037775832","5301404.0"
"1573037775881","5262372.0"
"1573037775931","5216820.0"
"1573037775979","5175543.0"
"1573037776030","5157120.0"
"1573037776077","5160074.0"
"1573037776126","5152459.0"
"1573037776174","5098949.0"
"1573037776226","5063933.0"
"1573037776272","5038407.0"
"1573037776320","5024426.0"
"1573037776370","5036389.0"
"1573037776419","5050057.0"
"1573037776470","5074472.0"
"1573037776516","5068241.0"
"1573037776563","5005409.0"
"1573037776614","4956714.0"
"1573037776660","4898992.0"
"1573037776713","4878114.0"
"1573037776762","4871279.0"
"1573037776807","4899053.0"
"1573037776859","4958557.0"
"1573037776908","5017642.0"
"1573037776957","5012284.0"
"1573037777003","5002695.0"
"1573037777051","5002569.0"
"1573037777100","5007709.0"
"1573037777149","5010247.0"
"1573037777198","5011047.0"
"1573037777246","5027368.0"
"1573037777295","5023957.0"
"1573037777350","5012451.0"
"1573037777397","4966369.0"
"1573037777448","4939540.0"
"1573037777495","4919868.0"
"1573037777544","4901967.0"
"1573037777592","4878707.0"
"1573037777639","4882692.0"
"1573037777691","4935348.0"
"1573037777737","4959544.0"
"1573037777785","4960408.0"
"1573037777835","4961989.0"
"1573037777884","4967076.0"
"1573037777935","4966359.0"
"1573037777983","4974535.0"
"1573037778033","4927900.0"
"1573037778074","4951690.0"
"1573037778125","4970697.0"
"1573037778171","4941507.0"
"1573037778223","4920972.0"
"1573037778269","4899252.0"
"1573037778318","4892635.0"
"1573037778369","4895849.0"
"1573037778423","4910913.0"
"1573037778473","4913867.0"
"1573037778520","4874181.0"
"1573037778566","4845502.0"
"1573037778616","4832093.0"
"1573037778668","4818787.0"
"1573037778716","4811475.0"
"1573037778764","4794331.0"
"1573037778814","4711361.0"
"1573037778861","4654886.0"
"1573037778907","4562553.0"
"1573037778960","4406723.0"
"1573037779010","4305735.0"
"1573037779056","4261814.0"
"1573037779105","4240156.0"
"1573037779151","4225582.0"
"1573037779202","4228183.0"
"1573037779246","4230784.0"
"1573037779301","4212362.0"
"1573037779348","4181248.0"
"1573037779398","4137443.0"
"1573037779449","4150081.0"
"1573037779496","4141238.0"
"1573037779544","4124948.0"
"1573037779594","4138201.0"
"1573037779642","4169388.0"
"1573037779686","4189986.0"
"1573037779740","4153691.0"
"1573037779791","4110760.0"
"1573037779837","4110833.0"
"1573037779887","4070397.0"
"1573037779933","4084327.0"
"1573037779984","4149717.0"
"1573037780027","4249155.0"
"1573037780082","4343204.0"
"1573037780133","4358757.0"
"1573037780179","4380413.0"
"1573037780234","4393823.0"
"1573037780277","4407773.0"
"1573037780325","4413391.0"
"1573037780369","4403382.0"
"1573037780422","4375411.0"
"1573037780474","4367327.0"
"1573037780520","4332667.0"
"1573037780570","4270470.0"
"1573037780618","4237202.0"
"1573037780668","4221401.0"
"1573037780714","4224022.0"
"1573037780764","4193377.0"
"1573037780810","4199326.0"
"1573037780862","4308199.0"
"1573037780912","4282995.0"
"1573037780959","4284722.0"
"1573037781013","4303290.0"
"1573037781057","4329618.0"
"1573037781106","4340636.0"
"1573037781149","4339043.0"
"1573037781204","4327610.0"
"1573037781248","4264801.0"
"1573037781301","4188206.0"
"1573037781351","4128589.0"
"1573037781399","4108669.0"
"1573037781449","4092222.0"
"1573037781496","4103145.0"
"1573037781546","4094959.0"
"1573037781589","4058591.0"
"1573037781640","4119986.0"
"1573037781691","4151933.0"
"1573037781740","4174372.0"
"1573037781793","4196622.0"
"1573037781838","4231763.0"
"1573037781888","4272759.0"
"1573037781934","4273540.0"
"1573037781985","4238565.0"
"1573037782028","4272323.0"
"1573037782082","4289724.0"
"1573037782133","4229422.0"
"1573037782173","4138638.0"
"1573037782223","4049666.0"
"1573037782273","4013746.0"
"1573037782323","4003937.0"
"1573037782370","4083744.0"
"1573037782420","4254543.0"
"1573037782470","4360378.0"
"1573037782521","4422160.0"
"1573037782573","4421692.0"
"1573037782619","4425644.0"
"1573037782669","4425478.0"
"1573037782717","4394530.0"
"1573037782767","4367067.0"
"1573037782813","4378636.0"
"1573037782865","4392897.0"
"1573037782911","4319394.0"
"1573037782961","4260817.0"
"1573037783013","4254336.0"
"1573037783059","4270053.0"
"1573037783109","4285159.0"
"1573037783153","4290994.0"
"1573037783207","4377979.0"
"1573037783254","4474276.0"
"1573037783304","4466163.0"
"1573037783353","4453337.0"
"1573037783402","4443881.0"
"1573037783455","4433666.0"
"1573037783499","4439708.0"
"1573037783549","4439127.0"
"1573037783597","4443849.0"
"1573037783644","4413047.0"
"1573037783696","4388778.0"
"1573037783744","4325416.0"
"1573037783794","4291348.0"
"1573037783842","4275608.0"
"1573037783896","4286157.0"
"1573037783940","4306068.0"
"1573037783989","4318748.0"
"1573037784037","4325386.0"
"1573037784088","4310759.0"
"1573037784134","4315513.0"
"1573037784185","4312206.0"
"1573037784235","4303768.0"
"1573037784278","4311706.0"
"1573037784330","4324406.0"
"1573037784375","4325656.0"
"1573037784426","4349706.0"
"1573037784477","4391763.0"
"1573037784526","4383483.0"
"1573037784569","4309948.0"
"1573037784625","4258923.0"
"1573037784673","4246867.0"
"1573037784721","4253399.0"
"1573037784772","4272280.0"
"1573037784820","4287041.0"
"1573037784869","4301023.0"
"1573037784916","4335819.0"
"1573037784968","4358424.0"
"1573037785016","4368816.0"
"1573037785064","4352099.0"
"1573037785115","4337089.0"
"1573037785158","4338212.0"
"1573037785212","4352182.0"
"1573037785256","4367880.0"
"1573037785309","4411290.0"
"1573037785358","4415232.0"
"1573037785408","4388445.0"
"1573037785455","4374641.0"
"1573037785504","4347418.0"
"1573037785558","4322119.0"
"1573037785602","4317584.0"
"1573037785646","4311799.0"
"1573037785700","4329681.0"
"1573037785750","4354470.0"
"1573037785792","4420039.0"
"1573037785846","4456945.0"
"1573037785895","4478354.0"
"1573037785944","4499098.0"
"1573037785993","4511934.0"
"1573037786042","4497672.0"
"1573037786091","4519320.0"
"1573037786140","4550558.0"
"1573037786189","4549018.0"
"1573037786231","4534830.0"
"1573037786288","4518186.0"
"1573037786337","4501272.0"
"1573037786379","4496288.0"
"1573037786433","4490640.0"
"1573037786483","4501770.0"
"1573037786533","4502146.0"
"1573037786581","4535277.0"
"1573037786629","4592002.0"
"1573037786676","4609176.0"
"1573037786729","4637192.0"
"1573037786774","4651692.0"
"1573037786826","4656623.0"
"1573037786876","4662572.0"
"1573037786922","4669157.0"
"1573037786973","4679582.0"
"1573037787021","4676522.0"
"1573037787071","4656757.0"
"1573037787114","4626236.0"
"1573037787168","4609956.0"
"1573037787218","4594832.0"
"1573037787265","4585189.0"
"1573037787315","4594395.0"
"1573037787363","4618621.0"
"1573037787412","4622722.0"
"1573037787456","4610436.0"
"1573037787511","4599617.0"
"1573037787552","4591264.0"
"1573037787604","4587310.0"
"1573037787655","4591804.0"
"1573037787705","4580309.0"
"1573037787754","4616397.0"
"1573037787802","4602934.0"
"1573037787852","4554345.0"
"1573037787901","4497182.0"
"1573037787951","4440510.0"
"1573037787993","4412828.0"
"1573037788048","4395696.0"
"1573037788099","4394374.0"
"1573037788140","4422586.0"
"1573037788188","4455594.0"
"1573037788236","4492554.0"
"1573037788288","4514566.0"
"1573037788337","4532843.0"
"1573037788387","4550672.0"
"1573037788437","4555333.0"
"1573037788489","4588974.0"
"1573037788540","4593001.0"
"1573037788585","4594301.0"
"1573037788634","4607865.0"
"1573037788683","4610862.0"
"1573037788732","4611319.0"
"1573037788779","4582245.0"
"1573037788830","4572696.0"
"1573037788879","4572840.0"
"1573037788928","4596205.0"
"1573037788977","4672134.0"
"1573037789024","4696143.0"
"1573037789073","4750120.0"
"1573037789122","4808407.0"
"1573037789172","4833924.0"
"1573037789216","4840248.0"
"1573037789268","4859107.0"
"1573037789317","4869199.0"
"1573037789363","4875387.0"
"1573037789412","4853825.0"
"1573037789461","4851649.0"
"1573037789510","4871509.0"
"1573037789562","4866318.0"
"1573037789610","4867772.0"
"1573037789654","4848810.0"
"1573037789709","4825435.0"
"1573037789760","4805617.0"
"1573037789806","4790576.0"
"1573037789856","4783024.0"
"1573037789905","4832280.0"
"1573037789953","4863197.0"
"1573037789995","4881629.0"
"1573037790050","4899760.0"
"1573037790100","4914407.0"
"1573037790144","4924103.0"
"1573037790202","4926153.0"
"1573037790245","4904027.0"
"1573037790295","4859046.0"
"1573037790344","4941974.0"
"1573037790393","4889734.0"
"1573037790436","4911599.0"
"1573037790492","4901550.0"
"1573037790542","4893509.0"
"1573037790588","4891471.0"
"1573037790637","4875387.0"
"1573037790687","4854085.0"
"1573037790735","4867618.0"
"1573037790785","4864601.0"
"1573037790832","4868939.0"
"1573037790878","4868939.0"
"1573037790931","4864944.0"
"1573037790982","4862667.0"
"1573037791028","4847041.0"
"1573037791076","4826695.0"
"1573037791125","4790784.0"
"1573037791171","4706462.0"
"1573037791223","4659525.0"
"1573037791272","4615450.0"
"1573037791319","4600543.0"
"1573037791371","4587696.0"
"1573037791424","4587717.0"
"1573037791469","4621639.0"
"1573037791516","4665819.0"
"1573037791566","4683170.0"
"1573037791614","4696901.0"
"1573037791661","4692002.0"
"1573037791713","4693032.0"
"1573037791758","4702352.0"
"1573037791811","4709176.0"
"1573037791861","4716822.0"
"1573037791907","4720172.0"
"1573037791956","4741465.0"
"1573037792002","4701614.0"
"1573037792054","4640323.0"
"1573037792102","4582109.0"
"1573037792148","4546793.0"
"1573037792204","4562387.0"
"1573037792251","4688392.0"
"1573037792298","4711901.0"
"1573037792348","4749173.0"
"1573037792397","4726267.0"
"1573037792445","4715168.0"
"1573037792494","4687394.0"
"1573037792538","4656207.0"
"1573037792593","4624759.0"
"1573037792640","4632905.0"
"1573037792690","4656081.0"
"1573037792738","4664029.0"
"1573037792789","4651152.0"
"1573037792836","4622856.0"
"1573037792885","4589870.0"
"1573037792933","4534174.0"
"1573037792978","4481070.0"
"1573037793032","4482505.0"
"1573037793081","4583025.0"
"1573037793130","4676325.0"
"1573037793178","4719683.0"
"1573037793228","4723770.0"
"1573037793275","4706649.0"
"1573037793326","4700938.0"
"1573037793374","4707762.0"
"1573037793423","4675128.0"
"1573037793471","4620818.0"
"1573037793521","4622035.0"
"1573037793570","4628193.0"
"1573037793618","4583452.0"
"1573037793668","4543473.0"
"1573037793715","4501459.0"
"1573037793764","4476472.0"
"1573037793813","4443392.0"
"1573037793862","4393429.0"
"1573037793912","4365706.0"
"1573037793961","4373122.0"
"1573037794005","4373404.0"
"1573037794058","4379656.0"
"1573037794110","4375119.0"
"1573037794152","4369607.0"
"1573037794199","4376005.0"
"1573037794253","4368170.0"
"1573037794307","4300846.0"
"1573037794351","4265331.0"
"1573037794401","4242903.0"
"1573037794449","4232854.0"
"1573037794491","4220121.0"
"1573037794545","4221421.0"
"1573037794589","4223951.0"
"1573037794642","4216283.0"
"1573037794690","4227309.0"
"1573037794742","4246794.0"
"1573037794788","4249884.0"
"1573037794838","4234581.0"
"1573037794889","4234341.0"
"1573037794938","4224635.0"
"1573037794990","4237411.0"
"1573037795035","4252661.0"
"1573037795082","4259047.0"
"1573037795134","4268149.0"
"1573037795184","4279458.0"
"1573037795232","4231013.0"
"1573037795280","4172426.0"
"1573037795330","4141635.0"
"1573037795377","4158175.0"
"1573037795429","4170918.0"
"1573037795476","4217979.0"
"1573037795525","4263635.0"
"1573037795573","4291744.0"
"1573037795622","4317427.0"
"1573037795672","4318478.0"
"1573037795721","4301521.0"
"1573037795771","4268795.0"
"1573037795818","4257259.0"
"1573037795868","4263604.0"
"1573037795916","4248614.0"
"1573037795964","4286864.0"
"1573037796010","4276171.0"
"1573037796065","4264001.0"
"1573037796113","4253492.0"
"1573037796158","4208304.0"
"1573037796212","4172375.0"
"1573037796260","4170792.0"
"1573037796304","4180134.0"
"1573037796357","4210332.0"
"1573037796406","4253492.0"
"1573037796455","4278989.0"
"1573037796505","4304944.0"
"1573037796553","4315680.0"
"1573037796602","4326383.0"
"1573037796647","4294989.0"
"1573037796700","4258881.0"
"1573037796747","4222691.0"
"1573037796797","4209824.0"
"1573037796848","4192223.0"
"1573037796895","4182318.0"
"1573037796945","4169585.0"
"1573037796993","4188155.0"
"1573037797041","4175236.0"
"1573037797089","4134613.0"
"1573037797139","4156251.0"
"1573037797186","4214255.0"
"1573037797237","4263291.0"
"1573037797285","4289580.0"
"1573037797335","4313079.0"
"1573037797380","4322525.0"
"1573037797434","4324959.0"
"1573037797482","4323315.0"
"1573037797530","4264208.0"
"1573037797579","4208678.0"
"1573037797628","4148926.0"
"1573037797676","4099774.0"
"1573037797727","4082557.0"
"1573037797774","4067537.0"
"1573037797824","4067100.0"
"1573037797873","4076576.0"
"1573037797922","4085762.0"
"1573037797971","4113861.0"
"1573037798013","4159579.0"
"1573037798067","4221671.0"
"1573037798110","4266412.0"
"1573037798165","4291202.0"
"1573037798211","4301074.0"
"1573037798260","4316304.0"
"1573037798310","4318811.0"
"1573037798362","4330057.0"
"1573037798406","4344328.0"
"1573037798455","4352109.0"
"1573037798509","4335579.0"
"1573037798553","4283889.0"
"1573037798605","4251517.0"
"1573037798651","4241302.0"
"1573037798705","4249404.0"
"1573037798752","4269555.0"
"1573037798803","4336132.0"
"1573037798847","4358497.0"
"1573037798900","4372154.0"
"1573037798951","4409656.0"
"1573037798998","4412361.0"
"1573037799045","4432522.0"
"1573037799095","4448987.0"
"1573037799144","4464914.0"
"1573037799191","4465861.0"
"1573037799242","4458715.0"
"1573037799289","4400615.0"
"1573037799339","4434539.0"
"1573037799390","4359361.0"
"1573037799436","4268546.0"
"1573037799482","4205984.0"
"1573037799530","4182662.0"
"1573037799580","4192077.0"
"1573037799628","4193357.0"
"1573037799681","4204850.0"
"1573037799729","4268379.0"
"1573037799774","4300917.0"
"1573037799830","4341770.0"
"1573037799873","4359868.0"
"1573037799927","4370167.0"
"1573037799971","4361534.0"
"1573037800019","4353617.0"
"1573037800067","4340853.0"
"1573037800121","4333905.0"
"1573037800171","4331014.0"
"1573037800218","4317395.0"
"1573037800268","4291212.0"
"1573037800317","4286937.0"
"1573037800365","4262534.0"
"1573037800410","4241706.0"
"1573037800463","4251735.0"
"1573037800507","4316190.0"
"1573037800560","4367859.0"
"1573037800613","4398120.0"
"1573037800654","4432302.0"
"1573037800709","4457392.0"
"1573037800752","4461710.0"
"1573037800805","4467130.0"
"1573037800848","4467015.0"
"1573037800903","4449800.0"
"1573037800952","4476887.0"
"1573037801000","4476793.0"
"1573037801053","4471915.0"
"1573037801098","4449227.0"
"1573037801144","4454981.0"
"1573037801192","4462407.0"
"1573037801244","4468035.0"
"1573037801287","4514732.0"
"1573037801342","4568939.0"
"1573037801395","4635339.0"
"1573037801439","4668897.0"
"1573037801488","4678895.0"
"1573037801538","4682514.0"
"1573037801587","4685708.0"
"1573037801636","4692750.0"
"1573037801683","4694653.0"
"1573037801727","4707179.0"
"1573037801781","4701094.0"
"1573037801834","4666609.0"
"1573037801880","4623408.0"
"1573037801929","4602030.0"
"1573037801977","4602280.0"
"1573037802021","4602197.0"
"1573037802076","4651942.0"
"1573037802124","4755602.0"
"1573037802172","4829533.0"
"1573037802222","4828005.0"
"1573037802272","4805629.0"
"1573037802319","4788610.0"
"1573037802370","4783492.0"
"1573037802418","4767274.0"
"1573037802466","4772299.0"
"1573037802514","4804339.0"
"1573037802565","4818694.0"
"1573037802609","4812036.0"
"1573037802658","4793998.0"
"1573037802715","4763207.0"
"1573037802760","4741195.0"
"1573037802809","4710009.0"
"1573037802857","4744878.0"
"1573037802907","4808801.0"
"1573037802953","4889150.0"
"1573037802997","4906242.0"
"1573037803056","4897952.0"
"1573037803097","4894289.0"
"1573037803147","4886664.0"
"1573037803194","4878031.0"
"1573037803248","4835421.0"
"1573037803291","4744909.0"
"1573037803347","4844160.0"
"1573037803389","4793406.0"
"1573037803444","4783668.0"
"1573037803496","4754220.0"
"1573037803541","4752461.0"
"1573037803591","4755437.0"
"1573037803639","4760295.0"
"1573037803688","4812661.0"
"1573037803734","4875274.0"
"1573037803785","4900126.0"
"1573037803833","4899740.0"
"1573037803883","4853252.0"
"1573037803936","4856486.0"
"1573037803980","4855789.0"
"1573037804026","4862147.0"
"1573037804078","4809020.0"
"1573037804129","4813409.0"
"1573037804170","4740404.0"
"1573037804226","4675618.0"
"1573037804275","4627829.0"
"1573037804322","4616084.0"
"1573037804372","4602684.0"
"1573037804416","4597223.0"
"1573037804464","4585823.0"
"1573037804517","4654917.0"
"1573037804569","4701572.0"
"1573037804612","4713201.0"
"1573037804659","4682400.0"
"1573037804710","4658338.0"
"1573037804756","4656644.0"
"1573037804805","4650766.0"
"1573037804856","4658598.0"
"1573037804906","4574610.0"
"1573037804954","4655093.0"
"1573037805005","4632634.0"
"1573037805054","4610789.0"
"1573037805104","4556166.0"
"1573037805152","4507658.0"
"1573037805202","4501532.0"
"1573037805251","4497111.0"
"1573037805295","4465217.0"
"1573037805350","4535141.0"
"1573037805392","4579945.0"
"1573037805449","4633841.0"
"1573037805498","4652523.0"
"1573037805544","4674245.0"
"1573037805593","4673245.0"
"1573037805642","4657580.0"
"1573037805692","4647478.0"
"1573037805739","4617384.0"
"1573037805789","4628016.0"
"1573037805835","4613369.0"
"1573037805886","4602634.0"
"1573037805937","4598046.0"
"1573037805983","4599377.0"
"1573037806032","4559620.0"
"1573037806082","4518133.0"
"1573037806131","4494925.0"
"1573037806174","4517967.0"
"1573037806228","4502873.0"
"1573037806274","4488559.0"
"1573037806327","4474120.0"
"1573037806376","4484388.0"
"1573037806423","4485449.0"
"1573037806472","4479467.0"
"1573037806521","4428464.0"
"1573037806571","4420963.0"
"1573037806615","4361305.0"
"1573037806668","4338669.0"
"1573037806717","4310790.0"
"1573037806766","4323106.0"
"1573037806814","4322182.0"
"1573037806863","4336505.0"
"1573037806911","4348728.0"
"1573037806960","4331501.0"
"1573037807011","4309552.0"
"1573037807054","4280726.0"
"1573037807108","4282902.0"
"1573037807154","4302707.0"
"1573037807205","4311663.0"
"1573037807253","4345825.0"
"1573037807297","4403539.0"
"1573037807352","4449196.0"
"1573037807399","4364716.0"
"1573037807450","4279468.0"
"1573037807494","4197569.0"
"1573037807550","4190610.0"
"1573037807599","4211925.0"
"1573037807643","4282672.0"
"1573037807694","4325697.0"
"1573037807743","4356187.0"
"1573037807792","4426851.0"
"1573037807837","4422190.0"
"1573037807890","4416375.0"
"1573037807940","4388071.0"
"1573037807988","4341790.0"
"1573037808035","4299920.0"
"1573037808085","4322816.0"
"1573037808129","4315627.0"
"1573037808178","4213288.0"
"1573037808226","4139908.0"
"1573037808276","4101085.0"
"1573037808327","4091162.0"
"1573037808374","4044995.0"
"1573037808425","4009979.0"
"1573037808469","4012373.0"
"1573037808520","4024647.0"
"1573037808569","4114484.0"
"1573037808619","4132252.0"
"1573037808668","4116398.0"
"1573037808714","4150737.0"
"1573037808769","4167870.0"
"1573037808818","4153307.0"
"1573037808867","4085918.0"
"1573037808915","4056687.0"
"1573037808965","3998913.0"
"1573037809013","3949188.0"
"1573037809061","3905997.0"
"1573037809112","3902772.0"
"1573037809154","3914006.0"
"1573037809210","3927196.0"
"1573037809257","3891317.0"
"1573037809301","3794230.0"
"1573037809354","3763876.0"
"1573037809405","3768183.0"
"1573037809453","3782716.0"
"1573037809499","3810251.0"
"1573037809550","3846775.0"
"1573037809600","3868078.0"
"1573037809645","3882101.0"
"1573037809696","3876640.0"
"1573037809747","3889913.0"
"1573037809794","3875703.0"
"1573037809839","3815556.0"
"1573037809888","3780989.0"
"1573037809941","3779033.0"
"1573037809988","3790642.0"
"1573037810039","3820913.0"
"1573037810088","3869826.0"
"1573037810132","3984940.0"
"1573037810186","4020435.0"
"1573037810235","4062138.0"
"1573037810284","4087842.0"
"1573037810332","4096050.0"
"1573037810377","4106235.0"
"1573037810430","4101345.0"
"1573037810481","4089498.0"
"1573037810529","4123274.0"
"1573037810576","4118115.0"
"1573037810625","4024439.0"
"1573037810674","3972177.0"
"1573037810720","3869661.0"
"1573037810773","3787469.0"
"1573037810821","3750926.0"
"1573037810869","3721965.0"
"1573037810918","3789372.0"
"1573037810968","3828112.0"
"1573037811015","3793003.0"
"1573037811065","3777796.0"
"1573037811114","3804290.0"
"1573037811161","3820633.0"
"1573037811213","3762816.0"
"1573037811261","3736736.0"
"1573037811304","3728134.0"
"1573037811358","3720945.0"
"1573037811407","3690871.0"
"1573037811455","3651799.0"
"1573037811505","3632867.0"
"1573037811554","3637101.0"
"1573037811602","3646577.0"
"1573037811646","3601982.0"
"1573037811705","3527168.0"
"1573037811748","3432951.0"
"1573037811796","3413510.0"
"1573037811847","3435656.0"
"1573037811894","3477776.0"
"1573037811939","3521623.0"
"1573037811994","3550531.0"
"1573037812045","3555368.0"
"1573037812090","3543915.0"
"1573037812138","3477869.0"
"1573037812188","3423880.0"
"1573037812236","3381002.0"
"1573037812286","3373053.0"
"1573037812334","3392798.0"
"1573037812378","3426169.0"
"1573037812431","3442448.0"
"1573037812481","3474082.0"
"1573037812530","3470577.0"
"1573037812578","3491590.0"
"1573037812628","3505800.0"
"1573037812676","3506956.0"
"1573037812725","3515922.0"
"1573037812773","3530599.0"
"1573037812821","3547973.0"
"1573037812872","3577327.0"
"1573037812921","3581801.0"
"1573037812965","3569058.0"
"1573037813018","3540951.0"
"1573037813068","3492922.0"
"1573037813115","3465096.0"
"1573037813160","3472605.0"
"1573037813213","3579377.0"
"1573037813263","3689155.0"
"1573037813307","3810293.0"
"1573037813360","3888302.0"
"1573037813409","3936402.0"
"1573037813457","3957583.0"
"1573037813506","3971699.0"
"1573037813555","3938192.0"
"1573037813601","3901129.0"
"1573037813649","3902730.0"
"1573037813706","3952735.0"
"1573037813751","3940729.0"
"1573037813800","3892567.0"
"1573037813849","3873342.0"
"1573037813896","3880468.0"
"1573037813949","3890403.0"
"1573037813994","3843228.0"
"1573037814046","3758508.0"
"1573037814093","3707016.0"
"1573037814139","3705632.0"
"1573037814192","3684506.0"
"1573037814239","3659394.0"
"1573037814289","3651592.0"
"1573037814330","3652736.0"
"1573037814381","3672771.0"
"1573037814430","3676371.0"
"1573037814482","3625595.0"
"1573037814528","3567851.0"
"1573037814578","3536050.0"
"1573037814624","3515278.0"
"1573037814678","3521747.0"
"1573037814729","3537267.0"
"1573037814776","3547597.0"
"1573037814820","3681405.0"
"1573037814875","3725586.0"
"1573037814925","3779833.0"
"1573037814973","3886969.0"
"1573037815023","3914579.0"
"1573037815071","3861743.0"
"1573037815120","3830838.0"
"1573037815169","3840388.0"
"1573037815218","3846349.0"
"1573037815263","3873603.0"
"1573037815310","3868485.0"
"1573037815366","3874799.0"
"1573037815413","3824617.0"
"1573037815462","3790695.0"
"1573037815512","3809950.0"
"1573037815559","3825627.0"
"1573037815610","3844965.0"
"1573037815653","3932034.0"
"1573037815704","3862950.0"
"1573037815755","3842198.0"
"1573037815806","3875797.0"
"1573037815852","3902396.0"
"1573037815903","3920757.0"
"1573037815951","3918717.0"
"1573037815999","3922265.0"
"1573037816046","3949271.0"
"1573037816096","3981653.0"
"1573037816145","3992732.0"
"1573037816195","3952869.0"
"1573037816245","3945173.0"
"1573037816293","3962534.0"
"1573037816341","3978418.0"
"1573037816392","3954419.0"
"1573037816439","3937881.0"
"1573037816486","3922785.0"
"1573037816535","3949584.0"
"1573037816589","3962514.0"
"1573037816634","3979324.0"
"1573037816684","4001637.0"
"1573037816733","4012466.0"
"1573037816781","4019738.0"
"1573037816829","4002937.0"
"1573037816878","3963188.0"
"1573037816927","3922911.0"
"1573037816976","3892358.0"
"1573037817026","3899505.0"
"1573037817073","3915410.0"
"1573037817122","3927966.0"
"1573037817171","3927269.0"
"1573037817221","3943933.0"
"1573037817267","4016845.0"
"1573037817316","4073799.0"
"1573037817369","4120819.0"
"1573037817416","4148833.0"
"1573037817464","4180228.0"
"1573037817513","4206234.0"
"1573037817562","4231554.0"
"1573037817609","4249851.0"
"1573037817656","4262148.0"
"1573037817705","4287280.0"
"1573037817756","4286459.0"
"1573037817806","4296070.0"
"1573037817855","4291577.0"
"1573037817904","4277731.0"
"1573037817953","4277918.0"
"1573037817996","4264094.0"
"1573037818048","4311363.0"
"1573037818099","4366943.0"
"1573037818147","4353544.0"
"1573037818195","4358278.0"
"1573037818239","4362709.0"
"1573037818294","4372144.0"
"1573037818343","4337639.0"
"1573037818393","4333114.0"
"1573037818440","4350829.0"
"1573037818490","4358060.0"
"1573037818538","4367067.0"
"1573037818590","4340240.0"
"1573037818636","4299857.0"
"1573037818685","4277491.0"
"1573037818734","4261721.0"
"1573037818778","4238596.0"
"1573037818825","4205194.0"
"1573037818880","4235830.0"
"1573037818932","4299410.0"
"1573037818980","4264301.0"
"1573037819028","4275880.0"
"1573037819076","4263635.0"
"1573037819125","4264748.0"
"1573037819167","4259890.0"
"1573037819222","4265768.0"
"1573037819270","4245629.0"
"1573037819315","4189372.0"
"1573037819372","4143819.0"
"1573037819418","4119519.0"
"1573037819467","4109179.0"
"1573037819515","4113381.0"
"1573037819563","4150653.0"
"1573037819607","4242602.0"
"1573037819657","4355937.0"
"1573037819712","4400648.0"
"1573037819758","4418572.0"
"1573037819812","4428361.0"
"1573037819856","4446439.0"
"1573037819907","4457902.0"
"1573037819949","4477543.0"
"1573037819998","4510021.0"
"1573037820048","4595695.0"
"1573037820094","4638262.0"
"1573037820149","4635182.0"
"1573037820194","4617167.0"
"1573037820248","4581465.0"
"1573037820295","4560971.0"
"1573037820345","4582909.0"
"1573037820394","4627330.0"
"1573037820443","4699991.0"
"1573037820489","4741664.0"
"1573037820540","4763769.0"
"1573037820595","4768428.0"
"1573037820638","4783388.0"
"1573037820689","4788526.0"
"1573037820735","4819317.0"
"1573037820784","4899584.0"
"1573037820829","4948425.0"
"1573037820882","4949818.0"
"1573037820931","4928920.0"
"1573037820980","4919121.0"
"1573037821030","4924925.0"
"1573037821077","4928910.0"
"1573037821126","4922563.0"
"1573037821175","4873921.0"
"1573037821224","4967003.0"
"1573037821268","4957141.0"
"1573037821321","4930740.0"
"1573037821372","4918507.0"
"1573037821419","4923375.0"
"1573037821469","4914440.0"
"1573037821517","4904557.0"
"1573037821566","4914387.0"
"1573037821613","4886550.0"
"1573037821660","4896359.0"
"1573037821713","4818694.0"
"1573037821761","4794530.0"
"1573037821811","4795881.0"
"1573037821858","4789079.0"
"1573037821907","4792947.0"
"1573037821950","4802996.0"
"1573037822006","4900043.0"
"1573037822050","4947685.0"
"1573037822103","4924395.0"
"1573037822151","4915210.0"
"1573037822202","4920025.0"
"1573037822250","4904027.0"
"1573037822298","4892854.0"
"1573037822348","4887996.0"
"1573037822396","4869115.0"
"1573037822444","4869656.0"
"1573037822494","4827172.0"
"1573037822541","4807730.0"
"1573037822595","4783408.0"
"1573037822639","4747666.0"
"1573037822689","4725290.0"
"1573037822737","4724914.0"
"1573037822787","4713628.0"
"1573037822830","4731739.0"
"1573037822884","4733082.0"
"1573037822936","4729358.0"
"1573037822981","4729981.0"
"1573037823026","4756477.0"
"1573037823079","4706929.0"
"1573037823124","4662635.0"
"1573037823175","4655260.0"
"1573037823226","4639593.0"
"1573037823271","4581205.0"
"1573037823323","4548260.0"
"1573037823374","4522867.0"
"1573037823421","4522305.0"
"1573037823470","4533447.0"
"1573037823518","4513255.0"
"1573037823569","4476326.0"
"1573037823613","4487499.0"
"1573037823666","4486812.0"
"1573037823713","4472039.0"
"1573037823762","4465217.0"
"1573037823814","4467608.0"
"1573037823860","4474880.0"
"1573037823911","4483462.0"
"1573037823952","4492190.0"
"1573037824001","4428984.0"
"1573037824050","4326810.0"
"1573037824100","4255376.0"
"1573037824150","4232147.0"
"1573037824205","4248218.0"
"1573037824256","4257716.0"
"1573037824301","4269866.0"
"1573037824351","4281809.0"
"1573037824399","4361128.0"
"1573037824449","4407659.0"
"1573037824492","4392212.0"
"1573037824546","4360578.0"
"1573037824595","4341103.0"
"1573037824644","4322929.0"
"1573037824693","4321869.0"
"1573037824742","4302010.0"
"1573037824791","4321745.0"
"1573037824839","4284056.0"
"1573037824888","4252099.0"
"1573037824931","4186428.0"
"1573037824988","4120456.0"
"1573037825032","4076483.0"
"1573037825078","4044214.0"
"1573037825133","4024303.0"
"1573037825181","4008689.0"
"1573037825231","4043851.0"
"1573037825277","4054867.0"
"1573037825328","4067017.0"
"1573037825373","4087375.0"
"1573037825425","4040750.0"
"1573037825477","3978512.0"
"1573037825523","3936298.0"
"1573037825571","3892504.0"
"1573037825620","3875610.0"
"1573037825669","3862357.0"
"1573037825717","3841491.0"
"1573037825768","3819666.0"
"1573037825813","3807246.0"
"1573037825864","3781333.0"
"1573037825913","3704468.0"
"1573037825962","3643550.0"
"1573037826012","3629163.0"
"1573037826060","3633147.0"
"1573037826110","3650167.0"
"1573037826154","3677765.0"
"1573037826208","3696956.0"
"1573037826258","3725834.0"
"1573037826304","3739316.0"
"1573037826353","3672563.0"
"1573037826401","3600296.0"
"1573037826451","3568205.0"
"1573037826500","3563877.0"
"1573037826550","3599715.0"
"1573037826597","3633387.0"
"1573037826645","3723713.0"
"1573037826699","3795011.0"
"1573037826744","3762326.0"
"1573037826793","3758811.0"
"1573037826842","3727427.0"
"1573037826891","3741177.0"
"1573037826938","3756604.0"
"1573037826990","3760091.0"
"1573037827035","3790872.0"
"1573037827084","3830972.0"
"1573037827134","3809253.0"
"1573037827180","3792776.0"
"1573037827230","3778440.0"
"1573037827279","3786918.0"
"1573037827329","3782893.0"
"1573037827376","3793306.0"
"1573037827430","3845359.0"
"1573037827475","3843705.0"
"1573037827527","3862160.0"
"1573037827578","3881384.0"
"1573037827626","3896082.0"
"1573037827673","3909014.0"
