time,value,value2,value3
1583190808546,5259749.0,4546759.0,0.0
1583190808597,4999007.0,4330065.0,0.0
1583190808644,4814476.0,4218788.0,0.0
1583190808698,4700590.0,4191532.0,0.0
1583190808740,4638502.0,4239853.0,0.0
1583190808819,4616013.0,4210586.0,0.0
1583190808903,4496723.0,4134267.0,0.0
1583190808903,4350386.0,4051878.0,0.0
1583190808985,4197865.0,4030642.0,0.0
1583190808991,4103190.0,3993413.0,0.0
1583190809034,4034308.0,3958495.0,0.0
1583190809079,3854557.0,3820521.0,0.0
1583190809135,3690244.0,3712855.0,0.0
1583190809178,3595219.0,3677186.0,0.0
1583190809227,3568093.0,3704964.0,0.0
1583190809276,3546892.0,3701252.0,0.0
1583190809324,3355899.0,3600008.0,0.0
1583190809374,3214181.0,3503473.0,0.0
1583190809422,3132732.0,3482788.0,0.0
1583190809475,3065819.0,3474048.0,0.0
1583190809519,3057934.0,3462814.0,0.0
1583190809568,3031096.0,3421153.0,0.0
1583190809617,3007146.0,3410592.0,0.0
1583190809666,2990159.0,3403160.0,0.0
1583190809714,2962029.0,3373803.0,0.0
1583190809763,2925880.0,3339123.0,0.0
1583190809814,2915118.0,3322770.0,0.0
1583190809860,2929655.0,3372261.0,0.0
1583190809910,2962700.0,3448070.0,0.0
1583190809958,2932138.0,3428626.0,0.0
1583190810005,2922248.0,3448151.0,0.0
1583190810055,2913590.0,3434217.0,0.0
1583190810109,2877500.0,3403710.0,0.0
1583190810158,2891300.0,3424654.0,0.0
1583190810205,3004210.0,3506545.0,0.0
1583190810254,3093152.0,3561977.0,0.0
1583190810303,3097337.0,3535433.0,0.0
1583190810351,3043772.0,3473446.0,0.0
1583190810400,2999395.0,3439217.0,0.0
1583190810448,3008119.0,3457623.0,0.0
1583190810497,3056373.0,3520518.0,0.0
1583190810546,3035316.0,3516527.0,0.0
1583190810596,3017892.0,3515446.0,0.0
1583190810643,3001266.0,3507754.0,0.0
1583190810694,3024109.0,3527610.0,0.0
1583190810741,2975963.0,3495742.0,0.0
1583190810791,3024201.0,3546725.0,0.0
1583190810834,3138513.0,3616402.0,0.0
1583190810887,3181968.0,3645338.0,0.0
1583190810934,3172740.0,3612761.0,0.0
1583190810980,3070602.0,3452672.0,0.0
1583190811033,2949310.0,3322530.0,0.0
1583190811083,2902558.0,3289862.0,0.0
1583190811131,2892257.0,3294933.0,0.0
1583190811176,2967507.0,3433597.0,0.0
1583190811229,3006602.0,3505135.0,0.0
1583190811278,3006921.0,3455882.0,0.0
1583190811326,3054041.0,3473566.0,0.0
1583190811376,3090450.0,3492010.0,0.0
1583190811423,3114745.0,3528760.0,0.0
1583190811474,3157747.0,3502374.0,0.0
1583190811519,3151138.0,3458373.0,0.0
1583190811571,3130945.0,3433366.0,0.0
1583190811617,3098756.0,3401248.0,0.0
1583190811667,3032364.0,3343924.0,0.0
1583190811717,2976022.0,3302814.0,0.0
1583190811764,2989714.0,3332183.0,0.0
1583190811814,3070468.0,3414511.0,0.0
1583190811862,3149082.0,3446221.0,0.0
1583190811913,3087355.0,3349607.0,0.0
1583190811955,2951745.0,3243180.0,0.0
1583190812008,2912231.0,3213043.0,0.0
1583190812059,2922902.0,3216164.0,0.0
1583190812099,2925553.0,3162463.0,0.0
1583190812151,2932725.0,3156557.0,0.0
1583190812198,2928574.0,3149336.0,0.0
1583190812249,2927977.0,3151189.0,0.0
1583190812294,2922122.0,3145404.0,0.0
1583190812343,2933607.0,3150805.0,0.0
1583190812397,2955292.0,3164076.0,0.0
1583190812446,2896040.0,3071632.0,0.0
1583190812496,2810412.0,2996144.0,0.0
1583190812543,2788910.0,2956438.0,0.0
1583190812587,2812241.0,2938311.0,0.0
1583190812639,2823013.0,2926868.0,0.0
1583190812690,2813214.0,2917942.0,0.0
1583190812739,2845478.0,2917804.0,0.0
1583190812787,2886241.0,2929546.0,0.0
1583190812835,2926476.0,2948276.0,0.0
1583190812884,2959815.0,2944889.0,0.0
1583190812934,2964914.0,2890772.0,0.0
1583190812977,3142950.0,2913635.0,0.0
1583190813031,3438106.0,2982109.0,0.0
1583190813081,3674000.0,3063921.0,0.0
1583190813127,3910272.0,3157827.0,0.0
1583190813176,4062275.0,3207454.0,0.0
1583190813225,4191719.0,3280914.0,0.0
1583190813275,4275307.0,3331413.0,0.0
1583190813321,4358972.0,3370788.0,0.0
1583190813372,4366155.0,3383478.0,0.0
1583190813420,4375785.0,3358963.0,0.0
1583190813468,4286181.0,3245255.0,0.0
1583190813518,4224906.0,3214299.0,0.0
1583190813566,4234646.0,3265731.0,0.0
1583190813615,4376120.0,3371117.0,0.0
1583190813662,4352286.0,3340637.0,0.0
1583190813713,4199714.0,3237751.0,0.0
1583190813758,4238279.0,3254044.0,0.0
1583190813805,4200025.0,3244842.0,0.0
1583190813858,4008307.0,3136036.0,0.0
1583190813907,3741842.0,2996435.0,0.0
1583190813949,3648621.0,2988036.0,0.0
1583190813997,3573497.0,2997392.0,0.0
1583190814048,3517945.0,3020200.0,0.0
1583190814096,3434205.0,2992902.0,0.0
1583190814151,3374884.0,2981534.0,0.0
1583190814199,3351084.0,2988113.0,0.0
1583190814247,3304047.0,2970605.0,0.0
1583190814292,3286404.0,2968661.0,0.0
1583190814341,3287779.0,2964256.0,0.0
1583190814394,3201438.0,2872271.0,0.0
1583190814438,3148570.0,2825994.0,0.0
1583190814491,3183284.0,2839019.0,0.0
1583190814539,3303190.0,2894949.0,0.0
1583190814588,3346864.0,2903799.0,0.0
1583190814638,3287637.0,2868866.0,0.0
1583190814686,3241825.0,2834492.0,0.0
1583190814735,3180566.0,2804851.0,0.0
1583190814780,3160458.0,2806115.0,0.0
1583190814834,3143696.0,2810780.0,0.0
1583190814882,3055711.0,2739638.0,0.0
1583190814929,2907633.0,2624605.0,0.0
1583190814978,2835035.0,2575591.0,0.0
1583190815022,2792259.0,2556407.0,0.0
1583190815077,2773904.0,2555016.0,0.0
1583190815118,2770850.0,2559337.0,0.0
1583190815174,2762603.0,2558709.0,0.0
1583190815218,2752260.0,2554817.0,0.0
1583190815270,2755019.0,2562350.0,0.0
1583190815319,2771931.0,2578192.0,0.0
1583190815368,2793248.0,2596435.0,0.0
1583190815418,2789304.0,2593229.0,0.0
1583190815461,2687729.0,2502391.0,0.0
1583190815510,2623242.0,2445474.0,0.0
1583190815557,2626716.0,2447579.0,0.0
1583190815608,2656245.0,2476292.0,0.0
1583190815656,2643545.0,2468106.0,0.0
1583190815705,2637909.0,2465698.0,0.0
1583190815753,2635609.0,2467748.0,0.0
1583190815805,2643770.0,2477549.0,0.0
1583190815855,2653246.0,2488590.0,0.0
1583190815898,2660608.0,2499047.0,0.0
1583190815952,2660067.0,2498267.0,0.0
1583190816001,2565745.0,2412107.0,0.0
1583190816049,2507564.0,2360484.0,0.0
1583190816092,2518907.0,2368323.0,0.0
1583190816143,2551176.0,2403449.0,0.0
1583190816193,2568472.0,2420335.0,0.0
1583190816240,2570819.0,2424533.0,0.0
1583190816287,2573007.0,2428972.0,0.0
1583190816338,2576148.0,2438341.0,0.0
1583190816387,2591997.0,2453215.0,0.0
1583190816433,2608115.0,2471369.0,0.0
1583190816484,2617317.0,2480144.0,0.0
1583190816532,2528849.0,2396440.0,0.0
1583190816581,2469382.0,2339691.0,0.0
1583190816633,2468114.0,2340441.0,0.0
1583190816684,2493728.0,2365332.0,0.0
1583190816732,2511524.0,2381283.0,0.0
1583190816780,2513125.0,2385227.0,0.0
1583190816828,2518046.0,2391964.0,0.0
1583190816878,2531531.0,2404886.0,0.0
1583190816924,2547521.0,2421642.0,0.0
1583190816975,2566172.0,2439883.0,0.0
1583190817021,2578588.0,2452583.0,0.0
1583190817067,2510232.0,2386978.0,0.0
1583190817120,2454558.0,2334173.0,0.0
1583190817170,2464046.0,2341406.0,0.0
1583190817213,2493021.0,2371734.0,0.0
1583190817262,2517286.0,2397921.0,0.0
1583190817316,2523308.0,2401920.0,0.0
1583190817360,2523481.0,2406249.0,0.0
1583190817409,2535011.0,2420354.0,0.0
1583190817461,2553368.0,2437004.0,0.0
1583190817511,2568399.0,2453599.0,0.0
1583190817558,2579894.0,2465598.0,0.0
1583190817606,2537478.0,2421282.0,0.0
1583190817657,2477803.0,2365549.0,0.0
1583190817700,2482964.0,2366396.0,0.0
1583190817754,2515787.0,2398354.0,0.0
1583190817802,2548742.0,2427424.0,0.0
1583190817852,2555609.0,2432782.0,0.0
1583190817901,2556003.0,2434503.0,0.0
1583190817949,2569845.0,2449133.0,0.0
1583190817997,2585216.0,2464997.0,0.0
1583190818041,2602487.0,2483047.0,0.0
1583190818095,2619798.0,2502842.0,0.0
1583190818142,2598999.0,2479697.0,0.0
1583190818192,2532557.0,2420955.0,0.0
1583190818240,2518633.0,2408324.0,0.0
1583190818285,2547801.0,2435295.0,0.0
1583190818337,2587003.0,2470979.0,0.0
1583190818385,2604860.0,2486095.0,0.0
1583190818436,2601660.0,2486038.0,0.0
1583190818483,2598981.0,2487480.0,0.0
1583190818533,2609442.0,2499909.0,0.0
1583190818581,2628079.0,2516725.0,0.0
1583190818630,2641196.0,2530572.0,0.0
1583190818679,2612723.0,2503649.0,0.0
1583190818726,2559171.0,2452410.0,0.0
1583190818776,2550168.0,2446423.0,0.0
1583190818822,2582188.0,2476119.0,0.0
1583190818874,2615304.0,2507284.0,0.0
1583190818921,2625999.0,2520033.0,0.0
1583190818971,2627080.0,2518954.0,0.0
1583190819020,2628026.0,2523024.0,0.0
1583190819067,2642371.0,2537041.0,0.0
1583190819113,2661989.0,2556007.0,0.0
1583190819162,2675358.0,2569959.0,0.0
1583190819214,2609763.0,2506162.0,0.0
1583190819262,2564758.0,2466143.0,0.0
1583190819313,2577229.0,2475406.0,0.0
1583190819361,2611756.0,2508596.0,0.0
1583190819408,2640597.0,2533798.0,0.0
1583190819458,2644677.0,2538471.0,0.0
1583190819502,2642511.0,2538244.0,0.0
1583190819557,2650520.0,2546113.0,0.0
1583190819604,2663495.0,2560032.0,0.0
1583190819653,2683259.0,2581457.0,0.0
1583190819701,2681786.0,2575890.0,0.0
1583190819750,2615003.0,2514553.0,0.0
1583190819799,2594586.0,2495853.0,0.0
1583190819842,2616990.0,2514299.0,0.0
1583190819894,2657854.0,2553098.0,0.0
1583190819944,2681386.0,2573958.0,0.0
1583190819988,2676498.0,2570993.0,0.0
1583190820041,2677026.0,2569890.0,0.0
1583190820087,2681866.0,2578106.0,0.0
1583190820139,2701145.0,2595921.0,0.0
1583190820182,2717395.0,2610547.0,0.0
1583190820237,2701259.0,2576975.0,0.0
1583190820286,2783059.0,2609048.0,0.0
1583190820335,2882702.0,2699834.0,0.0
1583190820382,2818273.0,2709686.0,0.0
1583190820427,2753891.0,2690956.0,0.0
1583190820479,2708660.0,2651203.0,0.0
1583190820528,2681713.0,2642659.0,0.0
1583190820572,2694237.0,2675996.0,0.0
1583190820623,2778363.0,2724622.0,0.0
1583190820672,2853694.0,2807612.0,0.0
1583190820720,2917898.0,2878634.0,0.0
1583190820769,2945818.0,2907359.0,0.0
1583190820817,2972978.0,2964252.0,0.0
1583190820866,3023171.0,3062853.0,0.0
1583190820918,3202454.0,3189727.0,0.0
1583190820965,3432037.0,3274650.0,0.0
1583190821016,3660919.0,3390193.0,0.0
1583190821068,3837596.0,3497833.0,0.0
1583190821116,3931192.0,3575413.0,0.0
1583190821161,3987004.0,3639996.0,0.0
1583190821210,4017493.0,3692950.0,0.0
1583190821260,4100823.0,3734542.0,0.0
1583190821307,4134269.0,3801348.0,0.0
1583190821358,4182314.0,3832951.0,0.0
1583190821404,4193891.0,3838329.0,0.0
1583190821455,4154705.0,3831515.0,0.0
1583190821502,4132744.0,3866179.0,0.0
1583190821553,4128902.0,3916617.0,0.0
1583190821600,4136953.0,3943608.0,0.0
1583190821646,4161670.0,3975942.0,0.0
1583190821696,4294855.0,4043129.0,0.0
1583190821745,4497184.0,4102493.0,0.0
1583190821795,4581755.0,4127802.0,0.0
1583190821842,4629187.0,4155239.0,0.0
1583190821893,4662013.0,4177361.0,0.0
1583190821940,4694269.0,4207061.0,0.0
1583190821983,4715503.0,4226167.0,0.0
1583190822038,4747322.0,4251188.0,0.0
1583190822090,4730351.0,4253391.0,0.0
1583190822135,4674775.0,4232226.0,0.0
1583190822184,4637082.0,4258340.0,0.0
1583190822235,4616604.0,4289777.0,0.0
1583190822281,4680832.0,4358371.0,0.0
1583190822328,4829269.0,4407387.0,0.0
1583190822378,4893387.0,4419624.0,0.0
1583190822426,4903411.0,4435488.0,0.0
1583190822476,4911114.0,4438066.0,0.0
1583190822525,4956724.0,4460676.0,0.0
1583190822568,5006557.0,4470001.0,0.0
1583190822619,4949711.0,4447581.0,0.0
1583190822668,4950182.0,4468065.0,0.0
1583190822716,4914929.0,4496221.0,0.0
1583190822766,4884646.0,4501829.0,0.0
1583190822817,4867067.0,4502324.0,0.0
1583190822866,4981784.0,4653665.0,0.0
1583190822915,5090125.0,4672109.0,0.0
1583190822963,5120967.0,4674610.0,0.0
1583190823010,5129904.0,4678022.0,0.0
1583190823060,5155313.0,4687782.0,0.0
1583190823106,5154832.0,4685181.0,0.0
1583190823158,5103918.0,4650544.0,0.0
1583190823206,5063320.0,4659236.0,0.0
1583190823256,5034713.0,4684253.0,0.0
1583190823299,5005035.0,4680151.0,0.0
1583190823354,5005758.0,4626078.0,0.0
1583190823401,5003899.0,4575786.0,0.0
1583190823450,5093333.0,4715099.0,0.0
1583190823498,5193988.0,4781886.0,0.0
1583190823547,5233265.0,4794179.0,0.0
1583190823598,5258020.0,4794989.0,0.0
1583190823644,5269059.0,4794928.0,0.0
1583190823695,5278699.0,4836770.0,0.0
1583190823742,5282659.0,4842790.0,0.0
1583190823788,5284778.0,4818826.0,0.0
1583190823839,5238909.0,4727944.0,0.0
1583190823888,5200381.0,4683912.0,0.0
1583190823938,5177197.0,4649264.0,0.0
1583190823980,5162422.0,4640481.0,0.0
1583190824035,5145114.0,4619576.0,0.0
1583190824078,5117076.0,4569453.0,0.0
1583190824127,5077392.0,4510630.0,0.0
1583190824180,5053736.0,4455537.0,0.0
1583190824227,5030599.0,4415467.0,0.0
1583190824277,5010180.0,4377967.0,0.0
1583190824326,4963386.0,4283574.0,0.0
1583190824376,4890242.0,4163785.0,0.0
1583190824424,4839482.0,4098080.0,0.0
1583190824468,4821057.0,4083596.0,0.0
1583190824521,4810721.0,4085416.0,0.0
1583190824568,4799595.0,4077364.0,0.0
1583190824619,4783309.0,4058469.0,0.0
1583190824667,4768138.0,4039834.0,0.0
1583190824717,4761559.0,4041246.0,0.0
1583190824764,4854353.0,4165745.0,0.0
1583190824813,4921979.0,4197894.0,0.0
1583190824861,4948323.0,4227480.0,0.0
1583190824909,4962771.0,4252696.0,0.0
1583190824960,4924253.0,4225810.0,0.0
1583190825008,4890002.0,4186120.0,0.0
1583190825057,4852736.0,4132408.0,0.0
1583190825106,4807745.0,4072043.0,0.0
1583190825150,4768707.0,4025081.0,0.0
1583190825202,4739212.0,3991982.0,0.0
1583190825248,4701340.0,3947973.0,0.0
1583190825295,4610106.0,3817981.0,0.0
1583190825349,4442749.0,3660302.0,0.0
1583190825399,4313595.0,3564629.0,0.0
1583190825446,4246981.0,3531540.0,0.0
1583190825494,4200100.0,3514067.0,0.0
1583190825544,4143398.0,3482099.0,0.0
1583190825593,4063307.0,3439768.0,0.0
1583190825640,3964637.0,3407900.0,0.0
1583190825690,3855286.0,3379525.0,0.0
1583190825739,3739298.0,3348605.0,0.0
1583190825787,3615382.0,3275609.0,0.0
1583190825836,3401532.0,3127291.0,0.0
1583190825884,3222995.0,3014534.0,0.0
1583190825932,3124555.0,2953419.0,0.0
1583190825977,3064567.0,2851616.0,0.0
1583190826030,3006524.0,2809075.0,0.0
1583190826082,2933140.0,2751922.0,0.0
1583190826129,2827715.0,2719689.0,0.0
1583190826178,2822221.0,2725313.0,0.0
1583190826226,2834724.0,2742861.0,0.0
1583190826271,2869938.0,2771673.0,0.0
1583190826323,2834344.0,2731979.0,0.0
1583190826369,2732539.0,2642497.0,0.0
1583190826421,2664622.0,2584543.0,0.0
1583190826471,2648478.0,2572800.0,0.0
1583190826519,2649992.0,2572157.0,0.0
1583190826567,2627900.0,2550625.0,0.0
1583190826615,2598078.0,2524448.0,0.0
1583190826664,2583529.0,2512349.0,0.0
1583190826711,2564685.0,2494281.0,0.0
1583190826762,2568405.0,2506709.0,0.0
1583190826812,2577767.0,2509633.0,0.0
1583190826861,2525234.0,2450891.0,0.0
1583190826908,2503909.0,2421648.0,0.0
1583190826955,2512871.0,2425132.0,0.0
1583190827006,2554522.0,2457311.0,0.0
1583190827051,2587383.0,2478197.0,0.0
1583190827103,2600147.0,2489094.0,0.0
1583190827152,2591837.0,2493214.0,0.0
1583190827201,2602201.0,2506654.0,0.0
1583190827249,2612624.0,2517310.0,0.0
1583190827294,2612390.0,2520122.0,0.0
1583190827347,2541732.0,2457222.0,0.0
1583190827393,2474150.0,2396962.0,0.0
1583190827444,2444956.0,2375342.0,0.0
1583190827492,2444109.0,2379292.0,0.0
1583190827542,2454424.0,2388565.0,0.0
1583190827585,2447849.0,2381194.0,0.0
1583190827635,2436386.0,2369416.0,0.0
1583190827684,2439428.0,2371736.0,0.0
1583190827732,2455564.0,2384753.0,0.0
1583190827782,2468809.0,2395020.0,0.0
1583190827835,2470588.0,2397531.0,0.0
1583190827883,2431485.0,2361752.0,0.0
1583190827932,2425604.0,2354941.0,0.0
1583190827976,2448010.0,2370820.0,0.0
1583190828029,2476804.0,2398132.0,0.0
1583190828075,2504716.0,2424852.0,0.0
1583190828126,2531911.0,2448743.0,0.0
1583190828178,2557289.0,2470779.0,0.0
1583190828224,2590417.0,2497771.0,0.0
1583190828274,2612089.0,2519356.0,0.0
1583190828321,2640804.0,2539532.0,0.0
1583190828371,2608256.0,2512800.0,0.0
1583190828414,2570626.0,2477157.0,0.0
1583190828467,2573980.0,2480341.0,0.0
1583190828518,2604869.0,2507087.0,0.0
1583190828565,2627328.0,2526638.0,0.0
1583190828618,2629221.0,2530478.0,0.0
1583190828663,2625359.0,2531909.0,0.0
1583190828711,2611076.0,2524838.0,0.0
1583190828756,2609556.0,2525551.0,0.0
1583190828808,2603808.0,2519247.0,0.0
1583190828852,2546413.0,2471123.0,0.0
1583190828906,2531736.0,2462848.0,0.0
1583190828959,2627553.0,2562253.0,0.0
1583190829003,2829889.0,2745146.0,0.0
1583190829053,3087112.0,2959869.0,0.0
1583190829095,3287948.0,3113226.0,0.0
1583190829151,3493579.0,3248684.0,0.0
1583190829193,3647823.0,3360231.0,0.0
1583190829247,3792377.0,3466213.0,0.0
1583190829296,3878859.0,3546237.0,0.0
1583190829344,3985751.0,3603986.0,0.0
1583190829393,4042900.0,3606511.0,0.0
1583190829441,4121457.0,3693844.0,0.0
1583190829489,4245644.0,3791402.0,0.0
1583190829533,4324167.0,3870264.0,0.0
1583190829583,4390298.0,3924685.0,0.0
1583190829637,4443016.0,3958337.0,0.0
1583190829685,4471438.0,3979881.0,0.0
1583190829735,4468778.0,3962264.0,0.0
1583190829782,4447914.0,3928484.0,0.0
1583190829831,4422597.0,3867095.0,0.0
1583190829874,4326164.0,3729808.0,0.0
1583190829925,4265207.0,3668455.0,0.0
1583190829973,4308075.0,3678145.0,0.0
1583190830021,4334998.0,3721815.0,0.0
1583190830071,4365860.0,3746939.0,0.0
1583190830118,4290090.0,3678199.0,0.0
1583190830169,4160871.0,3596649.0,0.0
1583190830215,4035815.0,3523707.0,0.0
1583190830265,3932862.0,3468643.0,0.0
1583190830313,3823309.0,3402656.0,0.0
1583190830362,3607574.0,3253111.0,0.0
1583190830412,3419674.0,3140368.0,0.0
1583190830459,3318761.0,3097778.0,0.0
1583190830508,3262504.0,3077152.0,0.0
1583190830556,3215768.0,3055573.0,0.0
1583190830606,3174954.0,3035158.0,0.0
1583190830653,3143503.0,3014737.0,0.0
1583190830703,3110786.0,2989586.0,0.0
1583190830753,3075760.0,2959624.0,0.0
1583190830800,3028043.0,2912073.0,0.0
1583190830850,3019873.0,2824699.0,0.0
1583190830902,3009176.0,2770387.0,0.0
1583190830952,2978992.0,2758048.0,0.0
1583190831000,2975209.0,2761181.0,0.0
1583190831043,2948431.0,2745392.0,0.0
1583190831098,2900394.0,2705747.0,0.0
1583190831142,2852979.0,2670537.0,0.0
1583190831196,3005905.0,2702311.0,0.0
1583190831238,3075417.0,2736680.0,0.0
1583190831292,3109201.0,2773282.0,0.0
1583190831339,3073814.0,2731097.0,0.0
1583190831390,3021769.0,2691443.0,0.0
1583190831435,3001459.0,2702407.0,0.0
1583190831487,3040158.0,2736593.0,0.0
1583190831536,3085886.0,2764712.0,0.0
1583190831584,3083026.0,2763550.0,0.0
1583190831634,3100710.0,2767977.0,0.0
1583190831682,3114855.0,2780001.0,0.0
1583190831731,3106659.0,2780460.0,0.0
1583190831778,3082749.0,2763747.0,0.0
1583190831827,3004830.0,2706891.0,0.0
1583190831877,2897920.0,2626476.0,0.0
1583190831925,2807241.0,2562165.0,0.0
1583190831974,2758761.0,2533510.0,0.0
1583190832022,2736002.0,2529649.0,0.0
1583190832071,2732227.0,2538402.0,0.0
1583190832117,2737235.0,2549928.0,0.0
1583190832168,2745640.0,2560030.0,0.0
1583190832219,2753542.0,2562732.0,0.0
1583190832266,2738828.0,2540667.0,0.0
1583190832309,2664592.0,2472525.0,0.0
1583190832363,2545718.0,2375891.0,0.0
1583190832413,2526348.0,2371401.0,0.0
1583190832457,2585634.0,2418891.0,0.0
1583190832510,2608136.0,2467309.0,0.0
1583190832557,2775035.0,2548114.0,0.0
1583190832606,2969297.0,2624408.0,0.0
1583190832656,3126588.0,2673280.0,0.0
1583190832704,3194573.0,2684210.0,0.0
1583190832754,3193092.0,2692327.0,0.0
1583190832796,3182175.0,2697295.0,0.0
1583190832851,3014414.0,2620700.0,0.0
1583190832897,2886649.0,2577489.0,0.0
1583190832948,2820228.0,2564347.0,0.0
1583190832998,2754297.0,2539806.0,0.0
1583190833045,2704705.0,2521368.0,0.0
1583190833093,2685287.0,2528924.0,0.0
1583190833140,2697530.0,2549928.0,0.0
1583190833191,2708681.0,2557251.0,0.0
1583190833237,2694883.0,2541811.0,0.0
1583190833287,2663749.0,2511043.0,0.0
1583190833337,2564451.0,2425967.0,0.0
1583190833385,2496235.0,2368150.0,0.0
1583190833434,2490859.0,2376240.0,0.0
1583190833480,2508704.0,2395725.0,0.0
1583190833532,2528489.0,2423119.0,0.0
1583190833578,2569059.0,2478780.0,0.0
1583190833628,2642251.0,2554191.0,0.0
1583190833678,2691096.0,2606212.0,0.0
1583190833727,2708433.0,2627043.0,0.0
1583190833776,2715201.0,2642147.0,0.0
1583190833824,2729197.0,2659100.0,0.0
1583190833873,2670510.0,2601721.0,0.0
1583190833919,2659955.0,2573149.0,0.0
1583190833970,2656794.0,2554526.0,0.0
1583190834019,2610576.0,2515380.0,0.0
1583190834067,2626121.0,2553295.0,0.0
1583190834116,2642263.0,2584112.0,0.0
1583190834164,2669070.0,2603316.0,0.0
1583190834214,2656440.0,2591203.0,0.0
1583190834258,2669070.0,2598566.0,0.0
1583190834306,2673972.0,2602181.0,0.0
1583190834358,2606494.0,2531874.0,0.0
1583190834401,2551328.0,2472443.0,0.0
1583190834451,2578436.0,2471060.0,0.0
1583190834498,2593491.0,2516441.0,0.0
1583190834548,2672251.0,2588308.0,0.0
1583190834599,2774456.0,2687008.0,0.0
1583190834651,2936342.0,2833808.0,0.0
1583190834698,2988621.0,2927575.0,0.0
1583190834749,3082837.0,3018262.0,0.0
1583190834798,3210689.0,3099578.0,0.0
1583190834847,3273165.0,3137548.0,0.0
1583190834895,3252845.0,3096588.0,0.0
1583190834939,3140425.0,3002540.0,0.0
1583190834995,3011614.0,2920513.0,0.0
1583190835039,2975691.0,2909220.0,0.0
1583190835091,2952200.0,2902375.0,0.0
1583190835138,2962868.0,2907605.0,0.0
1583190835187,2975804.0,2916213.0,0.0
1583190835237,3091646.0,3013252.0,0.0
1583190835285,3249993.0,3121048.0,0.0
1583190835335,3270377.0,3117291.0,0.0
1583190835379,3244017.0,3101557.0,0.0
1583190835431,3306900.0,3145965.0,0.0
1583190835479,3357279.0,3194290.0,0.0
1583190835528,3387587.0,3202797.0,0.0
1583190835577,3383911.0,3245612.0,0.0
1583190835625,3520912.0,3394716.0,0.0
1583190835675,3655377.0,3505968.0,0.0
1583190835717,3743652.0,3498420.0,0.0
1583190835773,3689825.0,3447086.0,0.0
1583190835820,3648243.0,3432439.0,0.0
1583190835869,3527793.0,3337654.0,0.0
1583190835918,3448033.0,3284163.0,0.0
1583190835967,3432043.0,3284937.0,0.0
1583190836016,3516596.0,3358370.0,0.0
1583190836058,3668181.0,3487437.0,0.0
1583190836114,3775701.0,3549907.0,0.0
1583190836160,3884867.0,3585911.0,0.0
1583190836210,4006471.0,3673793.0,0.0
1583190836258,4098432.0,3746425.0,0.0
1583190836303,4119023.0,3760948.0,0.0
1583190836356,4098616.0,3693017.0,0.0
1583190836398,4018432.0,3668768.0,0.0
1583190836454,3996838.0,3703495.0,0.0
1583190836500,4001881.0,3664012.0,0.0
1583190836551,3928259.0,3616203.0,0.0
1583190836599,3885893.0,3605355.0,0.0
1583190836649,3868535.0,3601221.0,0.0
1583190836697,3848486.0,3590593.0,0.0
1583190836742,3851211.0,3613102.0,0.0
1583190836794,3906295.0,3672964.0,0.0
1583190836841,3984524.0,3726715.0,0.0
1583190836892,3958702.0,3643304.0,0.0
1583190836940,3983299.0,3637554.0,0.0
1583190836984,4071224.0,3695077.0,0.0
1583190837038,4146275.0,3750580.0,0.0
1583190837081,4198170.0,3766936.0,0.0
1583190837132,4175997.0,3768080.0,0.0
1583190837180,4144002.0,3775703.0,0.0
1583190837232,4130771.0,3738158.0,0.0
1583190837279,4083120.0,3651153.0,0.0
1583190837330,3994918.0,3593138.0,0.0
1583190837378,3862109.0,3484241.0,0.0
1583190837426,3735734.0,3388982.0,0.0
1583190837472,3645350.0,3334444.0,0.0
1583190837522,3613773.0,3342547.0,0.0
1583190837575,3629897.0,3359087.0,0.0
1583190837622,3653916.0,3393724.0,0.0
1583190837669,3646004.0,3384382.0,0.0
1583190837719,3730273.0,3444073.0,0.0
1583190837768,3816708.0,3527218.0,0.0
1583190837816,3879659.0,3585548.0,0.0
1583190837861,3899885.0,3607757.0,0.0
1583190837915,3846269.0,3549659.0,0.0
1583190837963,3738847.0,3484753.0,0.0
1583190838011,3716473.0,3440822.0,0.0
1583190838060,3614529.0,3350389.0,0.0
1583190838104,3551652.0,3316014.0,0.0
1583190838158,3515093.0,3284026.0,0.0
1583190838201,3513305.0,3267252.0,0.0
1583190838257,3493221.0,3255214.0,0.0
1583190838301,3545067.0,3309889.0,0.0
1583190838353,3596995.0,3356741.0,0.0
1583190838400,3527927.0,3270735.0,0.0
1583190838450,3497457.0,3266513.0,0.0
1583190838497,3642884.0,3354319.0,0.0
1583190838543,3758277.0,3390138.0,0.0
1583190838596,3817547.0,3403517.0,0.0
1583190838642,3786103.0,3454894.0,0.0
1583190838693,3804208.0,3482906.0,0.0
1583190838741,3845481.0,3451808.0,0.0
1583190838790,3766733.0,3367773.0,0.0
1583190838839,3718511.0,3343896.0,0.0
1583190838883,3700542.0,3313611.0,0.0
1583190838937,3640736.0,3239001.0,0.0
1583190838982,3545075.0,3179672.0,0.0
1583190839034,3579806.0,3250415.0,0.0
1583190839076,3649672.0,3341677.0,0.0
1583190839125,3734300.0,3362858.0,0.0
1583190839176,3806514.0,3403983.0,0.0
1583190839223,3883845.0,3484773.0,0.0
1583190839274,3975330.0,3572579.0,0.0
1583190839323,4034413.0,3618454.0,0.0
1583190839375,4042912.0,3659304.0,0.0
1583190839423,4022729.0,3617214.0,0.0
1583190839472,3927409.0,3466686.0,0.0
1583190839520,3749989.0,3305612.0,0.0
1583190839568,3646248.0,3238206.0,0.0
1583190839618,3647532.0,3238741.0,0.0
1583190839662,3702489.0,3250655.0,0.0
1583190839716,3657782.0,3223677.0,0.0
1583190839763,3656366.0,3263699.0,0.0
1583190839814,3702070.0,3332896.0,0.0
1583190839862,3750952.0,3343819.0,0.0
1583190839911,3722144.0,3367677.0,0.0
1583190839959,3868334.0,3450404.0,0.0
1583190840021,3956085.0,3493260.0,0.0
1583190840051,3958182.0,3468842.0,0.0
1583190840098,3923644.0,3475856.0,0.0
1583190840154,3975505.0,3543842.0,0.0
1583190840201,3965941.0,3518281.0,0.0
1583190840252,3898292.0,3424918.0,0.0
1583190840299,3809871.0,3370498.0,0.0
1583190840343,3823528.0,3395334.0,0.0
1583190840397,3808889.0,3401957.0,0.0
1583190840445,3695467.0,3308978.0,0.0
1583190840495,3640133.0,3307268.0,0.0
1583190840542,3733605.0,3395100.0,0.0
1583190840593,3774955.0,3412414.0,0.0
1583190840639,3747716.0,3392115.0,0.0
1583190840686,3827907.0,3470567.0,0.0
1583190840737,3891338.0,3548641.0,0.0
1583190840785,3934356.0,3554245.0,0.0
1583190840834,3939709.0,3549817.0,0.0
1583190840883,4040370.0,3720378.0,0.0
1583190840935,4015437.0,3616654.0,0.0
1583190840981,4086485.0,3516830.0,0.0
1583190841029,4029179.0,3457891.0,0.0
1583190841079,4131602.0,3534468.0,0.0
1583190841127,4244796.0,3635632.0,0.0
1583190841176,4392874.0,3783135.0,0.0
1583190841223,4433804.0,3844764.0,0.0
1583190841274,4373520.0,3818327.0,0.0
1583190841317,4363469.0,3819073.0,0.0
1583190841367,4551060.0,3852353.0,0.0
1583190841420,4639280.0,3922153.0,0.0
1583190841465,4726024.0,3940979.0,0.0
1583190841516,4712273.0,3921119.0,0.0
1583190841565,4675805.0,3855577.0,0.0
1583190841608,4647820.0,3860429.0,0.0
1583190841656,4604027.0,3909711.0,0.0
1583190841706,4673917.0,3980777.0,0.0
1583190841753,4676536.0,3874911.0,0.0
1583190841803,4625479.0,3821795.0,0.0
1583190841850,4664220.0,3865973.0,0.0
1583190841901,4672987.0,3869559.0,0.0
1583190841956,4606025.0,3758614.0,0.0
1583190842003,4488752.0,3716333.0,0.0
1583190842055,4515431.0,3789096.0,0.0
1583190842101,4519893.0,3796016.0,0.0
1583190842144,4590169.0,3830460.0,0.0
1583190842199,4626931.0,3860608.0,0.0
1583190842247,4635648.0,3911202.0,0.0
1583190842296,4620245.0,3889070.0,0.0
1583190842345,4640755.0,3889091.0,0.0
1583190842388,4617929.0,4012909.0,0.0
1583190842441,4628851.0,4044143.0,0.0
1583190842490,4602459.0,3843600.0,0.0
1583190842539,4377094.0,3686550.0,0.0
1583190842587,4252523.0,3626591.0,0.0
1583190842632,4211332.0,3629582.0,0.0
1583190842685,4178019.0,3624695.0,0.0
1583190842734,4159664.0,3624990.0,0.0
1583190842783,4171735.0,3622369.0,0.0
1583190842826,4218916.0,3598183.0,0.0
1583190842874,4465810.0,3715397.0,0.0
1583190842926,4580061.0,3807451.0,0.0
1583190842971,4594834.0,3899103.0,0.0
1583190843026,4609381.0,3887351.0,0.0
1583190843076,4521906.0,3763714.0,0.0
1583190843123,4409090.0,3647341.0,0.0
1583190843175,4185864.0,3423666.0,0.0
1583190843221,4224991.0,3369799.0,0.0
1583190843267,4383494.0,3424172.0,0.0
1583190843314,4571444.0,3560364.0,0.0
1583190843368,4678944.0,3648635.0,0.0
1583190843416,4617736.0,3631697.0,0.0
1583190843464,4517713.0,3544718.0,0.0
1583190843514,4481942.0,3470114.0,0.0
1583190843562,4530883.0,3416220.0,0.0
1583190843607,4748556.0,3638519.0,0.0
1583190843659,4951271.0,3927531.0,0.0
1583190843707,5138492.0,4172239.0,0.0
1583190843758,5276720.0,4266914.0,0.0
1583190843806,5499753.0,4498968.0,0.0
1583190843854,5576890.0,4853873.0,0.0
1583190843902,5637847.0,4834539.0,0.0
1583190843947,5802467.0,4873467.0,0.0
1583190844000,5844632.0,4917130.0,0.0
1583190844049,5890358.0,4959250.0,0.0
1583190844094,5922921.0,4995187.0,0.0
1583190844143,5956311.0,5021155.0,0.0
1583190844192,5994959.0,5114278.0,0.0
1583190844239,6022966.0,5040400.0,0.0
1583190844294,5987464.0,4773294.0,0.0
1583190844340,6011513.0,4774985.0,0.0
1583190844388,5985257.0,4741857.0,0.0
1583190844438,5903077.0,4623437.0,0.0
1583190844486,5667799.0,4392311.0,0.0
1583190844536,5504570.0,4303408.0,0.0
1583190844584,5471882.0,4350140.0,0.0
1583190844631,5414306.0,4361374.0,0.0
1583190844681,5462089.0,4297197.0,0.0
1583190844731,5330813.0,4206917.0,0.0
1583190844779,5192212.0,4144581.0,0.0
1583190844828,5111783.0,4126947.0,0.0
1583190844877,4998690.0,4045507.0,0.0
1583190844924,4794010.0,3923707.0,0.0
1583190844971,4722074.0,3917986.0,0.0
1583190845021,4658098.0,3897281.0,0.0
1583190845068,4921033.0,4096199.0,0.0
1583190845120,5006029.0,4290606.0,0.0
1583190845169,5100058.0,4381848.0,0.0
1583190845217,4994925.0,4296618.0,0.0
1583190845266,5011760.0,4330975.0,0.0
1583190845311,4997729.0,4309390.0,0.0
1583190845363,4933233.0,4145261.0,0.0
1583190845409,4628981.0,3932958.0,0.0
1583190845461,4501753.0,3885437.0,0.0
1583190845509,4446327.0,3895909.0,0.0
1583190845560,4603552.0,4152382.0,0.0
1583190845607,4643250.0,4227592.0,0.0
1583190845655,4759263.0,4388020.0,0.0
1583190845704,4965380.0,4548518.0,0.0
1583190845752,5067572.0,4485473.0,0.0
1583190845802,5229287.0,4572806.0,0.0
1583190845851,5239068.0,4514730.0,0.0
1583190845900,5131142.0,4333687.0,0.0
1583190845948,4915900.0,4207845.0,0.0
1583190845997,4802818.0,4164705.0,0.0
1583190846046,4817267.0,4279434.0,0.0
1583190846093,5013558.0,4535066.0,0.0
1583190846141,4885936.0,4356372.0,0.0
1583190846190,4934048.0,4306279.0,0.0
1583190846240,4816024.0,4206825.0,0.0
1583190846289,4717935.0,4140440.0,0.0
1583190846338,4648838.0,4101451.0,0.0
1583190846385,4586569.0,4074904.0,0.0
1583190846432,4523576.0,4092897.0,0.0
1583190846483,4551346.0,4152502.0,0.0
1583190846533,4591522.0,4146641.0,0.0
1583190846581,4655270.0,4174427.0,0.0
1583190846630,4664600.0,4196152.0,0.0
1583190846679,4669541.0,4255498.0,0.0
1583190846726,4647084.0,4228872.0,0.0
1583190846771,4658301.0,4211858.0,0.0
1583190846824,4715538.0,4306620.0,0.0
1583190846871,4569858.0,4138910.0,0.0
1583190846921,4510833.0,4064132.0,0.0
1583190846972,4406808.0,4008557.0,0.0
1583190847015,4350906.0,3983400.0,0.0
1583190847067,4330112.0,3971758.0,0.0
1583190847111,4286195.0,3937909.0,0.0
1583190847166,4276719.0,3964137.0,0.0
1583190847216,4257001.0,3935309.0,0.0
1583190847263,4338322.0,3926698.0,0.0
1583190847311,4476472.0,3960706.0,0.0
1583190847361,4515844.0,3982640.0,0.0
1583190847408,4474447.0,3968737.0,0.0
1583190847456,4430565.0,3962926.0,0.0
1583190847502,4429988.0,3970178.0,0.0
1583190847553,4378971.0,3856520.0,0.0
1583190847599,4281220.0,3703673.0,0.0
1583190847651,4317222.0,3689469.0,0.0
1583190847697,4538140.0,3751484.0,0.0
1583190847747,4693680.0,3844526.0,0.0
1583190847795,4693873.0,3854350.0,0.0
1583190847847,4798894.0,4064132.0,0.0
1583190847896,4944790.0,4235643.0,0.0
1583190847937,5135993.0,4311261.0,0.0
1583190847996,5002534.0,4316643.0,0.0
1583190848042,5330826.0,4624097.0,0.0
1583190848093,5399889.0,4734275.0,0.0
1583190848135,5354707.0,4675730.0,0.0
1583190848188,5382375.0,4777254.0,0.0
1583190848235,5468806.0,4950107.0,0.0
1583190848285,5508608.0,5141174.0,0.0
1583190848339,5680408.0,5285879.0,0.0
1583190848382,5727534.0,5385654.0,0.0
1583190848433,5769179.0,5445508.0,0.0
1583190848477,5756674.0,5407319.0,0.0
1583190848529,5748894.0,5408540.0,0.0
1583190848573,5702897.0,5448659.0,0.0
1583190848622,5749357.0,5557995.0,0.0
1583190848678,5860845.0,5626512.0,0.0
1583190848723,5803881.0,5469043.0,0.0
1583190848774,5785541.0,5492319.0,0.0
1583190848821,5746068.0,5470425.0,0.0
1583190848870,5732240.0,5488069.0,0.0
1583190848913,5766217.0,5510294.0,0.0
1583190848967,5832781.0,5623582.0,0.0
1583190849015,5919099.0,5662092.0,0.0
1583190849064,5999947.0,5637625.0,0.0
1583190849112,6017336.0,5671143.0,0.0
1583190849160,6015776.0,5658209.0,0.0
1583190849211,6037587.0,5748112.0,0.0
1583190849254,6087100.0,5798144.0,0.0
1583190849307,6114169.0,5818558.0,0.0
1583190849358,6122957.0,5789112.0,0.0
1583190849404,6086840.0,5810606.0,0.0
1583190849453,6165820.0,5779480.0,0.0
1583190849502,6125535.0,5672874.0,0.0
1583190849552,6096339.0,5674743.0,0.0
1583190849599,6109557.0,5709153.0,0.0
1583190849649,6116614.0,5595424.0,0.0
1583190849694,6119564.0,5453320.0,0.0
1583190849744,6124019.0,5281017.0,0.0
1583190849795,6093468.0,5272285.0,0.0
1583190849842,6027853.0,5222603.0,0.0
1583190849892,6000229.0,5088002.0,0.0
1583190849939,5890822.0,5036249.0,0.0
1583190849985,5786457.0,4922680.0,0.0
1583190850035,5707284.0,4813344.0,0.0
1583190850086,5534726.0,4440003.0,0.0
1583190850139,5239554.0,4138309.0,0.0
1583190850183,5129118.0,3984542.0,0.0
1583190850233,5013152.0,3993543.0,0.0
1583190850280,5042188.0,4077293.0,0.0
1583190850326,5190956.0,4241123.0,0.0
1583190850373,5337055.0,4394441.0,0.0
1583190850427,5199776.0,4291157.0,0.0
1583190850476,5267437.0,4158504.0,0.0
1583190850524,4863784.0,3826513.0,0.0
1583190850573,4652162.0,3692241.0,0.0
1583190850622,4523700.0,3619283.0,0.0
1583190850670,4442065.0,3600757.0,0.0
1583190850718,4395761.0,3614910.0,0.0
1583190850768,4445785.0,3687009.0,0.0
1583190850815,4443058.0,3736391.0,0.0
1583190850861,4432611.0,3775620.0,0.0
1583190850910,4560054.0,3858941.0,0.0
1583190850958,4603971.0,3884586.0,0.0
1583190851008,4603416.0,3874454.0,0.0
1583190851056,4538298.0,3821062.0,0.0
1583190851105,4557962.0,3836505.0,0.0
1583190851154,4573996.0,3973688.0,0.0
1583190851202,4531220.0,4001515.0,0.0
1583190851252,4659659.0,4075044.0,0.0
1583190851299,4670874.0,4007558.0,0.0
1583190851349,4645331.0,3960886.0,0.0
1583190851397,4639894.0,3930168.0,0.0
1583190851446,4571473.0,3836056.0,0.0
1583190851494,4448101.0,3755146.0,0.0
1583190851543,4414632.0,3799285.0,0.0
1583190851592,4467437.0,3862152.0,0.0
1583190851639,4489927.0,3871483.0,0.0
1583190851689,4490412.0,3905682.0,0.0
1583190851737,4493771.0,3939740.0,0.0
1583190851786,4510833.0,3979450.0,0.0
1583190851839,4526799.0,4003616.0,0.0
1583190851887,4568850.0,4043686.0,0.0
1583190851938,4518160.0,4086546.0,0.0
1583190851980,4582430.0,4114413.0,0.0
1583190852034,4619270.0,4009276.0,0.0
1583190852081,4534727.0,3931428.0,0.0
1583190852132,4493240.0,3909313.0,0.0
1583190852176,4502660.0,3927998.0,0.0
1583190852228,4489191.0,3912433.0,0.0
1583190852279,4442640.0,3905552.0,0.0
1583190852322,4442268.0,3968148.0,0.0
1583190852375,4484217.0,3970958.0,0.0
1583190852423,4500193.0,3930079.0,0.0
1583190852473,4490628.0,3932558.0,0.0
1583190852516,4563661.0,4029813.0,0.0
1583190852571,4573464.0,4080485.0,0.0
1583190852617,4624176.0,4132758.0,0.0
1583190852660,4634579.0,4195232.0,0.0
1583190852709,4581266.0,4237232.0,0.0
1583190852760,4713207.0,4271272.0,0.0
1583190852811,4653100.0,4089977.0,0.0
1583190852858,4537711.0,3995633.0,0.0
1583190852905,4496859.0,3979670.0,0.0
1583190852957,4487237.0,3981210.0,0.0
1583190853007,4436727.0,3972658.0,0.0
1583190853056,4433302.0,4041445.0,0.0
1583190853106,4462360.0,4124785.0,0.0
1583190853154,4559770.0,4128266.0,0.0
1583190853199,4618240.0,4152192.0,0.0
1583190853251,4630078.0,4144810.0,0.0
1583190853297,4610326.0,4078955.0,0.0
1583190853349,4573657.0,4029212.0,0.0
1583190853398,4558742.0,4031683.0,0.0
1583190853439,4510281.0,4124556.0,0.0
1583190853494,4530328.0,4071302.0,0.0
1583190853542,4505543.0,4000796.0,0.0
1583190853593,4442040.0,3967108.0,0.0
1583190853636,4491420.0,4037753.0,0.0
1583190853684,4483425.0,3980871.0,0.0
1583190853741,4446689.0,3921806.0,0.0
1583190853787,4407226.0,3919126.0,0.0
1583190853837,4334510.0,3927598.0,0.0
1583190853885,4497005.0,4025841.0,0.0
1583190853933,4601144.0,4131837.0,0.0
1583190853977,4711976.0,4263419.0,0.0
1583190854031,4843737.0,4383189.0,0.0
1583190854078,4984059.0,4467730.0,0.0
1583190854128,5116962.0,4559542.0,0.0
1583190854178,5189577.0,4624497.0,0.0
1583190854219,5241025.0,4668157.0,0.0
1583190854269,5270389.0,4699656.0,0.0
1583190854316,5300646.0,4728673.0,0.0
1583190854367,5315120.0,4752599.0,0.0
1583190854418,5348181.0,4796409.0,0.0
1583190854469,5375681.0,4834919.0,0.0
1583190854518,5376473.0,4850362.0,0.0
1583190854567,5406380.0,4892993.0,0.0
1583190854616,5427332.0,4900246.0,0.0
1583190854664,5458289.0,4910817.0,0.0
1583190854713,5516692.0,4923280.0,0.0
1583190854758,5576573.0,4947006.0,0.0
1583190854810,5600014.0,4953587.0,0.0
1583190854859,5660269.0,5009641.0,0.0
1583190854908,5689057.0,4984866.0,0.0
1583190854958,5659343.0,4770074.0,0.0
1583190855000,5554956.0,4622088.0,0.0
1583190855055,5455678.0,4493586.0,0.0
1583190855098,5401778.0,4427879.0,0.0
1583190855154,5403824.0,4436372.0,0.0
1583190855199,5331403.0,4393801.0,0.0
1583190855251,5229265.0,4376096.0,0.0
1583190855298,5298429.0,4401202.0,0.0
1583190855347,5288651.0,4358223.0,0.0
1583190855396,5250783.0,4342448.0,0.0
1583190855444,5280916.0,4391931.0,0.0
1583190855494,5289723.0,4420228.0,0.0
1583190855543,5332939.0,4459077.0,0.0
1583190855592,5331311.0,4517172.0,0.0
1583190855639,5245094.0,4485213.0,0.0
1583190855688,5363965.0,4526264.0,0.0
1583190855738,5335539.0,4401834.0,0.0
1583190855786,5337055.0,4403703.0,0.0
1583190855834,5340300.0,4426199.0,0.0
1583190855878,5342437.0,4427950.0,0.0
1583190855933,5288435.0,4357282.0,0.0
1583190855980,5202377.0,4282103.0,0.0
1583190856029,5240153.0,4324945.0,0.0
1583190856078,5239509.0,4304589.0,0.0
1583190856123,5227331.0,4324295.0,0.0
1583190856176,5244155.0,4392100.0,0.0
1583190856218,5271462.0,4430730.0,0.0
1583190856274,5287665.0,4439363.0,0.0
1583190856320,5309466.0,4532106.0,0.0
1583190856371,5201032.0,4468240.0,0.0
1583190856419,5210597.0,4329606.0,0.0
1583190856467,5128586.0,4228660.0,0.0
1583190856516,5108087.0,4234073.0,0.0
1583190856560,5106289.0,4240473.0,0.0
1583190856617,5068669.0,4214737.0,0.0
1583190856660,5007656.0,4225430.0,0.0
1583190856706,4992674.0,4289635.0,0.0
1583190856759,5050715.0,4292457.0,0.0
1583190856803,5021576.0,4196022.0,0.0
1583190856857,5005362.0,4174837.0,0.0
1583190856902,5043624.0,4237474.0,0.0
1583190856955,5035552.0,4255518.0,0.0
1583190857000,5053529.0,4269171.0,0.0
1583190857046,5024877.0,4368396.0,0.0
1583190857100,4988277.0,4389741.0,0.0
1583190857150,5110144.0,4430110.0,0.0
1583190857198,5048689.0,4256237.0,0.0
1583190857245,4900104.0,4122896.0,0.0
1583190857297,4781062.0,4046516.0,0.0
1583190857345,4739679.0,4030693.0,0.0
1583190857393,4692211.0,4019770.0,0.0
1583190857440,4682158.0,4097578.0,0.0
1583190857491,4772085.0,4206535.0,0.0
1583190857538,4826867.0,4198924.0,0.0
1583190857588,4814327.0,4217768.0,0.0
1583190857636,4865084.0,4276563.0,0.0
1583190857683,4879140.0,4225861.0,0.0
1583190857735,4823159.0,4120634.0,0.0
1583190857781,4785438.0,4136478.0,0.0
1583190857832,4735709.0,4221748.0,0.0
1583190857879,4781084.0,4213237.0,0.0
1583190857929,4788106.0,4152923.0,0.0
1583190857978,4885495.0,4219028.0,0.0
1583190858020,5118805.0,4398762.0,0.0
1583190858075,5220898.0,4389601.0,0.0
1583190858124,5100600.0,4204836.0,0.0
1583190858172,4967958.0,4145011.0,0.0
1583190858220,4931254.0,4142130.0,0.0
1583190858270,5039926.0,4236533.0,0.0
1583190858317,5128699.0,4307301.0,0.0
1583190858361,5133787.0,4322604.0,0.0
1583190858415,5171937.0,4387809.0,0.0
1583190858463,5210416.0,4449304.0,0.0
1583190858514,5240029.0,4460797.0,0.0
1583190858561,5170084.0,4447725.0,0.0
1583190858611,5147696.0,4483673.0,0.0
1583190858655,5247526.0,4489715.0,0.0
1583190858704,5242754.0,4409705.0,0.0
1583190858758,5229604.0,4419208.0,0.0
1583190858802,5268987.0,4480022.0,0.0
1583190858855,5316431.0,4502038.0,0.0
1583190858902,5267923.0,4484183.0,0.0
1583190858945,5197108.0,4477582.0,0.0
1583190859000,5189871.0,4476332.0,0.0
1583190859050,5281131.0,4518162.0,0.0
1583190859098,5321961.0,4516122.0,0.0
1583190859144,5310677.0,4506069.0,0.0
1583190859195,5297842.0,4519072.0,0.0
1583190859244,5278315.0,4514771.0,0.0
1583190859288,5228732.0,4526464.0,0.0
1583190859336,5172831.0,4563033.0,0.0
1583190859385,5253089.0,4421678.0,0.0
1583190859439,5139114.0,4261629.0,0.0
1583190859482,5011433.0,4199105.0,0.0
1583190859537,4956627.0,4183060.0,0.0
1583190859584,4936094.0,4171826.0,0.0
1583190859634,4830124.0,4116634.0,0.0
1583190859682,4863175.0,4298008.0,0.0
1583190859731,4897718.0,4398082.0,0.0
1583190859779,5001754.0,4329656.0,0.0
1583190859828,4923408.0,4210637.0,0.0
1583190859878,4883833.0,4197284.0,0.0
1583190859924,4826258.0,4176548.0,0.0
1583190859975,4809986.0,4170888.0,0.0
1583190860023,4772616.0,4267010.0,0.0
1583190860075,4803858.0,4311361.0,0.0
1583190860122,4848713.0,4217669.0,0.0
1583190860169,4713921.0,4097789.0,0.0
1583190860217,4512111.0,3951634.0,0.0
1583190860265,4449639.0,3905432.0,0.0
1583190860317,4441272.0,3896559.0,0.0
1583190860363,4387474.0,3895080.0,0.0
1583190860414,4406300.0,3942771.0,0.0
1583190860461,4391747.0,3976009.0,0.0
1583190860506,4509104.0,4030612.0,0.0
1583190860559,4535495.0,4068861.0,0.0
1583190860605,4607498.0,4135879.0,0.0
1583190860657,4621744.0,4105110.0,0.0
1583190860705,4593397.0,4046356.0,0.0
1583190860754,4623928.0,4111162.0,0.0
1583190860802,4740571.0,4258998.0,0.0
1583190860852,4769958.0,4246204.0,0.0
1583190860899,4906774.0,4256487.0,0.0
1583190860943,4885835.0,4227220.0,0.0
1583190860997,4904277.0,4257948.0,0.0
1583190861048,4900161.0,4171166.0,0.0
1583190861096,4886603.0,4146281.0,0.0
1583190861144,4744415.0,4043266.0,0.0
1583190861195,4669009.0,4068102.0,0.0
1583190861241,4716487.0,4117103.0,0.0
1583190861284,4797673.0,4149942.0,0.0
1583190861334,4773599.0,4134968.0,0.0
1583190861386,4791578.0,4187871.0,0.0
1583190861436,4805904.0,4208997.0,0.0
1583190861485,4830984.0,4183450.0,0.0
1583190861533,4869790.0,4291636.0,0.0
1583190861582,4763751.0,4147171.0,0.0
1583190861633,4831244.0,4136179.0,0.0
1583190861680,4751947.0,4078214.0,0.0
1583190861726,4680192.0,4049497.0,0.0
1583190861777,4657826.0,4070442.0,0.0
1583190861825,4686071.0,4090327.0,0.0
1583190861875,4527207.0,3936150.0,0.0
1583190861923,4453067.0,3892508.0,0.0
1583190861975,4429773.0,3905233.0,0.0
1583190862021,4446417.0,3891559.0,0.0
1583190862064,4477433.0,3946741.0,0.0
1583190862120,4512948.0,4024051.0,0.0
1583190862167,4542380.0,4080294.0,0.0
1583190862217,4538219.0,4058589.0,0.0
1583190862265,4483120.0,4089228.0,0.0
1583190862314,4474855.0,4062780.0,0.0
1583190862361,4466340.0,4006798.0,0.0
1583190862407,4375736.0,3937950.0,0.0
1583190862459,4294777.0,3910972.0,0.0
1583190862508,4257566.0,3920595.0,0.0
1583190862557,4253155.0,3934789.0,0.0
1583190862606,4227512.0,3928638.0,0.0
1583190862649,4250329.0,3975440.0,0.0
1583190862702,4292370.0,3978859.0,0.0
1583190862752,4286782.0,3956364.0,0.0
1583190862800,4346778.0,3986243.0,0.0
1583190862850,4429456.0,4052447.0,0.0
1583190862898,4448678.0,4094317.0,0.0
1583190862946,4440299.0,4101499.0,0.0
1583190862996,4489790.0,4167877.0,0.0
1583190863044,4442979.0,4197014.0,0.0
1583190863093,4486977.0,4222780.0,0.0
1583190863141,4567346.0,4104590.0,0.0
1583190863187,4408720.0,3996745.0,0.0
1583190863238,4372400.0,3998425.0,0.0
1583190863287,4408380.0,4040055.0,0.0
1583190863332,4394246.0,4029242.0,0.0
1583190863386,4361953.0,4042185.0,0.0
1583190863434,4334579.0,4003746.0,0.0
1583190863483,4330780.0,4006497.0,0.0
1583190863529,4436524.0,4039375.0,0.0
1583190863581,4449661.0,4022121.0,0.0
1583190863627,4420331.0,4026621.0,0.0
1583190863672,4407680.0,4063321.0,0.0
1583190863720,4420591.0,4085577.0,0.0
1583190863777,4390786.0,4153864.0,0.0
1583190863823,4398724.0,4140639.0,0.0
1583190863870,4504829.0,4114413.0,0.0
1583190863920,4418466.0,4013238.0,0.0
1583190863970,4285177.0,3930579.0,0.0
1583190864018,4273204.0,3931558.0,0.0
1583190864068,4331582.0,3956374.0,0.0
1583190864115,4327952.0,3958704.0,0.0
1583190864166,4301494.0,3999366.0,0.0
1583190864213,4342064.0,4089728.0,0.0
1583190864262,4619891.0,4165697.0,0.0
1583190864307,4820083.0,4293367.0,0.0
1583190864359,4904299.0,4339957.0,0.0
1583190864409,4941228.0,4378437.0,0.0
1583190864458,5080474.0,4470909.0,0.0
1583190864505,5204502.0,4559061.0,0.0
1583190864549,5104333.0,4501508.0,0.0
1583190864603,5043332.0,4405373.0,0.0
1583190864650,5122131.0,4362733.0,0.0
1583190864700,5103971.0,4330365.0,0.0
1583190864750,5074663.0,4278924.0,0.0
1583190864799,5097187.0,4264149.0,0.0
1583190864846,5120603.0,4277942.0,0.0
1583190864890,4965436.0,4181010.0,0.0
1583190864945,4899866.0,4176757.0,0.0
1583190864996,4949855.0,4211636.0,0.0
1583190865041,5005937.0,4264470.0,0.0
1583190865089,4989080.0,4286756.0,0.0
1583190865140,4946192.0,4285265.0,0.0
1583190865188,4879026.0,4203776.0,0.0
1583190865238,4803518.0,4155804.0,0.0
1583190865286,4771825.0,4271622.0,0.0
1583190865330,4788841.0,4247895.0,0.0
1583190865382,4798657.0,4201555.0,0.0
1583190865429,4774347.0,4200135.0,0.0
1583190865480,4800386.0,4233803.0,0.0
1583190865530,4810686.0,4230721.0,0.0
1583190865579,4704761.0,4100870.0,0.0
1583190865626,4604818.0,4017359.0,0.0
1583190865670,4596384.0,4129237.0,0.0
1583190865718,4661400.0,4255118.0,0.0
1583190865770,4731966.0,4240294.0,0.0
1583190865814,4880351.0,4316653.0,0.0
1583190865871,5123724.0,4497316.0,0.0
1583190865919,5149222.0,4547169.0,0.0
1583190865967,5164046.0,4472870.0,0.0
1583190866015,5126631.0,4435411.0,0.0
1583190866065,4990266.0,4339738.0,0.0
1583190866112,5102490.0,4372236.0,0.0
1583190866162,5117041.0,4336566.0,0.0
1583190866211,5133415.0,4359153.0,0.0
1583190866260,5179944.0,4413927.0,0.0
1583190866309,5208641.0,4423399.0,0.0
1583190866351,5045908.0,4204615.0,0.0
1583190866399,4903066.0,4075954.0,0.0
1583190866452,4903440.0,4185610.0,0.0
1583190866496,5039542.0,4271051.0,0.0
1583190866552,5162565.0,4326324.0,0.0
1583190866596,5310053.0,4492765.0,0.0
1583190866647,5389848.0,4600571.0,0.0
1583190866693,5419077.0,4615655.0,0.0
1583190866746,5423114.0,4589139.0,0.0
1583190866793,5284738.0,4509659.0,0.0
1583190866844,5316319.0,4422859.0,0.0
1583190866895,5288334.0,4341239.0,0.0
1583190866942,5278033.0,4350201.0,0.0
1583190866986,5266025.0,4364615.0,0.0
1583190867033,5246531.0,4356662.0,0.0
1583190867090,5252975.0,4367705.0,0.0
1583190867133,5101834.0,4277802.0,0.0
1583190867187,5045479.0,4222360.0,0.0
1583190867233,5116702.0,4279383.0,0.0
1583190867283,5205564.0,4303260.0,0.0
1583190867332,5273780.0,4357443.0,0.0
1583190867377,5340040.0,4437501.0,0.0
1583190867429,5345265.0,4484994.0,0.0
1583190867473,5370875.0,4501008.0,0.0
1583190867526,5343534.0,4527185.0,0.0
1583190867576,5237235.0,4553620.0,0.0
1583190867624,5343467.0,4569014.0,0.0
1583190867673,5393907.0,4483122.0,0.0
1583190867721,5420570.0,4525693.0,0.0
1583190867766,5417957.0,4575817.0,0.0
1583190867813,5484092.0,4661877.0,0.0
1583190867867,5513051.0,4675671.0,0.0
1583190867913,5385778.0,4608814.0,0.0
1583190867965,5329852.0,4481913.0,0.0
1583190868018,5336636.0,4428361.0,0.0
1583190868062,5325974.0,4399343.0,0.0
1583190868114,5373521.0,4439913.0,0.0
1583190868156,5367970.0,4455917.0,0.0
1583190868208,5395197.0,4509080.0,0.0
1583190868253,5464305.0,4561302.0,0.0
1583190868299,5328337.0,4546299.0,0.0
1583190868359,5363933.0,4573255.0,0.0
1583190868403,5329095.0,4360413.0,0.0
1583190868453,5120841.0,4214188.0,0.0
1583190868497,5050693.0,4195563.0,0.0
1583190868550,5101608.0,4274352.0,0.0
1583190868592,5103315.0,4271232.0,0.0
1583190868646,5077071.0,4253307.0,0.0
1583190868697,5028563.0,4270910.0,0.0
1583190868743,5016001.0,4276443.0,0.0
1583190868791,5185901.0,4328915.0,0.0
1583190868841,5186196.0,4288426.0,0.0
1583190868891,5240029.0,4367305.0,0.0
1583190868933,5230169.0,4411426.0,0.0
1583190868983,5302251.0,4500217.0,0.0
1583190869037,5305476.0,4503649.0,0.0
1583190869085,5199912.0,4476732.0,0.0
1583190869133,5269688.0,4440423.0,0.0
1583190869182,5179739.0,4260089.0,0.0
1583190869232,5053202.0,4182200.0,0.0
1583190869279,5090968.0,4243425.0,0.0
1583190869328,5197525.0,4308870.0,0.0
1583190869376,5225567.0,4322673.0,0.0
1583190869426,5152400.0,4328435.0,0.0
1583190869475,5121690.0,4350561.0,0.0
1583190869522,5190402.0,4309040.0,0.0
1583190869574,5155080.0,4231001.0,0.0
1583190869621,5097967.0,4215468.0,0.0
1583190869670,5052308.0,4217648.0,0.0
1583190869712,5021045.0,4204995.0,0.0
1583190869766,5072006.0,4353771.0,0.0
1583190869816,5049652.0,4435801.0,0.0
1583190869863,5157091.0,4443154.0,0.0
1583190869914,5124142.0,4323514.0,0.0
1583190869962,5036615.0,4253496.0,0.0
1583190870005,5025058.0,4255567.0,0.0
1583190870055,5045615.0,4255297.0,0.0
1583190870107,5077422.0,4261510.0,0.0
1583190870158,4995896.0,4244315.0,0.0
1583190870205,5004525.0,4320963.0,0.0
1583190870254,5099471.0,4379989.0,0.0
1583190870302,5150002.0,4442073.0,0.0
1583190870346,5212237.0,4517971.0,0.0
1583190870398,5239759.0,4499858.0,0.0
1583190870448,5235484.0,4404053.0,0.0
1583190870495,5201891.0,4365795.0,0.0
1583190870541,5163570.0,4452807.0,0.0
1583190870594,5150273.0,4401684.0,0.0
1583190870643,5223419.0,4414726.0,0.0
1583190870693,5238694.0,4413527.0,0.0
1583190870739,5188152.0,4342540.0,0.0
1583190870790,5206334.0,4330916.0,0.0
1583190870835,5190820.0,4284745.0,0.0
1583190870886,5074153.0,4167336.0,0.0
1583190870936,5003958.0,4183399.0,0.0
1583190870979,4990063.0,4151092.0,0.0
1583190871033,5032917.0,4106652.0,0.0
1583190871081,5034658.0,4132717.0,0.0
1583190871133,5090153.0,4135037.0,0.0
1583190871178,5021937.0,4064501.0,0.0
1583190871227,4973305.0,4018190.0,0.0
1583190871277,4861681.0,4021020.0,0.0
1583190871325,4850149.0,4077553.0,0.0
1583190871369,4876698.0,4068601.0,0.0
1583190871415,4801054.0,4001525.0,0.0
1583190871468,4815798.0,4002255.0,0.0
1583190871515,4697039.0,3861871.0,0.0
1583190871564,4576958.0,3766198.0,0.0
1583190871615,4467992.0,3746043.0,0.0
1583190871665,4451403.0,3817041.0,0.0
1583190871714,4470954.0,3825082.0,0.0
1583190871763,4512247.0,3871134.0,0.0
1583190871809,4536263.0,3902642.0,0.0
1583190871856,4546507.0,3946522.0,0.0
1583190871903,4493387.0,3890939.0,0.0
1583190871956,4426674.0,3845837.0,0.0
1583190872002,4381198.0,3861152.0,0.0
1583190872052,4354139.0,3864793.0,0.0
1583190872099,4424628.0,3883097.0,0.0
1583190872150,4421180.0,3876175.0,0.0
1583190872197,4431492.0,3885978.0,0.0
1583190872246,4422536.0,3899530.0,0.0
1583190872295,4374674.0,3830964.0,0.0
1583190872342,4228167.0,3721157.0,0.0
1583190872392,4314780.0,3908662.0,0.0
1583190872440,4434342.0,3997175.0,0.0
1583190872490,4707124.0,4117065.0,0.0
1583190872538,4822424.0,4172438.0,0.0
1583190872587,5053214.0,4347499.0,0.0
1583190872636,5089655.0,4444954.0,0.0
1583190872684,5183845.0,4493876.0,0.0
1583190872733,5296304.0,4527524.0,0.0
1583190872786,5362043.0,4596400.0,0.0
1583190872835,5434918.0,4616015.0,0.0
1583190872881,5449742.0,4562432.0,0.0
1583190872932,5463560.0,4590589.0,0.0
1583190872978,5472424.0,4632320.0,0.0
1583190873028,5499719.0,4672329.0,0.0
1583190873078,5501212.0,4521713.0,0.0
1583190873128,5398725.0,4378467.0,0.0
1583190873175,5243625.0,4252168.0,0.0
1583190873222,5285822.0,4260169.0,0.0
1583190873273,5232792.0,4268611.0,0.0
1583190873317,5195343.0,4271002.0,0.0
1583190873370,5169767.0,4297148.0,0.0
1583190873419,5159533.0,4288245.0,0.0
1583190873467,5097549.0,4244414.0,0.0
1583190873516,5023250.0,4238573.0,0.0
1583190873565,5007995.0,4226720.0,0.0
1583190873614,4975217.0,4209536.0,0.0
1583190873659,4926256.0,4219459.0,0.0
1583190873711,4952173.0,4258688.0,0.0
1583190873762,4959420.0,4261380.0,0.0
1583190873809,4911886.0,4235733.0,0.0
1583190873859,4813005.0,4197284.0,0.0
1583190873900,4703654.0,4106831.0,0.0
1583190873956,4747706.0,4107962.0,0.0
1583190874002,4767855.0,4102249.0,0.0
1583190874054,4767166.0,4156403.0,0.0
1583190874100,4799380.0,4221779.0,0.0
1583190874150,4809059.0,4260729.0,0.0
1583190874198,4833572.0,4278804.0,0.0
1583190874240,4734002.0,4243655.0,0.0
1583190874296,4662146.0,4210966.0,0.0
1583190874340,4676811.0,4199375.0,0.0
1583190874394,4612213.0,4175518.0,0.0
1583190874440,4613491.0,4202634.0,0.0
1583190874491,4591555.0,4215698.0,0.0
1583190874539,4568330.0,4202774.0,0.0
1583190874588,4506221.0,4150952.0,0.0
1583190874637,4365232.0,4038985.0,0.0
1583190874684,4391328.0,4098600.0,0.0
1583190874734,4425250.0,4082866.0,0.0
1583190874777,4494913.0,4114043.0,0.0
1583190874832,4604944.0,4198964.0,0.0
1583190874879,4638128.0,4218719.0,0.0
1583190874929,4679094.0,4232992.0,0.0
1583190874978,4702421.0,4228191.0,0.0
1583190875022,4638683.0,4209726.0,0.0
1583190875075,4639463.0,4193282.0,0.0
1583190875117,4632431.0,4164506.0,0.0
1583190875173,4614621.0,4143209.0,0.0
1583190875222,4682780.0,4199554.0,0.0
1583190875269,4658958.0,4183419.0,0.0
1583190875318,4627332.0,4165306.0,0.0
1583190875367,4511648.0,4066432.0,0.0
1583190875416,4417154.0,3995615.0,0.0
1583190875458,4366939.0,3970537.0,0.0
1583190875512,4438932.0,3987352.0,0.0
1583190875563,4509013.0,4063110.0,0.0
1583190875611,4574967.0,4096459.0,0.0
1583190875659,4515289.0,4082234.0,0.0
1583190875708,4531740.0,4107802.0,0.0
1583190875750,4600387.0,4234752.0,0.0
1583190875798,4541216.0,4064851.0,0.0
1583190875848,4611557.0,4064410.0,0.0
1583190875899,4657239.0,4085085.0,0.0
1583190875948,4666839.0,4107461.0,0.0
1583190876000,4753542.0,4177708.0,0.0
1583190876048,4878734.0,4272751.0,0.0
1583190876098,4791838.0,4180549.0,0.0
1583190876141,4725059.0,4089858.0,0.0
1583190876196,4719835.0,4034214.0,0.0
1583190876239,4816906.0,4073894.0,0.0
1583190876293,4804185.0,4115474.0,0.0
1583190876341,4705214.0,4090296.0,0.0
1583190876391,4676618.0,4106601.0,0.0
1583190876439,4641013.0,4093269.0,0.0
1583190876482,4643896.0,4158524.0,0.0
1583190876531,4600137.0,4059420.0,0.0
1583190876580,4552738.0,3968928.0,0.0
1583190876631,4404772.0,3847277.0,0.0
1583190876680,4312484.0,3800836.0,0.0
1583190876730,4277252.0,3814060.0,0.0
1583190876776,4257893.0,3826373.0,0.0
1583190876826,4226448.0,3829784.0,0.0
1583190876875,4257464.0,3884407.0,0.0
1583190876923,4224560.0,3791223.0,0.0
1583190876973,4251901.0,3752874.0,0.0
1583190877019,4320308.0,3781741.0,0.0
1583190877073,4383402.0,3808168.0,0.0
1583190877121,4379682.0,3977699.0,0.0
1583190877172,4475940.0,4129946.0,0.0
1583190877220,4813198.0,4255187.0,0.0
1583190877269,4815741.0,4279493.0,0.0
1583190877316,4928609.0,4226901.0,0.0
1583190877366,4862474.0,4155773.0,0.0
1583190877414,4805248.0,4124155.0,0.0
1583190877464,4907284.0,4208217.0,0.0
1583190877512,5059500.0,4303979.0,0.0
1583190877560,5179107.0,4400753.0,0.0
1583190877609,5072221.0,4270000.0,0.0
1583190877657,4944371.0,4100910.0,0.0
1583190877701,5023713.0,4076194.0,0.0
1583190877757,5008030.0,4095609.0,0.0
1583190877802,5013627.0,4155723.0,0.0
1583190877853,5015617.0,4235253.0,0.0
1583190877901,5053236.0,4266869.0,0.0
1583190877952,5119156.0,4339057.0,0.0
1583190877999,5113378.0,4408214.0,0.0
1583190878046,5030532.0,4180770.0,0.0
1583190878097,5008652.0,4088448.0,0.0
1583190878146,4921213.0,4032253.0,0.0
1583190878193,4893149.0,4049377.0,0.0
1583190878242,4926098.0,4097999.0,0.0
1583190878292,4927014.0,4120555.0,0.0
1583190878339,4843997.0,4134859.0,0.0
1583190878387,4862531.0,4220509.0,0.0
1583190878438,4952320.0,4219859.0,0.0
1583190878482,5025229.0,4229402.0,0.0
1583190878535,5053700.0,4268802.0,0.0
1583190878583,5079287.0,4328196.0,0.0
1583190878633,5098691.0,4364245.0,0.0
1583190878680,5114599.0,4355701.0,0.0
1583190878729,5059431.0,4391661.0,0.0
1583190878778,5017268.0,4409486.0,0.0
1583190878822,5098804.0,4291336.0,0.0
1583190878875,5027262.0,4197353.0,0.0
1583190878923,5094552.0,4247976.0,0.0
1583190878973,5102852.0,4275982.0,0.0
1583190879021,5132306.0,4292597.0,0.0
1583190879071,5147605.0,4293497.0,0.0
1583190879119,5036795.0,4250207.0,0.0
1583190879163,5041353.0,4284235.0,0.0
1583190879217,5099652.0,4267381.0,0.0
1583190879268,5154694.0,4274161.0,0.0
1583190879315,5168987.0,4313232.0,0.0
1583190879356,5167878.0,4376328.0,0.0
1583190879411,5161344.0,4370685.0,0.0
1583190879459,5116635.0,4380499.0,0.0
1583190879506,5088276.0,4465188.0,0.0
1583190879557,5097774.0,4439133.0,0.0
1583190879604,5154198.0,4384428.0,0.0
1583190879654,5152670.0,4365795.0,0.0
1583190879702,5117076.0,4332657.0,0.0
1583190879754,5125953.0,4354452.0,0.0
1583190879800,5113581.0,4335248.0,0.0
1583190879844,5027592.0,4336028.0,0.0
1583190879898,5079027.0,4451644.0,0.0
1583190879946,5155134.0,4429580.0,0.0
1583190879990,5214667.0,4439202.0,0.0
1583190880044,5246045.0,4520362.0,0.0
1583190880090,5282860.0,4590559.0,0.0
1583190880143,5292755.0,4602343.0,0.0
1583190880189,5206265.0,4558181.0,0.0
1583190880239,5182498.0,4619656.0,0.0
1583190880286,5209715.0,4563642.0,0.0
1583190880336,5197582.0,4419779.0,0.0
1583190880385,5075748.0,4331136.0,0.0
1583190880433,5013355.0,4297108.0,0.0
1583190880482,4981888.0,4296947.0,0.0
1583190880528,4977026.0,4309481.0,0.0
1583190880580,4931990.0,4371516.0,0.0
1583190880625,4905248.0,4432751.0,0.0
1583190880677,4975148.0,4377467.0,0.0
1583190880725,4962281.0,4332917.0,0.0
1583190880775,4951789.0,4319963.0,0.0
1583190880822,4948837.0,4342308.0,0.0
1583190880874,4892743.0,4338907.0,0.0
1583190880921,4887078.0,4349561.0,0.0
1583190880964,4909828.0,4411345.0,0.0
1583190881018,5012112.0,4444633.0,0.0
1583190881069,4981097.0,4359133.0,0.0
1583190881116,4837124.0,4257318.0,0.0
1583190881165,4766703.0,4205915.0,0.0
1583190881213,4837044.0,4261479.0,0.0
1583190881261,5059612.0,4512160.0,0.0
1583190881305,5324381.0,4635680.0,0.0
1583190881354,5235427.0,4489685.0,0.0
1583190881405,5442133.0,4664328.0,0.0
1583190881456,5453608.0,4643482.0,0.0
1583190881505,5301042.0,4462118.0,0.0
1583190881554,5303168.0,4542988.0,0.0
1583190881602,5243501.0,4503348.0,0.0
1583190881651,5241205.0,4512071.0,0.0
1583190881699,5272007.0,4645603.0,0.0
1583190881746,5184885.0,4502397.0,0.0
1583190881797,5148340.0,4375836.0,0.0
1583190881840,5005125.0,4252336.0,0.0
1583190881890,5022978.0,4271492.0,0.0
1583190881938,5128462.0,4353601.0,0.0
1583190881989,5156175.0,4397852.0,0.0
1583190882036,5080236.0,4359623.0,0.0
1583190882085,4991589.0,4337308.0,0.0
1583190882134,5021903.0,4376968.0,0.0
1583190882187,5191533.0,4395073.0,0.0
1583190882235,5165007.0,4330896.0,0.0
1583190882284,5101720.0,4295157.0,0.0
1583190882334,5061321.0,4293518.0,0.0
1583190882381,5056491.0,4285576.0,0.0
1583190882428,5036672.0,4356142.0,0.0
1583190882478,5001776.0,4352292.0,0.0
1583190882526,5139023.0,4429620.0,0.0
1583190882577,5069110.0,4262448.0,0.0
1583190882625,4989758.0,4209326.0,0.0
1583190882674,4974980.0,4208765.0,0.0
1583190882721,4966826.0,4202865.0,0.0
1583190882768,4922786.0,4172168.0,0.0
1583190882820,4895772.0,4160024.0,0.0
1583190882868,4791860.0,4086416.0,0.0
1583190882917,4871938.0,4134377.0,0.0
1583190882966,4863774.0,4099399.0,0.0
1583190883016,4827400.0,4100931.0,0.0
1583190883062,4801968.0,4098228.0,0.0
1583190883107,4825218.0,4139030.0,0.0
1583190883161,4816963.0,4201344.0,0.0
1583190883209,4801879.0,4216037.0,0.0
1583190883258,4936569.0,4222080.0,0.0
1583190883306,4724821.0,4003315.0,0.0
1583190883352,4515403.0,3874834.0,0.0
1583190883405,4547921.0,3908843.0,0.0
1583190883453,4572887.0,3924947.0,0.0
1583190883502,4534296.0,3886657.0,0.0
1583190883549,4477275.0,3898051.0,0.0
1583190883600,4469495.0,3935250.0,0.0
1583190883649,4561954.0,3997324.0,0.0
1583190883698,4603383.0,4020859.0,0.0
1583190883746,4635438.0,4043245.0,0.0
1583190883796,4670230.0,4075373.0,0.0
1583190883844,4704615.0,4068272.0,0.0
1583190883888,4680937.0,4116213.0,0.0
1583190883940,4639215.0,4164766.0,0.0
1583190883988,4742042.0,4239853.0,0.0
1583190884039,4797356.0,4187221.0,0.0
1583190884088,4734557.0,4082846.0,0.0
1583190884137,4658052.0,4020051.0,0.0
1583190884185,4662745.0,4022771.0,0.0
1583190884229,4611275.0,3985361.0,0.0
1583190884282,4552025.0,3984912.0,0.0
1583190884329,4596565.0,4086806.0,0.0
1583190884379,4696927.0,4155873.0,0.0
1583190884429,4741081.0,4131947.0,0.0
1583190884478,4725195.0,4157943.0,0.0
1583190884526,4788809.0,4227401.0,0.0
1583190884574,4813582.0,4208077.0,0.0
1583190884623,4785076.0,4173137.0,0.0
1583190884669,4766012.0,4255108.0,0.0
1583190884720,4779773.0,4297337.0,0.0
1583190884770,4896780.0,4245315.0,0.0
1583190884818,4848227.0,4146220.0,0.0
1583190884866,4820977.0,4133388.0,0.0
1583190884915,4840742.0,4164256.0,0.0
1583190884963,4879061.0,4209265.0,0.0
1583190885010,4796474.0,4173488.0,0.0
1583190885056,4762146.0,4287085.0,0.0
1583190885110,4825532.0,4400733.0,0.0
1583190885160,4868760.0,4371945.0,0.0
1583190885208,4930056.0,4346390.0,0.0
1583190885257,4986242.0,4398293.0,0.0
1583190885306,5066839.0,4473971.0,0.0
1583190885350,5120739.0,4502278.0,0.0
1583190885402,5073838.0,4470330.0,0.0
1583190885451,5049301.0,4514620.0,0.0
1583190885500,5036761.0,4561572.0,0.0
1583190885549,5082205.0,4412635.0,0.0
1583190885597,5040176.0,4332647.0,0.0
1583190885646,5005090.0,4319142.0,0.0
1583190885692,5014849.0,4357343.0,0.0
1583190885743,5027919.0,4364604.0,0.0
1583190885792,4954717.0,4368125.0,0.0
1583190885841,5012847.0,4492066.0,0.0
1583190885890,5095084.0,4480453.0,0.0
1583190885939,5186366.0,4465859.0,0.0
1583190885982,5245354.0,4505709.0,0.0
1583190886030,5290107.0,4577997.0,0.0
1583190886083,5350274.0,4662538.0,0.0
1583190886131,5315651.0,4621287.0,0.0
1583190886181,5232658.0,4629678.0,0.0
1583190886231,5214679.0,4638260.0,0.0
1583190886279,5293196.0,4557620.0,0.0
1583190886327,5278791.0,4488634.0,0.0
1583190886379,5223430.0,4440602.0,0.0
1583190886425,5177760.0,4429700.0,0.0
1583190886473,5186003.0,4463699.0,0.0
1583190886522,5134409.0,4478372.0,0.0
1583190886572,5121633.0,4539997.0,0.0
1583190886618,5159625.0,4487245.0,0.0
1583190886669,5238367.0,4471641.0,0.0
1583190886712,5250127.0,4489014.0,0.0
1583190886766,5237349.0,4525954.0,0.0
1583190886815,5275296.0,4586548.0,0.0
1583190886863,5305362.0,4623118.0,0.0
1583190886916,5307217.0,4685283.0,0.0
1583190886954,5246882.0,4529525.0,0.0
1583190887010,5216794.0,4431481.0,0.0
1583190887054,5040176.0,4305590.0,0.0
1583190887103,4944020.0,4261339.0,0.0
1583190887154,4913446.0,4266841.0,0.0
1583190887200,4922231.0,4289125.0,0.0
1583190887248,4865922.0,4284125.0,0.0
1583190887294,4895886.0,4391801.0,0.0
1583190887344,4949040.0,4358473.0,0.0
1583190887392,5029254.0,4336497.0,0.0
1583190887441,5000161.0,4298719.0,0.0
1583190887495,5011693.0,4336938.0,0.0
1583190887544,5038321.0,4390460.0,0.0
1583190887597,5040731.0,4369915.0,0.0
1583190887642,4990470.0,4441283.0,0.0
1583190887691,4961095.0,4470091.0,0.0
1583190887738,5015921.0,4391970.0,0.0
1583190887788,4936602.0,4325605.0,0.0
1583190887832,4905746.0,4329715.0,0.0
1583190887885,4897729.0,4340498.0,0.0
1583190887937,4926405.0,4365525.0,0.0
1583190887978,4851777.0,4300548.0,0.0
1583190888033,4866511.0,4379188.0,0.0
1583190888078,4928394.0,4325575.0,0.0
1583190888129,5051347.0,4333606.0,0.0
1583190888172,5067607.0,4361224.0,0.0
1583190888227,5031854.0,4359554.0,0.0
1583190888278,4993556.0,4369885.0,0.0
1583190888323,5068862.0,4437231.0,0.0
1583190888372,5068308.0,4590880.0,0.0
1583190888421,5024855.0,4483074.0,0.0
1583190888471,5034624.0,4343159.0,0.0
1583190888513,4921417.0,4243965.0,0.0
1583190888568,4851586.0,4224780.0,0.0
1583190888614,4808165.0,4218219.0,0.0
1583190888665,4779355.0,4208396.0,0.0
1583190888714,4689113.0,4182020.0,0.0
1583190888762,4746496.0,4244585.0,0.0
1583190888812,4743669.0,4195453.0,0.0
1583190888860,4694381.0,4125996.0,0.0
1583190888909,4737111.0,4128877.0,0.0
1583190888954,4781889.0,4167606.0,0.0
1583190889006,4743342.0,4177678.0,0.0
1583190889055,4729175.0,4179258.0,0.0
1583190889098,4744145.0,4252688.0,0.0
1583190889153,4702545.0,4191872.0,0.0
1583190889201,4714215.0,4129907.0,0.0
1583190889249,4699198.0,4045866.0,0.0
1583190889293,4696259.0,4026571.0,0.0
1583190889347,4707374.0,4048648.0,0.0
1583190889394,4691951.0,4043215.0,0.0
1583190889444,4599233.0,3968867.0,0.0
1583190889494,4542776.0,3976240.0,0.0
1583190889542,4565922.0,4052699.0,0.0
1583190889592,4633945.0,4082145.0,0.0
1583190889637,4769314.0,4137679.0,0.0
1583190889688,4847140.0,4210976.0,0.0
1583190889736,4934521.0,4281784.0,0.0
1583190889785,5005553.0,4373136.0,0.0
1583190889835,4999980.0,4358503.0,0.0
1583190889882,5005305.0,4401314.0,0.0
1583190889933,4927817.0,4398183.0,0.0
1583190889976,4975658.0,4331796.0,0.0
1583190890029,4922796.0,4278072.0,0.0
1583190890076,4891420.0,4288755.0,0.0
1583190890126,4855621.0,4296098.0,0.0
1583190890176,4867098.0,4344939.0,0.0
1583190890224,4866669.0,4328456.0,0.0
1583190890273,4794790.0,4232732.0,0.0
1583190890320,4825634.0,4251607.0,0.0
1583190890366,4852715.0,4281925.0,0.0
1583190890416,4896824.0,4271262.0,0.0
1583190890467,4941307.0,4313153.0,0.0
1583190890518,5006492.0,4381047.0,0.0
1583190890564,5015933.0,4373847.0,0.0
1583190890613,4977771.0,4295877.0,0.0
1583190890662,4915017.0,4260559.0,0.0
1583190890712,4815380.0,4215068.0,0.0
1583190890756,4873634.0,4212488.0,0.0
1583190890809,4818025.0,4173047.0,0.0
1583190890855,4786161.0,4173246.0,0.0
1583190890906,4743105.0,4175008.0,0.0
1583190890955,4759375.0,4189121.0,0.0
1583190891003,4626891.0,4040945.0,0.0
1583190891053,4523973.0,3967138.0,0.0
1583190891094,4563309.0,3991584.0,0.0
1583190891152,4625804.0,4025841.0,0.0
1583190891197,4674685.0,4044426.0,0.0
1583190891246,4753009.0,4096119.0,0.0
1583190891295,4788039.0,4156064.0,0.0
1583190891343,4785349.0,4130356.0,0.0
1583190891394,4734646.0,4042266.0,0.0
1583190891436,4653056.0,4061939.0,0.0
1583190891491,4683436.0,4113952.0,0.0
1583190891536,4693182.0,4073053.0,0.0
1583190891588,4612417.0,4024551.0,0.0
1583190891637,4566940.0,4021491.0,0.0
1583190891686,4525691.0,3987882.0,0.0
1583190891735,4372447.0,3800937.0,0.0
1583190891783,4279637.0,3739282.0,0.0
1583190891832,4339362.0,3798076.0,0.0
1583190891875,4366713.0,3840755.0,0.0
1583190891930,4416182.0,3863472.0,0.0
1583190891979,4485597.0,3899930.0,0.0
1583190892027,4554965.0,3977990.0,0.0
1583190892075,4605813.0,3973938.0,0.0
1583190892124,4541352.0,3885137.0,0.0
1583190892173,4462744.0,3854019.0,0.0
1583190892219,4441884.0,3901281.0,0.0
1583190892271,4486511.0,3893298.0,0.0
1583190892317,4447038.0,3844656.0,0.0
1583190892363,4419699.0,3840786.0,0.0
1583190892418,4399831.0,3834934.0,0.0
1583190892465,4248080.0,3701463.0,0.0
1583190892514,4139180.0,3614541.0,0.0
1583190892561,4202658.0,3733731.0,0.0
1583190892612,4284216.0,3860000.0,0.0
1583190892656,4378743.0,3866323.0,0.0
1583190892709,4439915.0,3896791.0,0.0
1583190892757,4490786.0,3954694.0,0.0
1583190892807,4473949.0,3908723.0,0.0
1583190892856,4372841.0,3814450.0,0.0
1583190892902,4327409.0,3792424.0,0.0
1583190892953,4310664.0,3866884.0,0.0
1583190892999,4370468.0,3860551.0,0.0
1583190893050,4359115.0,3838017.0,0.0
1583190893098,4342064.0,3858210.0,0.0
1583190893147,4316917.0,3851229.0,0.0
1583190893197,4215119.0,3745103.0,0.0
1583190893244,4113716.0,3677045.0,0.0
1583190893292,4180112.0,3774510.0,0.0
1583190893337,4245457.0,3853899.0,0.0
1583190893391,4331865.0,3903301.0,0.0
1583190893438,4449582.0,3954505.0,0.0
1583190893488,4470828.0,4007866.0,0.0
1583190893538,4492619.0,4005577.0,0.0
1583190893586,4445433.0,3949683.0,0.0
1583190893634,4362857.0,3930969.0,0.0
1583190893677,4379231.0,4007866.0,0.0
1583190893732,4437451.0,4009008.0,0.0
1583190893780,4422209.0,3981980.0,0.0
1583190893829,4383707.0,3974318.0,0.0
1583190893877,4367506.0,3960915.0,0.0
1583190893926,4327840.0,3905641.0,0.0
1583190893976,4317720.0,3853029.0,0.0
1583190894020,4328506.0,3887658.0,0.0
1583190894073,4355033.0,3926757.0,0.0
1583190894119,4506729.0,4001255.0,0.0
1583190894170,4605826.0,4060450.0,0.0
1583190894218,4618569.0,4089677.0,0.0
1583190894266,4602987.0,4080835.0,0.0
1583190894316,4586071.0,4064902.0,0.0
1583190894360,4571983.0,4057719.0,0.0
1583190894414,4619936.0,4145542.0,0.0
1583190894458,4592290.0,4119694.0,0.0
1583190894511,4613390.0,4112093.0,0.0
1583190894558,4562529.0,4104941.0,0.0
1583190894609,4551086.0,4101950.0,0.0
1583190894657,4528349.0,4045287.0,0.0
1583190894704,4424232.0,3965226.0,0.0
1583190894755,4481560.0,4056549.0,0.0
1583190894800,4506300.0,4116823.0,0.0
1583190894855,4607939.0,4156164.0,0.0
1583190894899,4664813.0,4199824.0,0.0
1583190894949,4714894.0,4238624.0,0.0
1583190894997,4655158.0,4164386.0,0.0
1583190895046,4595909.0,4120905.0,0.0
1583190895096,4549550.0,4140850.0,0.0
1583190895139,4533233.0,4139729.0,0.0
1583190895192,4628134.0,4170317.0,0.0
1583190895239,4601539.0,4163466.0,0.0
1583190895290,4599889.0,4187190.0,0.0
1583190895339,4613955.0,4167805.0,0.0
1583190895387,4543138.0,4084916.0,0.0
1583190895436,4441860.0,4005757.0,0.0
1583190895481,4440638.0,4030173.0,0.0
1583190895535,4448294.0,4041486.0,0.0
1583190895583,4641724.0,4128156.0,0.0
1583190895632,4663275.0,4168185.0,0.0
1583190895679,4672650.0,4189121.0,0.0
1583190895728,4560958.0,4079685.0,0.0
1583190895778,4486580.0,4012178.0,0.0
1583190895824,4448215.0,4009187.0,0.0
1583190895875,4461072.0,4060440.0,0.0
1583190895921,4512802.0,4054558.0,0.0
1583190895972,4507103.0,4052197.0,0.0
1583190896020,4480656.0,4059300.0,0.0
1583190896069,4425555.0,3998065.0,0.0
1583190896118,4356368.0,3911913.0,0.0
1583190896162,4273192.0,3870012.0,0.0
1583190896215,4342550.0,3972538.0,0.0
1583190896259,4422434.0,4032853.0,0.0
1583190896313,4496688.0,4064030.0,0.0
1583190896361,4552998.0,4121514.0,0.0
1583190896412,4587022.0,4142811.0,0.0
1583190896458,4528631.0,4056210.0,0.0
1583190896509,4485575.0,4011877.0,0.0
1583190896557,4568387.0,4099579.0,0.0
1583190896600,4516849.0,4061641.0,0.0
1583190896655,4703914.0,4149272.0,0.0
1583190896702,4775828.0,4213697.0,0.0
1583190896753,4828541.0,4288975.0,0.0
1583190896799,4863695.0,4304260.0,0.0
1583190896850,4784103.0,4225070.0,0.0
1583190896898,4699164.0,4183361.0,0.0
1583190896943,4749606.0,4285505.0,0.0
1583190896994,4890040.0,4392771.0,0.0
1583190897042,4994427.0,4476052.0,0.0
1583190897093,5298781.0,4696234.0,0.0
1583190897140,5339871.0,4750179.0,0.0
1583190897191,5410438.0,4727332.0,0.0
1583190897238,5495649.0,4844852.0,0.0
1583190897281,5487010.0,4767063.0,0.0
1583190897337,5405882.0,4636550.0,0.0
1583190897383,5376528.0,4625627.0,0.0
1583190897434,5339329.0,4585888.0,0.0
1583190897482,5281414.0,4531195.0,0.0
1583190897532,5152038.0,4362254.0,0.0
1583190897579,5015064.0,4255587.0,0.0
1583190897629,4908064.0,4229792.0,0.0
1583190897677,4922504.0,4243175.0,0.0
1583190897721,5029254.0,4301259.0,0.0
1583190897774,5117866.0,4385479.0,0.0
1583190897824,5233369.0,4478592.0,0.0
1583190897873,5115188.0,4329476.0,0.0
1583190897920,4952139.0,4189381.0,0.0
1583190897971,4896768.0,4197103.0,0.0
1583190898018,4805384.0,4147722.0,0.0
1583190898062,4800296.0,4155863.0,0.0
1583190898112,4825012.0,4177239.0,0.0
1583190898167,4896067.0,4247336.0,0.0
1583190898216,4855474.0,4174587.0,0.0
1583190898261,4618002.0,3918565.0,0.0
1583190898312,4479536.0,3874946.0,0.0
1583190898360,4388740.0,3840036.0,0.0
1583190898410,4463232.0,3902892.0,0.0
1583190898457,4403709.0,3898370.0,0.0
1583190898502,4401064.0,3918596.0,0.0
1583190898554,4375568.0,3921036.0,0.0
1583190898604,4393285.0,3882987.0,0.0
1583190898653,4308685.0,3836344.0,0.0
1583190898694,4286512.0,3828264.0,0.0
1583190898744,4329354.0,3829103.0,0.0
1583190898793,4243545.0,3802707.0,0.0
1583190898842,4196801.0,3789974.0,0.0
1583190898896,4204999.0,3790884.0,0.0
1583190898944,4134771.0,3715065.0,0.0
1583190898989,3974991.0,3590656.0,0.0
1583190899042,3946959.0,3648520.0,0.0
1583190899091,3969064.0,3679118.0,0.0
1583190899139,4105226.0,3767759.0,0.0
1583190899183,4181843.0,3837665.0,0.0
1583190899237,4237700.0,3893260.0,0.0
1583190899288,4228280.0,3890358.0,0.0
1583190899334,4249979.0,3873885.0,0.0
1583190899377,4207453.0,3821102.0,0.0
1583190899434,4095626.0,3747433.0,0.0
1583190899481,4150046.0,3758356.0,0.0
1583190899531,4105384.0,3742413.0,0.0
1583190899578,4156887.0,3805777.0,0.0
1583190899625,4222277.0,3842887.0,0.0
1583190899676,4214294.0,3771930.0,0.0
1583190899725,4016386.0,3607649.0,0.0
1583190899774,3862156.0,3517998.0,0.0
1583190899822,3897717.0,3549316.0,0.0
1583190899874,4032046.0,3636516.0,0.0
1583190899921,4075635.0,3702832.0,0.0
1583190899969,4060574.0,3754516.0,0.0
1583190900012,4069461.0,3791435.0,0.0
1583190900064,4111727.0,3795815.0,0.0
1583190900110,4089984.0,3767578.0,0.0
1583190900167,4010382.0,3666444.0,0.0
1583190900214,3989203.0,3647709.0,0.0
1583190900262,3967504.0,3659702.0,0.0
1583190900313,4007318.0,3700341.0,0.0
1583190900360,4074776.0,3741362.0,0.0
1583190900403,4074256.0,3726228.0,0.0
1583190900456,4070536.0,3765298.0,0.0
1583190900508,4193489.0,3884726.0,0.0
1583190900556,4284930.0,3985863.0,0.0
1583190900605,4439056.0,4017909.0,0.0
1583190900653,4610665.0,4078583.0,0.0
1583190900701,4738525.0,4195092.0,0.0
1583190900751,4811140.0,4307821.0,0.0
1583190900799,4880973.0,4307500.0,0.0
1583190900849,4784725.0,4252117.0,0.0
1583190900896,4712395.0,4239313.0,0.0
1583190900946,4847378.0,4323313.0,0.0
1583190900994,4897525.0,4340158.0,0.0
1583190901042,4975262.0,4396131.0,0.0
1583190901094,5006029.0,4423048.0,0.0
1583190901140,4985427.0,4404425.0,0.0
1583190901188,4848000.0,4287995.0,0.0
1583190901238,4831244.0,4243114.0,0.0
1583190901286,4857228.0,4235603.0,0.0
1583190901335,4966623.0,4295407.0,0.0
1583190901379,4976087.0,4341329.0,0.0
1583190901434,5013197.0,4408805.0,0.0
1583190901481,5024889.0,4421768.0,0.0
1583190901528,5026247.0,4381758.0,0.0
1583190901578,4951111.0,4344009.0,0.0
1583190901627,4869168.0,4243894.0,0.0
1583190901676,4946429.0,4276874.0,0.0
1583190901726,4915301.0,4236993.0,0.0
1583190901774,4907182.0,4237153.0,0.0
1583190901822,4924448.0,4248405.0,0.0
1583190901874,4917902.0,4234032.0,0.0
1583190901920,4777579.0,4119293.0,0.0
1583190901967,4753529.0,4130027.0,0.0
1583190902018,4776923.0,4216529.0,0.0
1583190902066,4883041.0,4269470.0,0.0
1583190902116,5056570.0,4379637.0,0.0
1583190902165,5164170.0,4489524.0,0.0
1583190902215,5169926.0,4532014.0,0.0
1583190902261,5202184.0,4553750.0,0.0
1583190902308,5276143.0,4637880.0,0.0
1583190902357,5188853.0,4581237.0,0.0
1583190902407,5299888.0,4642232.0,0.0
1583190902457,5406165.0,4658897.0,0.0
1583190902506,5413571.0,4634660.0,0.0
1583190902556,5388751.0,4628618.0,0.0
1583190902603,5394564.0,4644853.0,0.0
1583190902648,5334162.0,4600691.0,0.0
1583190902698,5240720.0,4551379.0,0.0
1583190902747,5232690.0,4530204.0,0.0
1583190902798,5275771.0,4561082.0,0.0
1583190902847,5348758.0,4617626.0,0.0
1583190902896,5393399.0,4673789.0,0.0
1583190902944,5441702.0,4755870.0,0.0
1583190902995,5474346.0,4780196.0,0.0
1583190903042,5472018.0,4699727.0,0.0
1583190903091,5375613.0,4602603.0,0.0
1583190903138,5354888.0,4694954.0,0.0
1583190903189,5436377.0,4625127.0,0.0
1583190903237,5395569.0,4556541.0,0.0
1583190903285,5407792.0,4575636.0,0.0
1583190903331,5391205.0,4557941.0,0.0
1583190903378,5351653.0,4465818.0,0.0
1583190903427,5135360.0,4267140.0,0.0
1583190903480,5097413.0,4289505.0,0.0
1583190903530,5097910.0,4315473.0,0.0
1583190903578,5153631.0,4351571.0,0.0
1583190903626,5216353.0,4406105.0,0.0
1583190903676,5248985.0,4468360.0,0.0
1583190903724,5253644.0,4491146.0,0.0
1583190903769,5247095.0,4394882.0,0.0
1583190903820,5174064.0,4361723.0,0.0
1583190903866,5063808.0,4250837.0,0.0
1583190903918,5049618.0,4220050.0,0.0
1583190903967,5007748.0,4209706.0,0.0
1583190904015,4978259.0,4219609.0,0.0
1583190904065,4965944.0,4217669.0,0.0
1583190904109,4929808.0,4160485.0,0.0
1583190904161,4717992.0,3983091.0,0.0
1583190904212,4626472.0,3961226.0,0.0
1583190904259,4590222.0,3988752.0,0.0
1583190904308,4713524.0,4090307.0,0.0
1583190904358,4744913.0,4123704.0,0.0
1583190904405,4697809.0,4133627.0,0.0
1583190904449,4737497.0,4232252.0,0.0
1583190904502,4797740.0,4259429.0,0.0
1583190904550,4797911.0,4303620.0,0.0
1583190904594,4769280.0,4270862.0,0.0
1583190904650,4836864.0,4236773.0,0.0
1583190904698,4799006.0,4200614.0,0.0
1583190904746,4827851.0,4239544.0,0.0
1583190904791,4877897.0,4297788.0,0.0
1583190904844,4879219.0,4292727.0,0.0
1583190904893,4788695.0,4202274.0,0.0
1583190904941,4611998.0,4096910.0,0.0
1583190904986,4611388.0,4098340.0,0.0
1583190905032,4748836.0,4159975.0,0.0
1583190905083,4771746.0,4169717.0,0.0
1583190905135,4756526.0,4204094.0,0.0
1583190905186,4723260.0,4240954.0,0.0
1583190905231,4682498.0,4184890.0,0.0
1583190905282,4469223.0,4083965.0,0.0
1583190905331,4666963.0,4185469.0,0.0
1583190905375,4649323.0,4123765.0,0.0
1583190905430,4642968.0,4136198.0,0.0
1583190905478,4556446.0,4089287.0,0.0
1583190905526,4540763.0,4105630.0,0.0
1583190905573,4522514.0,4094577.0,0.0
1583190905623,4331887.0,3910763.0,0.0
1583190905674,4265108.0,3889838.0,0.0
1583190905719,4261534.0,3915865.0,0.0
1583190905771,4365673.0,3957154.0,0.0
1583190905817,4450308.0,4008618.0,0.0
1583190905867,4541114.0,4111173.0,0.0
1583190905911,4596904.0,4195433.0,0.0
1583190905964,4625340.0,4127006.0,0.0
1583190906015,4530519.0,4053829.0,0.0
1583190906055,4485189.0,4103220.0,0.0
1583190906110,4543205.0,4110923.0,0.0
1583190906158,4602680.0,4107901.0,0.0
1583190906208,4606559.0,4118243.0,0.0
1583190906252,4609013.0,4128227.0,0.0
1583190906306,4623203.0,4130856.0,0.0
1583190906357,4496891.0,3995103.0,0.0
1583190906402,4479717.0,4018631.0,0.0
1583190906455,4553496.0,4142870.0,0.0
1583190906499,4578405.0,4159374.0,0.0
1583190906550,4708754.0,4225850.0,0.0
1583190906595,4765549.0,4276012.0,0.0
1583190906646,4784692.0,4319672.0,0.0
1583190906697,4791499.0,4294176.0,0.0
1583190906744,4733878.0,4175748.0,0.0
1583190906797,4677534.0,4191683.0,0.0
1583190906841,4615933.0,4149341.0,0.0
1583190906890,4692675.0,4176418.0,0.0
1583190906933,4704999.0,4181969.0,0.0
1583190906983,4743184.0,4211516.0,0.0
1583190907032,4733866.0,4204525.0,0.0
1583190907085,4679389.0,4117644.0,0.0
1583190907139,4534489.0,4025031.0,0.0
1583190907182,4570920.0,4098190.0,0.0
1583190907233,4604751.0,4142720.0,0.0
1583190907274,4672774.0,4166235.0,0.0
1583190907328,4760643.0,4260689.0,0.0
1583190907374,4801426.0,4315223.0,0.0
1583190907426,4810315.0,4291185.0,0.0
1583190907476,4768772.0,4214367.0,0.0
1583190907523,4677546.0,4194373.0,0.0
1583190907573,4630237.0,4150412.0,0.0
1583190907621,4661467.0,4192142.0,0.0
1583190907669,4677477.0,4220960.0,0.0
1583190907713,4720908.0,4272861.0,0.0
1583190907766,4767652.0,4283954.0,0.0
1583190907815,4732950.0,4225241.0,0.0
1583190907864,4564610.0,4093937.0,0.0
1583190907912,4617662.0,4188980.0,0.0
1583190907961,4684239.0,4239703.0,0.0
1583190908011,4735382.0,4257147.0,0.0
1583190908058,4817936.0,4318153.0,0.0
1583190908107,4927569.0,4402143.0,0.0
1583190908153,4924007.0,4424559.0,0.0
1583190908205,4978744.0,4435791.0,0.0
1583190908254,4980396.0,4490605.0,0.0
1583190908303,4945412.0,4474382.0,0.0
1583190908352,5057442.0,4496676.0,0.0
1583190908400,5172583.0,4578186.0,0.0
1583190908449,5301008.0,4721702.0,0.0
1583190908492,5468999.0,4821195.0,0.0
1583190908546,5572028.0,4970091.0,0.0
1583190908598,5636049.0,5086360.0,0.0
1583190908643,5681255.0,4986875.0,0.0
1583190908692,5678937.0,4921740.0,0.0
1583190908739,5670989.0,4910817.0,0.0
1583190908791,5665924.0,4865007.0,0.0
1583190908834,5667269.0,4877289.0,0.0
1583190908887,5719688.0,4954138.0,0.0
1583190908936,5742110.0,4905595.0,0.0
1583190908980,5712067.0,4833659.0,0.0
1583190909034,5552276.0,4834149.0,0.0
1583190909081,5664113.0,4867598.0,0.0
1583190909131,5692539.0,4856584.0,0.0
1583190909179,5677072.0,4853233.0,0.0
1583190909229,5670355.0,4874089.0,0.0
1583190909277,5672425.0,4821957.0,0.0
1583190909326,5603756.0,4693254.0,0.0
1583190909376,5477061.0,4660067.0,0.0
1583190909423,5483268.0,4719930.0,0.0
1583190909473,5545480.0,4752938.0,0.0
1583190909520,5591149.0,4790158.0,0.0
1583190909570,5601980.0,4822436.0,0.0
1583190909616,5624968.0,4863776.0,0.0
1583190909666,5611942.0,4747188.0,0.0
1583190909718,5491805.0,4645132.0,0.0
1583190909764,5517958.0,4689143.0,0.0
1583190909814,5481368.0,4622077.0,0.0
1583190909862,5488583.0,4607274.0,0.0
1583190909912,5412654.0,4556330.0,0.0
1583190909955,5420399.0,4575006.0,0.0
1583190910009,5404401.0,4542817.0,0.0
1583190910055,5334093.0,4447234.0,0.0
1583190910099,5218545.0,4395073.0,0.0
1583190910149,5232138.0,4441864.0,0.0
1583190910196,5299256.0,4449156.0,0.0
1583190910247,5303135.0,4439393.0,0.0
1583190910299,5312530.0,4467069.0,0.0
1583190910350,5297753.0,4499397.0,0.0
1583190910399,5314962.0,4510870.0,0.0
1583190910446,5330306.0,4561062.0,0.0
1583190910496,5269948.0,4569323.0,0.0
1583190910544,5328518.0,4602833.0,0.0
1583190910593,5324052.0,4521163.0,0.0
1583190910636,5258585.0,4481243.0,0.0
1583190910691,5260099.0,4499256.0,0.0
1583190910737,5268738.0,4483104.0,0.0
1583190910788,5118750.0,4302959.0,0.0
1583190910837,4981877.0,4228081.0,0.0
1583190910886,4979175.0,4265469.0,0.0
1583190910935,4976347.0,4276173.0,0.0
1583190910977,5012327.0,4298428.0,0.0
1583190911031,5045333.0,4349460.0,0.0
1583190911076,5015899.0,4355752.0,0.0
1583190911129,4959997.0,4281904.0,0.0
1583190911176,4878010.0,4211216.0,0.0
1583190911227,4806979.0,4252446.0,0.0
1583190911274,4814904.0,4235643.0,0.0
1583190911323,4882407.0,4252696.0,0.0
1583190911373,4838615.0,4225751.0,0.0
1583190911414,4801188.0,4209907.0,0.0
1583190911470,4746282.0,4157744.0,0.0
1583190911517,4647176.0,4035734.0,0.0
1583190911566,4531458.0,3977610.0,0.0
1583190911616,4568557.0,4083405.0,0.0
1583190911664,4604999.0,4131628.0,0.0
1583190911713,4710347.0,4178769.0,0.0
1583190911755,4709172.0,4181430.0,0.0
1583190911811,4734116.0,4234483.0,0.0
1583190911857,4703020.0,4182410.0,0.0
1583190911908,4626269.0,4108802.0,0.0
1583190911957,4591351.0,4136348.0,0.0
1583190911999,4553008.0,4080725.0,0.0
1583190912054,4576619.0,4071163.0,0.0
1583190912099,4516713.0,4045685.0,0.0
1583190912152,4497141.0,4051338.0,0.0
1583190912200,4482045.0,4033454.0,0.0
1583190912249,4347922.0,3892788.0,0.0
1583190912297,4255609.0,3844238.0,0.0
1583190912346,4318488.0,3956644.0,0.0
1583190912390,4337519.0,3974619.0,0.0
1583190912441,4420626.0,4022912.0,0.0
1583190912494,4443568.0,4063561.0,0.0
1583190912537,4469664.0,4114574.0,0.0
1583190912589,4399301.0,4006036.0,0.0
1583190912638,4266024.0,3901192.0,0.0
1583190912687,4216362.0,3930237.0,0.0
1583190912736,4195547.0,3891309.0,0.0
1583190912785,4199505.0,3888768.0,0.0
1583190912834,4160857.0,3881356.0,0.0
1583190912876,4134477.0,3883706.0,0.0
1583190912932,4132849.0,3890779.0,0.0
1583190912978,4007940.0,3772850.0,0.0
1583190913028,3926290.0,3720667.0,0.0
1583190913077,3983335.0,3808278.0,0.0
1583190913126,4032180.0,3839116.0,0.0
1583190913175,4110890.0,3884476.0,0.0
1583190913217,4161523.0,3942731.0,0.0
1583190913272,4167448.0,3971279.0,0.0
1583190913318,4153902.0,3913484.0,0.0
1583190913368,4062575.0,3824863.0,0.0
1583190913418,4006095.0,3867822.0,0.0
1583190913460,4016046.0,3837226.0,0.0
1583190913512,4101617.0,3857710.0,0.0
1583190913560,4043613.0,3833244.0,0.0
1583190913612,4002297.0,3827323.0,0.0
1583190913658,3954161.0,3781981.0,0.0
1583190913711,3791282.0,3632615.0,0.0
1583190913759,3754105.0,3600857.0,0.0
1583190913808,3856221.0,3704352.0,0.0
1583190913857,3914926.0,3733270.0,0.0
1583190913905,4041114.0,3791083.0,0.0
1583190913954,4108867.0,3849169.0,0.0
1583190913998,4134962.0,3914114.0,0.0
1583190914053,4156909.0,3875525.0,0.0
1583190914099,4102206.0,3828193.0,0.0
1583190914142,4088072.0,3832165.0,0.0
1583190914199,4047853.0,3773641.0,0.0
1583190914246,4061726.0,3783931.0,0.0
1583190914295,4037382.0,3800196.0,0.0
1583190914338,4061738.0,3849488.0,0.0
1583190914389,4092042.0,3880007.0,0.0
1583190914439,4047752.0,3819792.0,0.0
1583190914490,4063128.0,3839687.0,0.0
1583190914538,4105474.0,3876514.0,0.0
1583190914587,4188932.0,3907122.0,0.0
1583190914636,4302230.0,3960486.0,0.0
1583190914680,4351934.0,4026922.0,0.0
1583190914734,4376370.0,4087547.0,0.0
1583190914779,4359860.0,4032384.0,0.0
1583190914831,4213875.0,3911684.0,0.0
1583190914879,4128461.0,3917234.0,0.0
1583190914928,4130452.0,3880035.0,0.0
1583190914976,4119913.0,3872975.0,0.0
1583190915021,4161127.0,3925166.0,0.0
1583190915074,4191475.0,3942481.0,0.0
1583190915120,4147683.0,3884418.0,0.0
1583190915171,4052217.0,3771570.0,0.0
1583190915220,4006028.0,3766798.0,0.0
1583190915269,4042335.0,3831944.0,0.0
1583190915317,4175963.0,3902431.0,0.0
1583190915365,4222480.0,3950122.0,0.0
1583190915415,4273757.0,4006647.0,0.0
1583190915459,4272243.0,4032524.0,0.0
1583190915514,4269925.0,4008277.0,0.0
1583190915561,4187767.0,3970078.0,0.0
1583190915603,4202839.0,3971399.0,0.0
1583190915657,4343682.0,4003165.0,0.0
1583190915706,4374674.0,4007448.0,0.0
1583190915755,4403258.0,4032644.0,0.0
1583190915802,4476212.0,4071462.0,0.0
1583190915853,4498362.0,4063841.0,0.0
1583190915901,4379806.0,3961677.0,0.0
1583190915950,4453473.0,4053288.0,0.0
1583190915999,4484116.0,4089238.0,0.0
1583190916048,4566950.0,4121634.0,0.0
1583190916096,4693782.0,4204436.0,0.0
1583190916139,4732160.0,4268911.0,0.0
1583190916198,4747536.0,4308740.0,0.0
1583190916241,4765379.0,4309101.0,0.0
1583190916286,4690753.0,4283003.0,0.0
1583190916340,4679265.0,4274161.0,0.0
1583190916385,4774877.0,4270031.0,0.0
1583190916439,4743907.0,4243734.0,0.0
1583190916484,4758708.0,4271252.0,0.0
1583190916536,4755338.0,4286254.0,0.0
1583190916582,4752422.0,4283755.0,0.0
1583190916633,4645128.0,4162145.0,0.0
1583190916680,4725522.0,4214148.0,0.0
1583190916731,4741782.0,4217207.0,0.0
1583190916778,4786513.0,4227961.0,0.0
1583190916827,4882125.0,4306029.0,0.0
1583190916876,4894055.0,4340628.0,0.0
1583190916921,4862122.0,4325235.0,0.0
1583190916974,4830486.0,4272331.0,0.0
1583190917022,4783481.0,4248305.0,0.0
1583190917073,4725579.0,4165536.0,0.0
1583190917120,4800002.0,4189551.0,0.0
1583190917170,4769993.0,4169988.0,0.0
1583190917217,4759365.0,4181420.0,0.0
1583190917260,4750443.0,4189232.0,0.0
1583190917315,4700669.0,4146182.0,0.0
1583190917362,4635901.0,4082056.0,0.0
1583190917412,4679976.0,4113042.0,0.0
1583190917461,4695875.0,4116173.0,0.0
1583190917510,4800138.0,4173458.0,0.0
1583190917559,4845886.0,4227120.0,0.0
1583190917604,4834523.0,4262999.0,0.0
1583190917657,4865503.0,4298959.0,0.0
1583190917705,4904953.0,4297608.0,0.0
1583190917748,4827320.0,4250217.0,0.0
1583190917801,4767754.0,4145651.0,0.0
1583190917853,4863209.0,4171617.0,0.0
1583190917899,4838684.0,4152072.0,0.0
1583190917948,4849403.0,4176219.0,0.0
1583190917997,4861681.0,4178139.0,0.0
1583190918042,4837463.0,4157043.0,0.0
1583190918094,4764125.0,4099350.0,0.0
1583190918143,4667008.0,4042695.0,0.0
1583190918194,4672424.0,4044436.0,0.0
1583190918241,4836807.0,4131937.0,0.0
1583190918290,4884104.0,4190201.0,0.0
1583190918338,4914192.0,4260158.0,0.0
1583190918382,4921971.0,4288075.0,0.0
1583190918435,4922107.0,4224640.0,0.0
1583190918484,4886377.0,4184730.0,0.0
1583190918533,4767097.0,4096278.0,0.0
1583190918581,4811954.0,4083126.0,0.0
1583190918632,4750082.0,4053278.0,0.0
1583190918679,4725046.0,4054788.0,0.0
1583190918722,4735347.0,4072594.0,0.0
1583190918776,4693918.0,4027231.0,0.0
1583190918827,4611772.0,3990863.0,0.0
1583190918875,4626155.0,4003716.0,0.0
1583190918923,4627490.0,3984491.0,0.0
1583190918973,4715198.0,4064522.0,0.0
1583190919019,4767687.0,4144290.0,0.0
1583190919065,4782577.0,4208436.0,0.0
1583190919118,4832544.0,4239924.0,0.0
1583190919167,4865911.0,4184740.0,0.0
1583190919216,4780214.0,4180459.0,0.0
1583190919264,4775657.0,4166446.0,0.0
1583190919313,4824064.0,4151643.0,0.0
1583190919361,4812846.0,4127546.0,0.0
1583190919411,4801720.0,4123975.0,0.0
1583190919458,4768579.0,4104712.0,0.0
1583190919507,4754740.0,4086607.0,0.0
1583190919552,4632080.0,3970649.0,0.0
1583190919605,4647265.0,4008937.0,0.0
1583190919654,4680033.0,4065060.0,0.0
1583190919702,4827241.0,4143270.0,0.0
1583190919751,4929659.0,4208615.0,0.0
1583190919799,4991713.0,4267780.0,0.0
1583190919844,5013345.0,4332777.0,0.0
1583190919897,5015889.0,4275352.0,0.0
1583190919946,5017053.0,4250536.0,0.0
1583190919995,4895400.0,4143520.0,0.0
1583190920043,4965674.0,4131738.0,0.0
1583190920093,4887237.0,4091298.0,0.0
1583190920141,4907215.0,4126756.0,0.0
1583190920184,4924854.0,4135338.0,0.0
1583190920238,4873825.0,4085936.0,0.0
1583190920286,4700001.0,3938990.0,0.0
1583190920336,4582103.0,3896559.0,0.0
1583190920383,4570772.0,3901750.0,0.0
1583190920434,4638864.0,3937881.0,0.0
1583190920481,4661489.0,3980340.0,0.0
1583190920528,4698384.0,4063770.0,0.0
1583190920578,4699052.0,4095479.0,0.0
1583190920626,4649628.0,4007627.0,0.0
1583190920676,4589781.0,3984952.0,0.0
1583190920725,4484477.0,3907053.0,0.0
1583190920775,4512406.0,3903382.0,0.0
1583190920821,4425431.0,3869043.0,0.0
1583190920874,4398270.0,3877855.0,0.0
1583190920920,4401787.0,3889068.0,0.0
1583190920965,4395387.0,3840115.0,0.0
1583190921017,4181843.0,3658682.0,0.0
1583190921065,4153756.0,3678077.0,0.0
1583190921115,4229117.0,3779811.0,0.0
1583190921163,4315662.0,3829404.0,0.0
1583190921208,4422062.0,3894950.0,0.0
1583190921261,4488604.0,3986123.0,0.0
1583190921308,4510122.0,4037855.0,0.0
1583190921358,4500059.0,3986791.0,0.0
1583190921404,4419415.0,3963926.0,0.0
1583190921450,4377354.0,3923516.0,0.0
1583190921498,4478484.0,3911304.0,0.0
1583190921547,4581548.0,3970629.0,0.0
1583190921595,4824628.0,4136608.0,0.0
1583190921646,4977920.0,4226330.0,0.0
1583190921699,5010190.0,4224991.0,0.0
1583190921743,4924968.0,4050228.0,0.0
1583190921790,4792732.0,3930839.0,0.0
1583190921845,4756571.0,4029673.0,0.0
1583190921894,4834352.0,4064782.0,0.0
1583190921943,4828767.0,4087096.0,0.0
1583190921989,4815843.0,4162625.0,0.0
1583190922039,4847197.0,4218839.0,0.0
1583190922088,4853530.0,4167556.0,0.0
1583190922138,4806278.0,4099900.0,0.0
1583190922186,4712372.0,4080054.0,0.0
1583190922237,4743263.0,4078555.0,0.0
1583190922283,4711298.0,4024411.0,0.0
1583190922332,4699719.0,4039194.0,0.0
1583190922380,4749482.0,4092438.0,0.0
1583190922428,4767075.0,4064030.0,0.0
1583190922478,4563208.0,3848539.0,0.0
1583190922528,4464995.0,3826643.0,0.0
1583190922577,4437745.0,3873115.0,0.0
1583190922624,4431333.0,3867322.0,0.0
1583190922672,4523633.0,3926357.0,0.0
1583190922721,4569947.0,3997265.0,0.0
1583190922767,4600228.0,4066972.0,0.0
1583190922819,4554412.0,3970978.0,0.0
1583190922868,4603473.0,3960415.0,0.0
1583190922917,4537597.0,3947873.0,0.0
1583190922965,4565764.0,3920615.0,0.0
1583190923012,4735179.0,4004547.0,0.0
1583190923063,4806062.0,4067612.0,0.0
1583190923110,4868782.0,4112593.0,0.0
1583190923160,4880168.0,4046075.0,0.0
1583190923212,4836943.0,3923626.0,0.0
1583190923251,4712382.0,3847137.0,0.0
1583190923306,4648137.0,3865362.0,0.0
1583190923356,4686785.0,3925357.0,0.0
1583190923399,4744212.0,3957575.0,0.0
1583190923449,4791680.0,4036973.0,0.0
1583190923500,4822265.0,4139349.0,0.0
1583190923548,4807962.0,4064491.0,0.0
1583190923599,4720038.0,3988482.0,0.0
1583190923648,4678936.0,4066872.0,0.0
1583190923697,4653472.0,4056990.0,0.0
1583190923745,4700692.0,4058760.0,0.0
1583190923792,4647367.0,4051868.0,0.0
1583190923841,4715934.0,4125435.0,0.0
1583190923889,4734522.0,4122215.0,0.0
1583190923940,4674029.0,4010388.0,0.0
1583190923983,4534036.0,3922696.0,0.0
1583190924038,4581514.0,4029202.0,0.0
1583190924085,4650398.0,4107751.0,0.0
1583190924129,4734195.0,4133508.0,0.0
1583190924182,4819179.0,4179139.0,0.0
1583190924231,4866194.0,4249575.0,0.0
1583190924280,4872616.0,4242474.0,0.0
1583190924330,4838481.0,4186321.0,0.0
1583190924378,4775669.0,4157984.0,0.0
1583190924427,4718307.0,4158453.0,0.0
1583190924474,4809906.0,4182879.0,0.0
1583190924524,4822209.0,4163476.0,0.0
1583190924570,4871474.0,4208426.0,0.0
1583190924620,4912394.0,4203944.0,0.0
1583190924672,4875940.0,4136409.0,0.0
1583190924719,4745953.0,4036994.0,0.0
1583190924768,4709963.0,4097649.0,0.0
1583190924811,4741589.0,4172606.0,0.0
1583190924864,4773566.0,4174378.0,0.0
1583190924916,4813446.0,4208067.0,0.0
1583190924962,4851900.0,4271171.0,0.0
1583190925012,4834850.0,4230702.0,0.0
1583190925058,4766679.0,4178700.0,0.0
1583190925109,4796225.0,4228112.0,0.0
1583190925153,4814248.0,4275433.0,0.0
1583190925206,5011728.0,4354541.0,0.0
1583190925255,4977546.0,4320424.0,0.0
1583190925303,4968783.0,4338517.0,0.0
1583190925355,4927512.0,4323823.0,0.0
1583190925396,4828155.0,4236982.0,0.0
1583190925450,4719914.0,4159445.0,0.0
1583190925493,4668816.0,4174307.0,0.0
1583190925547,4657781.0,4192512.0,0.0
1583190925592,4773046.0,4245965.0,0.0
1583190925645,4838548.0,4271632.0,0.0
1583190925696,4869993.0,4349931.0,0.0
1583190925742,4816556.0,4299028.0,0.0
1583190925790,4747741.0,4242415.0,0.0
1583190925837,4671711.0,4213398.0,0.0
1583190925888,4685066.0,4242344.0,0.0
1583190925930,4728179.0,4246816.0,0.0
1583190925981,4777331.0,4268541.0,0.0
1583190926037,4815187.0,4272912.0,0.0
1583190926082,4750240.0,4191221.0,0.0
1583190926133,4647978.0,4089557.0,0.0
1583190926180,4593917.0,4045846.0,0.0
1583190926230,4571666.0,4072882.0,0.0
1583190926273,4590742.0,4132518.0,0.0
1583190926326,4644167.0,4133587.0,0.0
1583190926372,4698589.0,4163045.0,0.0
1583190926424,4758042.0,4228971.0,0.0
1583190926477,4746067.0,4159114.0,0.0
1583190926522,4679129.0,4103740.0,0.0
1583190926566,4673395.0,4132408.0,0.0
1583190926613,4671362.0,4138390.0,0.0
1583190926662,4678326.0,4091018.0,0.0
1583190926711,4651302.0,4083275.0,0.0
1583190926761,4689351.0,4108182.0,0.0
1583190926812,4674765.0,4066671.0,0.0
1583190926859,4605531.0,3975830.0,0.0
1583190926909,4453191.0,3876014.0,0.0
1583190926954,4458865.0,3994914.0,0.0
1583190927010,4581459.0,4149392.0,0.0
1583190927059,4624006.0,4141039.0,0.0
1583190927106,4700353.0,4157543.0,0.0
1583190927154,4756717.0,4227291.0,0.0
1583190927204,4827660.0,4186451.0,0.0
1583190927254,4792053.0,4114074.0,0.0
1583190927296,4749641.0,4163086.0,0.0
1583190927351,4707330.0,4154193.0,0.0
1583190927395,4731751.0,4153703.0,0.0
1583190927449,4722807.0,4129767.0,0.0
1583190927491,4731097.0,4126325.0,0.0
1583190927546,4609217.0,3991314.0,0.0
1583190927594,4467212.0,3872164.0,0.0
1583190927636,4407680.0,3868332.0,0.0
1583190927692,4459771.0,3986342.0,0.0
1583190927740,4494687.0,4042855.0,0.0
1583190927790,4557045.0,4056029.0,0.0
1583190927834,4614995.0,4085646.0,0.0
1583190927887,4658901.0,4100551.0,0.0
1583190927934,4630247.0,4036644.0,0.0
1583190927979,4572978.0,4004057.0,0.0
1583190928032,4558787.0,4059560.0,0.0
1583190928081,4546507.0,4054708.0,0.0
1583190928130,4588728.0,4051218.0,0.0
1583190928177,4584748.0,4036073.0,0.0
1583190928229,4516599.0,3976289.0,0.0
1583190928274,4377478.0,3837746.0,0.0
1583190928325,4309613.0,3769090.0,0.0
1583190928374,4232555.0,3773929.0,0.0
1583190928423,4300997.0,3916495.0,0.0
1583190928472,4343885.0,3958564.0,0.0
1583190928519,4417629.0,3984422.0,0.0
1583190928569,4498419.0,4043207.0,0.0
1583190928615,4558108.0,4043706.0,0.0
1583190928665,4449946.0,3918394.0,0.0
1583190928718,4399209.0,3889168.0,0.0
1583190928764,4360313.0,3976750.0,0.0
1583190928813,4344281.0,3912344.0,0.0
1583190928856,4342176.0,3916184.0,0.0
1583190928908,4344066.0,3942001.0,0.0
1583190928954,4343375.0,3942631.0,0.0
1583190929008,4205429.0,3788913.0,0.0
1583190929057,4083086.0,3701083.0,0.0
1583190929099,4073090.0,3724988.0,0.0
1583190929156,4125612.0,3764717.0,0.0
1583190929203,4093307.0,3745493.0,0.0
1583190929253,4098442.0,3736322.0,0.0
1583190929300,4142279.0,3800827.0,0.0
1583190929350,4138491.0,3755615.0,0.0
1583190929396,4004660.0,3623033.0,0.0
1583190929447,3968093.0,3621723.0,0.0
1583190929496,3998939.0,3714596.0,0.0
1583190929545,4027784.0,3700912.0,0.0
1583190929594,4011660.0,3673415.0,0.0
1583190929640,3966929.0,3661273.0,0.0
1583190929691,3917007.0,3611310.0,0.0
1583190929734,3790492.0,3494062.0,0.0
1583190929788,3716124.0,3434286.0,0.0
1583190929837,3824209.0,3573532.0,0.0
1583190929885,3922978.0,3680408.0,0.0
1583190929934,3977874.0,3686660.0,0.0
1583190929978,4075058.0,3758055.0,0.0
1583190930032,4188243.0,3815070.0,0.0
1583190930078,4232543.0,3839386.0,0.0
1583190930129,4237620.0,3816001.0,0.0
1583190930179,4223587.0,3913494.0,0.0
1583190930227,4257601.0,3918254.0,0.0
1583190930276,4270772.0,3871134.0,0.0
1583190930323,4248328.0,3842657.0,0.0
1583190930373,4254772.0,3842807.0,0.0
1583190930421,4188570.0,3735421.0,0.0
1583190930470,4025612.0,3612040.0,0.0
1583190930518,3916984.0,3554096.0,0.0
1583190930561,3973564.0,3649850.0,0.0
1583190930616,4010335.0,3688870.0,0.0
1583190930665,4071293.0,3712635.0,0.0
1583190930715,4163559.0,3771790.0,0.0
1583190930763,4315402.0,3871723.0,0.0
1583190930812,4355689.0,3825462.0,0.0
1583190930857,4373430.0,3809318.0,0.0
1583190930910,4277160.0,3781081.0,0.0
1583190930956,4249323.0,3850038.0,0.0
1583190931007,4380034.0,3873564.0,0.0
1583190931056,4370161.0,3874125.0,0.0
1583190931104,4408561.0,3909733.0,0.0
1583190931153,4405745.0,3841966.0,0.0
1583190931197,4362778.0,3770910.0,0.0
1583190931251,4272140.0,3711305.0,0.0
1583190931298,4247661.0,3759016.0,0.0
1583190931342,4317834.0,3860520.0,0.0
1583190931391,4422095.0,3897979.0,0.0
1583190931438,4461490.0,3928618.0,0.0
1583190931490,4527341.0,3996174.0,0.0
1583190931540,4454310.0,3916844.0,0.0
1583190931587,4444133.0,3909203.0,0.0
1583190931635,4447242.0,3941871.0,0.0
1583190931686,4365401.0,3965086.0,0.0
1583190931734,4446971.0,3922887.0,0.0
1583190931783,4428212.0,3903382.0,0.0
1583190931832,4413807.0,3913063.0,0.0
1583190931878,4296689.0,3832354.0,0.0
1583190931934,4198747.0,3753236.0,0.0
1583190931978,4113095.0,3706053.0,0.0
1583190932027,4129501.0,3736541.0,0.0
1583190932075,4199911.0,3794415.0,0.0
1583190932125,4302490.0,3821893.0,0.0
1583190932174,4416680.0,3871744.0,0.0
1583190932222,4415729.0,3899310.0,0.0
1583190932274,4409364.0,3892049.0,0.0
1583190932322,4342731.0,3869793.0,0.0
1583190932372,4326404.0,3923687.0,0.0
1583190932419,4333312.0,3957595.0,0.0
1583190932470,4411534.0,3929368.0,0.0
1583190932518,4356628.0,3893930.0,0.0
1583190932566,4321202.0,3895060.0,0.0
1583190932615,4204129.0,3792475.0,0.0
1583190932664,4136151.0,3740842.0,0.0
1583190932713,4086241.0,3715846.0,0.0
1583190932756,4129003.0,3777221.0,0.0
1583190932806,4163592.0,3812130.0,0.0
1583190932857,4231921.0,3825873.0,0.0
1583190932904,4277975.0,3850418.0,0.0
1583190932953,4329693.0,3906811.0,0.0
1583190933002,4305225.0,3890259.0,0.0
1583190933051,4304705.0,3881916.0,0.0
1583190933099,4273271.0,3882636.0,0.0
1583190933150,4310867.0,3990123.0,0.0
1583190933197,4389361.0,3944722.0,0.0
1583190933245,4288298.0,3892219.0,0.0
1583190933294,4301856.0,3925227.0,0.0
1583190933342,4182497.0,3817691.0,0.0
1583190933392,4087462.0,3752425.0,0.0
1583190933440,4043511.0,3721157.0,0.0
1583190933490,4056604.0,3763378.0,0.0
1583190933539,4088785.0,3799637.0,0.0
1583190933586,4193353.0,3865522.0,0.0
1583190933635,4214712.0,3875025.0,0.0
1583190933684,4260471.0,3890539.0,0.0
1583190933737,4221643.0,3848198.0,0.0
1583190933785,4201754.0,3802997.0,0.0
1583190933835,4234148.0,3824593.0,0.0
1583190933878,4198192.0,3904012.0,0.0
1583190933933,4288186.0,3896990.0,0.0
1583190933979,4256967.0,3838295.0,0.0
1583190934030,4218307.0,3824983.0,0.0
1583190934079,4178054.0,3762427.0,0.0
1583190934127,4081062.0,3688590.0,0.0
1583190934176,4058652.0,3667043.0,0.0
1583190934219,4137971.0,3743333.0,0.0
1583190934274,4129208.0,3769029.0,0.0
1583190934323,4272140.0,3818481.0,0.0
1583190934370,4364722.0,3876195.0,0.0
1583190934415,4464406.0,3933320.0,0.0
1583190934468,4398476.0,3919756.0,0.0
1583190934517,4403405.0,3956154.0,0.0
1583190934563,4518105.0,4080125.0,0.0
1583190934614,4502942.0,4127197.0,0.0
1583190934659,4517325.0,4149841.0,0.0
1583190934712,4651381.0,4135088.0,0.0
1583190934760,4612496.0,4058280.0,0.0
1583190934809,4541521.0,3972488.0,0.0
1583190934857,4434917.0,3898341.0,0.0
1583190934907,4342981.0,3851048.0,0.0
1583190934956,4263151.0,3830434.0,0.0
1583190935002,4285279.0,3864882.0,0.0
1583190935047,4276912.0,3865433.0,0.0
1583190935100,4279421.0,3857840.0,0.0
1583190935145,4376155.0,3910834.0,0.0
1583190935198,4431628.0,3958265.0,0.0
1583190935243,4451358.0,3955063.0,0.0
1583190935296,4431967.0,3958184.0,0.0
1583190935339,4432306.0,4045886.0,0.0
1583190935392,4466397.0,4038875.0,0.0
1583190935441,4575589.0,4017338.0,0.0
1583190935491,4559985.0,3926538.0,0.0
1583190935539,4623622.0,3948822.0,0.0
1583190935588,4646022.0,3958855.0,0.0
1583190935636,4709703.0,3999126.0,0.0
1583190935681,4607951.0,3934908.0,0.0
1583190935736,4530486.0,3940041.0,0.0
1583190935780,4609613.0,4014179.0,0.0
1583190935826,4706379.0,3952473.0,0.0
1583190935879,4853948.0,4002706.0,0.0
1583190935929,4929796.0,4063711.0,0.0
1583190935977,5010145.0,4156584.0,0.0
1583190936025,5037972.0,4190472.0,0.0
1583190936074,4982521.0,4167346.0,0.0
1583190936124,4913186.0,4263560.0,0.0
1583190936172,5043862.0,4286695.0,0.0
1583190936221,5067131.0,4183570.0,0.0
1583190936271,5058844.0,4172948.0,0.0
1583190936318,5033018.0,4145881.0,0.0
1583190936366,5071949.0,4173137.0,0.0
1583190936411,4991985.0,4111122.0,0.0
1583190936461,4903031.0,4117424.0,0.0
1583190936515,4885156.0,4162155.0,0.0
1583190936562,4945637.0,4176818.0,0.0
1583190936612,4944247.0,4127085.0,0.0
1583190936659,4926031.0,4129046.0,0.0
1583190936703,4899425.0,4137238.0,0.0
1583190936752,4891103.0,4143550.0,0.0
1583190936800,4807759.0,4155233.0,0.0
1583190936850,4809715.0,4192463.0,0.0
1583190936899,4836772.0,4149422.0,0.0
1583190936948,4691545.0,4012808.0,0.0
1583190936997,4542913.0,3920556.0,0.0
1583190937043,4454548.0,3870443.0,0.0
1583190937095,4430429.0,3864212.0,0.0
1583190937141,4380440.0,3876585.0,0.0
1583190937193,4495264.0,4054568.0,0.0
1583190937243,4557848.0,4137929.0,0.0
1583190937293,4645378.0,4192522.0,0.0
1583190937342,4743070.0,4193952.0,0.0
1583190937392,4717935.0,4150072.0,0.0
1583190937439,4635721.0,4088387.0,0.0
1583190937486,4650760.0,4126216.0,0.0
1583190937536,4717064.0,4254197.0,0.0
1583190937583,4721688.0,4177779.0,0.0
1583190937635,4764113.0,4114714.0,0.0
1583190937682,4669383.0,4001775.0,0.0
1583190937732,4571485.0,3937050.0,0.0
1583190937779,4592357.0,3943432.0,0.0
1583190937830,4634680.0,3974259.0,0.0
1583190937877,4535438.0,3964277.0,0.0
1583190937924,4614643.0,4106882.0,0.0
1583190937976,4665018.0,4162925.0,0.0
1583190938024,4798848.0,4229532.0,0.0
1583190938073,4804784.0,4192292.0,0.0
1583190938121,4757046.0,4165095.0,0.0
1583190938172,4716306.0,4133077.0,0.0
1583190938220,4727954.0,4165365.0,0.0
1583190938265,4715018.0,4186390.0,0.0
1583190938317,4698351.0,4183519.0,0.0
1583190938364,4726302.0,4155363.0,0.0
1583190938411,4640142.0,4055799.0,0.0
1583190938463,4531740.0,3966967.0,0.0
1583190938513,4578247.0,4005227.0,0.0
1583190938561,4527760.0,3966947.0,0.0
1583190938610,4549900.0,4058059.0,0.0
1583190938658,4618081.0,4162816.0,0.0
1583190938705,4657883.0,4192891.0,0.0
1583190938756,4767821.0,4206626.0,0.0
1583190938804,4831514.0,4226970.0,0.0
1583190938855,4927886.0,4258458.0,0.0
1583190938902,4906774.0,4234583.0,0.0
1583190938954,4859816.0,4227271.0,0.0
1583190938999,4802466.0,4351091.0,0.0
1583190939043,4893060.0,4394282.0,0.0
1583190939097,4826642.0,4223780.0,0.0
1583190939147,4737133.0,4125945.0,0.0
1583190939195,4634420.0,4041654.0,0.0
1583190939244,4576958.0,4009827.0,0.0
1583190939292,4505914.0,3998736.0,0.0
1583190939341,4570489.0,4076373.0,0.0
1583190939388,4580260.0,4059971.0,0.0
1583190939438,4608820.0,4056139.0,0.0
1583190939485,4596937.0,4007318.0,0.0
1583190939535,4454840.0,3926048.0,0.0
1583190939584,4385913.0,3902541.0,0.0
1583190939634,4403744.0,3940851.0,0.0
1583190939681,4385235.0,4028932.0,0.0
1583190939732,4432509.0,4055598.0,0.0
1583190939779,4428777.0,3951833.0,0.0
1583190939827,4226527.0,3793044.0,0.0
1583190939877,4153291.0,3746194.0,0.0
1583190939926,4163547.0,3728558.0,0.0
1583190939971,4153890.0,3718087.0,0.0
1583190940023,4145377.0,3758787.0,0.0
1583190940066,4311421.0,3915765.0,0.0
1583190940120,4381911.0,3980600.0,0.0
1583190940170,4487180.0,4040135.0,0.0
1583190940218,4563220.0,3994733.0,0.0
1583190940265,4439779.0,3860431.0,0.0
1583190940315,4356536.0,3850189.0,0.0
1583190940365,4404343.0,3971009.0,0.0
1583190940409,4523259.0,4121455.0,0.0
1583190940461,4495093.0,4065932.0,0.0
1583190940509,4790706.0,4198733.0,0.0
1583190940559,5043307.0,4299188.0,0.0
1583190940606,5215425.0,4437871.0,0.0
1583190940657,5300116.0,4488124.0,0.0
1583190940705,5341986.0,4475710.0,0.0
1583190940749,5168930.0,4243474.0,0.0
1583190940803,5148192.0,4246324.0,0.0
1583190940853,5339645.0,4406885.0,0.0
1583190940899,5398918.0,4530704.0,0.0
1583190940946,5406492.0,4561093.0,0.0
1583190940997,5367381.0,4636590.0,0.0
1583190941046,5512734.0,4963770.0,0.0
1583190941089,5611977.0,5085580.0,0.0
1583190941144,5707454.0,5115838.0,0.0
1583190941192,5755079.0,5197807.0,0.0
1583190941242,5841261.0,5270395.0,0.0
1583190941286,5863854.0,5282499.0,0.0
1583190941339,5841070.0,5192756.0,0.0
1583190941388,5858178.0,5167780.0,0.0
1583190941437,5892912.0,5006130.0,0.0
1583190941485,5867268.0,4875849.0,0.0
1583190941535,5881640.0,4834369.0,0.0
1583190941582,5889893.0,4880900.0,0.0
1583190941629,5811649.0,4808232.0,0.0
1583190941679,5661897.0,4589098.0,0.0
1583190941728,5454423.0,4420987.0,0.0
1583190941778,5377964.0,4409055.0,0.0
1583190941827,5373147.0,4548370.0,0.0
1583190941869,5371282.0,4449985.0,0.0
1583190941917,5313989.0,4378378.0,0.0
1583190941968,5167618.0,4242885.0,0.0
1583190942014,4938266.0,4081505.0,0.0
1583190942067,4818738.0,3994315.0,0.0
1583190942113,4745591.0,3964066.0,0.0
1583190942162,4732160.0,4032963.0,0.0
1583190942211,4761784.0,4099980.0,0.0
1583190942260,4791873.0,4101000.0,0.0
1583190942311,4842166.0,4148201.0,0.0
1583190942357,4852772.0,4151903.0,0.0
1583190942407,4762723.0,4073433.0,0.0
1583190942459,4671701.0,4020589.0,0.0
1583190942508,4714158.0,4136348.0,0.0
1583190942551,4836683.0,4379178.0,0.0
1583190942605,4799697.0,4314183.0,0.0
1583190942654,5030056.0,4383768.0,0.0
1583190942703,4920683.0,4202534.0,0.0
1583190942748,4800341.0,4080444.0,0.0
1583190942800,4722129.0,3994723.0,0.0
1583190942849,4682725.0,3968788.0,0.0
1583190942892,4579886.0,3964436.0,0.0
1583190942947,4642393.0,4095118.0,0.0
1583190942996,4759375.0,4161895.0,0.0
1583190943044,4793567.0,4153583.0,0.0
1583190943090,4757963.0,4043977.0,0.0
1583190943141,4709601.0,4008307.0,0.0
1583190943188,4663694.0,4001206.0,0.0
1583190943238,4652117.0,4048887.0,0.0
1583190943289,4584510.0,4117993.0,0.0
1583190943338,4636263.0,4200594.0,0.0
1583190943385,4685980.0,4116973.0,0.0
1583190943436,4570512.0,3990653.0,0.0
1583190943482,4494031.0,3945262.0,0.0
1583190943532,4482419.0,3956545.0,0.0
1583190943580,4460970.0,3965456.0,0.0
1583190943629,4429966.0,3972508.0,0.0
1583190943678,4529796.0,4126226.0,0.0
1583190943727,4594732.0,4129798.0,0.0
1583190943771,4660801.0,4117934.0,0.0
1583190943823,4652613.0,4072153.0,0.0
1583190943870,4606311.0,4052138.0,0.0
1583190943920,4530881.0,4015849.0,0.0
1583190943970,4519688.0,4032442.0,0.0
1583190944019,4493307.0,4153823.0,0.0
1583190944068,4484421.0,4118485.0,0.0
1583190944115,4563175.0,4055799.0,0.0
1583190944164,4397287.0,3901641.0,0.0
1583190944210,4288989.0,3835485.0,0.0
1583190944263,4253462.0,3821082.0,0.0
1583190944310,4241838.0,3840406.0,0.0
1583190944353,4174583.0,3833374.0,0.0
1583190944408,4283788.0,3971549.0,0.0
1583190944456,4310213.0,3950392.0,0.0
1583190944506,4618963.0,4087336.0,0.0
1583190944558,4855395.0,4232832.0,0.0
1583190944602,4940594.0,4333907.0,0.0
1583190944654,5000555.0,4404083.0,0.0
1583190944701,5057871.0,4454296.0,0.0
1583190944750,5077343.0,4452626.0,0.0
1583190944792,4889600.0,4282863.0,0.0
1583190944846,5005667.0,4288666.0,0.0
1583190944890,5100669.0,4228851.0,0.0
1583190944944,5104863.0,4223120.0,0.0
1583190944997,5178745.0,4257978.0,0.0
1583190945041,5230340.0,4289036.0,0.0
1583190945092,4977127.0,4109031.0,0.0
1583190945136,4905124.0,4129257.0,0.0
1583190945183,4939723.0,4125496.0,0.0
1583190945233,4977840.0,4081426.0,0.0
1583190945286,4930960.0,4071852.0,0.0
1583190945336,4945298.0,4132327.0,0.0
1583190945383,4925862.0,4140950.0,0.0
1583190945437,4949991.0,4197723.0,0.0
1583190945481,4903677.0,4235832.0,0.0
1583190945529,4854209.0,4196673.0,0.0
1583190945575,4950229.0,4154443.0,0.0
1583190945628,4906345.0,4059201.0,0.0
1583190945671,4870625.0,4045206.0,0.0
1583190945725,4877659.0,4070353.0,0.0
1583190945777,4843499.0,4042686.0,0.0
1583190945822,4765435.0,4054808.0,0.0
1583190945872,4804774.0,4179689.0,0.0
1583190945919,4865594.0,4245906.0,0.0
1583190945969,4953236.0,4244414.0,0.0
1583190946012,4956481.0,4242293.0,0.0
1583190946066,5014294.0,4319843.0,0.0
1583190946115,5027139.0,4304489.0,0.0
1583190946164,4995649.0,4276063.0,0.0
1583190946212,4937010.0,4353340.0,0.0
1583190946254,4927014.0,4336768.0,0.0
1583190946310,4941238.0,4165676.0,0.0
1583190946353,4825669.0,4064060.0,0.0
1583190946407,4806446.0,4060550.0,0.0
1583190946452,4805260.0,4076314.0,0.0
1583190946504,4813084.0,4067681.0,0.0
1583190946557,4710416.0,4031043.0,0.0
1583190946601,4740380.0,4146822.0,0.0
1583190946653,4778146.0,4132977.0,0.0
1583190946698,4749651.0,4029403.0,0.0
1583190946749,4753111.0,4033233.0,0.0
1583190946793,4872435.0,4196943.0,0.0
1583190946845,4848837.0,4206636.0,0.0
1583190946892,4944790.0,4301799.0,0.0
1583190946942,4930519.0,4327094.0,0.0
1583190946988,4849718.0,4315702.0,0.0
1583190947035,4896790.0,4193802.0,0.0
1583190947090,4798543.0,4084055.0,0.0
1583190947136,4778292.0,4063101.0,0.0
1583190947182,4751550.0,4060570.0,0.0
1583190947232,4740593.0,4047786.0,0.0
1583190947281,4652999.0,3978000.0,0.0
1583190947330,4621328.0,3960996.0,0.0
1583190947378,4485369.0,3856741.0,0.0
1583190947426,4388061.0,3776621.0,0.0
1583190947477,4414971.0,3787613.0,0.0
1583190947528,4459420.0,3841156.0,0.0
1583190947572,4455281.0,3888538.0,0.0
1583190947625,4401257.0,3888528.0,0.0
1583190947673,4424086.0,3913264.0,0.0
1583190947722,4405215.0,3910814.0,0.0
1583190947772,4357453.0,3839006.0,0.0
1583190947820,4392821.0,3791733.0,0.0
1583190947869,4284454.0,3730529.0,0.0
1583190947914,4273180.0,3767558.0,0.0
1583190947968,4257261.0,3790815.0,0.0
1583190948016,4237947.0,3784923.0,0.0
1583190948065,4180226.0,3726949.0,0.0
1583190948114,4147423.0,3723337.0,0.0
1583190948162,4189610.0,3754075.0,0.0
1583190948212,4234737.0,3755036.0,0.0
1583190948258,4306797.0,3782052.0,0.0
1583190948309,4351427.0,3838555.0,0.0
1583190948356,4369562.0,3887138.0,0.0
1583190948406,4369641.0,3885797.0,0.0
1583190948455,4323328.0,3807087.0,0.0
1583190948497,4221779.0,3792264.0,0.0
1583190948553,4195626.0,3757675.0,0.0
1583190948601,4252749.0,3763618.0,0.0
1583190948650,4234760.0,3735190.0,0.0
1583190948694,4191047.0,3721786.0,0.0
1583190948747,4173181.0,3717587.0,0.0
1583190948794,4020841.0,3558076.0,0.0
1583190948838,3930689.0,3522429.0,0.0
1583190948893,3984227.0,3612741.0,0.0
1583190948942,4020309.0,3657331.0,0.0
1583190948989,4163049.0,3716796.0,0.0
1583190949038,4250747.0,3755365.0,0.0
1583190949089,4350815.0,3839416.0,0.0
1583190949138,4408742.0,3890058.0,0.0
1583190949185,4436240.0,3864332.0,0.0
1583190949236,4386082.0,3870854.0,0.0
1583190949283,4361658.0,3881325.0,0.0
1583190949332,4414080.0,3881827.0,0.0
1583190949380,4392888.0,3832744.0,0.0
1583190949425,4358154.0,3819351.0,0.0
1583190949475,4331954.0,3791945.0,0.0
1583190949527,4173204.0,3657732.0,0.0
1583190949577,4083041.0,3605658.0,0.0
1583190949624,4089315.0,3683968.0,0.0
1583190949673,4168964.0,3777021.0,0.0
1583190949722,4255394.0,3800927.0,0.0
1583190949772,4298203.0,3830054.0,0.0
1583190949816,4389158.0,3895881.0,0.0
1583190949870,4408663.0,3837685.0,0.0
1583190949916,4386218.0,3795655.0,0.0
1583190949966,4333606.0,3807388.0,0.0
1583190950016,4346654.0,3915725.0,0.0
1583190950064,4429049.0,3927198.0,0.0
1583190950114,4382057.0,3891569.0,0.0
1583190950158,4389101.0,3918254.0,0.0
1583190950210,4370399.0,3883436.0,0.0
1583190950257,4262282.0,3779041.0,0.0
1583190950307,4256481.0,3774980.0,0.0
1583190950357,4261920.0,3855030.0,0.0
1583190950405,4378689.0,4011739.0,0.0
1583190950455,4465186.0,4081064.0,0.0
1583190950503,4507113.0,4121165.0,0.0
1583190950552,4655000.0,4235503.0,0.0
1583190950596,4754785.0,4235052.0,0.0
1583190950649,4739204.0,4191892.0,0.0
1583190950696,4712870.0,4166987.0,0.0
1583190950739,4643738.0,4237714.0,0.0
1583190950795,4709217.0,4273511.0,0.0
1583190950844,4752296.0,4240335.0,0.0
1583190950894,4735122.0,4244435.0,0.0
1583190950936,4735981.0,4224749.0,0.0
1583190950986,4713933.0,4184551.0,0.0
1583190951037,4776143.0,4199584.0,0.0
1583190951088,4693059.0,4139140.0,0.0
1583190951132,4674153.0,4199844.0,0.0
1583190951185,4774471.0,4283924.0,0.0
1583190951236,4897605.0,4328165.0,0.0
1583190951279,4935393.0,4379217.0,0.0
1583190951332,4984636.0,4428109.0,0.0
1583190951375,5019111.0,4407235.0,0.0
1583190951425,4972887.0,4358562.0,0.0
1583190951478,4901268.0,4410756.0,0.0
1583190951527,4957533.0,4442634.0,0.0
1583190951577,4999866.0,4389971.0,0.0
1583190951626,4979096.0,4363623.0,0.0
1583190951674,4944337.0,4323994.0,0.0
1583190951718,4932634.0,4295907.0,0.0
1583190951771,4959071.0,4289726.0,0.0
1583190951817,4938932.0,4241054.0,0.0
1583190951869,4832916.0,4198123.0,0.0
1583190951917,4830080.0,4206386.0,0.0
1583190951966,4871430.0,4220359.0,0.0
1583190952015,4929773.0,4234402.0,0.0
1583190952062,4868557.0,4201665.0,0.0
1583190952112,4819281.0,4191662.0,0.0
1583190952158,4841567.0,4204854.0,0.0
1583190952210,4813537.0,4236564.0,0.0
1583190952259,4800601.0,4294548.0,0.0
1583190952307,4872051.0,4238464.0,0.0
1583190952356,4778949.0,4136149.0,0.0
1583190952405,4729705.0,4093218.0,0.0
1583190952454,4710133.0,4084106.0,0.0
1583190952498,4715278.0,4087237.0,0.0
1583190952552,4674990.0,4062961.0,0.0
1583190952599,4626133.0,4086247.0,0.0
1583190952649,4634782.0,4115484.0,0.0
1583190952697,4692449.0,4123875.0,0.0
1583190952746,4684692.0,4073723.0,0.0
1583190952794,4730124.0,4125005.0,0.0
1583190952842,4761918.0,4198314.0,0.0
1583190952893,4766939.0,4221009.0,0.0
1583190952941,4757725.0,4220578.0,0.0
1583190952985,4729524.0,4283895.0,0.0
1583190953032,4735550.0,4214588.0,0.0
1583190953080,4657046.0,4050767.0,0.0
1583190953130,4561479.0,3976519.0,0.0
1583190953178,4557555.0,4003065.0,0.0
1583190953235,4561659.0,4023541.0,0.0
1583190953279,4566556.0,4019490.0,0.0
1583190953331,4489610.0,3959805.0,0.0
1583190953379,4505677.0,3998014.0,0.0
1583190953424,4483120.0,3956835.0,0.0
1583190953477,4507804.0,3941530.0,0.0
1583190953524,4558108.0,3977411.0,0.0
1583190953574,4574673.0,4014128.0,0.0
1583190953618,4531616.0,4027251.0,0.0
1583190953672,4585144.0,4081775.0,0.0
1583190953719,4544902.0,4128306.0,0.0
1583190953771,4552003.0,4054568.0,0.0
1583190953818,4508074.0,3944821.0,0.0
1583190953867,4419100.0,3895810.0,0.0
1583190953916,4413129.0,3906003.0,0.0
1583190953962,4424923.0,3937540.0,0.0
1583190954015,4480079.0,3968497.0,0.0
1583190954061,4401629.0,3924207.0,0.0
1583190954104,4398035.0,3912525.0,0.0
1583190954158,4339191.0,3847267.0,0.0
1583190954208,4373735.0,3841867.0,0.0
1583190954257,4411241.0,3869324.0,0.0
1583190954302,4420648.0,3901360.0,0.0
1583190954354,4437857.0,3936239.0,0.0
1583190954399,4454830.0,3982791.0,0.0
1583190954452,4432442.0,4035293.0,0.0
1583190954499,4441453.0,3928718.0,0.0
1583190954550,4363761.0,3849518.0,0.0
1583190954599,4299402.0,3823122.0,0.0
1583190954647,4295015.0,3849498.0,0.0
1583190954695,4325737.0,3883066.0,0.0
1583190954739,4331694.0,3870023.0,0.0
1583190954793,4286411.0,3884617.0,0.0
1583190954843,4266554.0,3833325.0,0.0
1583190954891,4214960.0,3784023.0,0.0
1583190954938,4246168.0,3790073.0,0.0
1583190954983,4306379.0,3845398.0,0.0
1583190955036,4279287.0,3847109.0,0.0
1583190955082,4307803.0,3880675.0,0.0
1583190955135,4343612.0,3913295.0,0.0
1583190955181,4243456.0,3848078.0,0.0
1583190955232,4144473.0,3686298.0,0.0
1583190955282,4044517.0,3620522.0,0.0
1583190955331,4012168.0,3630114.0,0.0
1583190955378,4043467.0,3696550.0,0.0
1583190955423,4119155.0,3726258.0,0.0
1583190955477,4079546.0,3694711.0,0.0
1583190955520,4125543.0,3730919.0,0.0
1583190955575,4086580.0,3698771.0,0.0
1583190955621,4057171.0,3679256.0,0.0
1583190955671,4123871.0,3728400.0,0.0
1583190955720,4137959.0,3763047.0,0.0
1583190955771,4115413.0,3779842.0,0.0
1583190955817,4175500.0,3825013.0,0.0
1583190955867,4140854.0,3882827.0,0.0
1583190955915,4106808.0,3758787.0,0.0
1583190955960,4006491.0,3657291.0,0.0
1583190956014,3943476.0,3626524.0,0.0
1583190956061,3891657.0,3616312.0,0.0
1583190956112,3869507.0,3614752.0,0.0
1583190956158,3886195.0,3624033.0,0.0
1583190956207,3845083.0,3588894.0,0.0
1583190956257,3841397.0,3574822.0,0.0
1583190956300,3875646.0,3590334.0,0.0
1583190956355,3952262.0,3621733.0,0.0
1583190956402,3959239.0,3656742.0,0.0
1583190956452,4069020.0,3755125.0,0.0
1583190956499,4043613.0,3754215.0,0.0
1583190956550,4069857.0,3757856.0,0.0
1583190956598,3984997.0,3723607.0,0.0
1583190956641,3984715.0,3722747.0,0.0
1583190956695,4004049.0,3675385.0,0.0
1583190956746,3979457.0,3648010.0,0.0
1583190956794,3950285.0,3659873.0,0.0
1583190956841,3963038.0,3685268.0,0.0
1583190956891,4029129.0,3716677.0,0.0
1583190956938,3958357.0,3615272.0,0.0
1583190956982,3947672.0,3621552.0,0.0
1583190957036,3914361.0,3622633.0,0.0
1583190957085,4000579.0,3680556.0,0.0
1583190957136,4128902.0,3765688.0,0.0
1583190957182,4147829.0,3815659.0,0.0
1583190957233,4134385.0,3824883.0,0.0
1583190957280,4119619.0,3775030.0,0.0
1583190957326,3997141.0,3698251.0,0.0
1583190957378,3929614.0,3672025.0,0.0
1583190957421,4015989.0,3678697.0,0.0
1583190957475,3998305.0,3658002.0,0.0
1583190957523,4006773.0,3689990.0,0.0
1583190957573,4035405.0,3729019.0,0.0
1583190957620,4090345.0,3719826.0,0.0
1583190957672,3929921.0,3549086.0,0.0
1583190957719,3918307.0,3585064.0,0.0
1583190957762,3957158.0,3627294.0,0.0
1583190957816,4060178.0,3685599.0,0.0
1583190957867,4120602.0,3738290.0,0.0
1583190957915,4194415.0,3806929.0,0.0
1583190957962,4142504.0,3805448.0,0.0
1583190958013,4097649.0,3732189.0,0.0
1583190958059,4066883.0,3716417.0,0.0
1583190958106,4004093.0,3706603.0,0.0
1583190958157,4048723.0,3689528.0,0.0
1583190958203,4100656.0,3709374.0,0.0
1583190958256,4107859.0,3728739.0,0.0
1583190958304,4195592.0,3781241.0,0.0
1583190958353,4238287.0,3676767.0,0.0
1583190958401,4174752.0,3541634.0,0.0
1583190958449,4073916.0,3517828.0,0.0
1583190958499,4097796.0,3605859.0,0.0
1583190958545,4224855.0,3700002.0,0.0
1583190958596,4283979.0,3734580.0,0.0
1583190958647,4367030.0,3804657.0,0.0
1583190958695,4395333.0,3826192.0,0.0
1583190958743,4313333.0,3721998.0,0.0
1583190958793,4269744.0,3700471.0,0.0
1583190958841,4217085.0,3766759.0,0.0
1583190958886,4281809.0,3764738.0,0.0
1583190958938,4245026.0,3725547.0,0.0
1583190958985,4278993.0,3763567.0,0.0
1583190959035,4293896.0,3773450.0,0.0
1583190959084,4211354.0,3679166.0,0.0
1583190959134,4143963.0,3614270.0,0.0
1583190959182,4102828.0,3611040.0,0.0
1583190959234,4084217.0,3606448.0,0.0
1583190959280,4139599.0,3673274.0,0.0
1583190959327,4248758.0,3726088.0,0.0
1583190959377,4333572.0,3769289.0,0.0
1583190959425,4377309.0,3781512.0,0.0
1583190959476,4339600.0,3698732.0,0.0
1583190959524,4340640.0,3681987.0,0.0
1583190959573,4308922.0,3731760.0,0.0
1583190959621,4295196.0,3796555.0,0.0
1583190959670,4390040.0,3819032.0,0.0
1583190959719,4459645.0,3851020.0,0.0
1583190959766,4468071.0,3812339.0,0.0
1583190959817,4357906.0,3721827.0,0.0
1583190959865,4376923.0,3741773.0,0.0
1583190959915,4415063.0,3760648.0,0.0
1583190959963,4385495.0,3763978.0,0.0
1583190960008,4382453.0,3801327.0,0.0
1583190960055,4462010.0,3888418.0,0.0
1583190960104,4624560.0,3983112.0,0.0
1583190960158,4683585.0,4015179.0,0.0
1583190960206,4724120.0,4057829.0,0.0
1583190960255,4767223.0,4099139.0,0.0
1583190960304,4744699.0,4084677.0,0.0
1583190960354,4699515.0,4107052.0,0.0
1583190960401,4712563.0,4179610.0,0.0
1583190960451,4759444.0,4143079.0,0.0
1583190960499,4726867.0,4022430.0,0.0
1583190960549,4625578.0,3928697.0,0.0
1583190960597,4578031.0,3904963.0,0.0
1583190960646,4627750.0,3940321.0,0.0
1583190960695,4572988.0,3899680.0,0.0
1583190960743,4589090.0,3943982.0,0.0
1583190960793,4586762.0,3964846.0,0.0
1583190960840,4674131.0,3990042.0,0.0
1583190960887,4713378.0,3926217.0,0.0
1583190960937,4743964.0,3953934.0,0.0
1583190960987,4833448.0,4030063.0,0.0
1583190961036,4902387.0,4083705.0,0.0
1583190961086,4908359.0,4116683.0,0.0
1583190961134,4822469.0,4141840.0,0.0
1583190961182,4871722.0,4177619.0,0.0
1583190961231,4877377.0,4139188.0,0.0
1583190961280,4899685.0,4170237.0,0.0
1583190961327,4912676.0,4206405.0,0.0
1583190961377,4987938.0,4298849.0,0.0
1583190961425,5009657.0,4288605.0,0.0
1583190961476,5002477.0,4328096.0,0.0
1583190961522,4856254.0,4248476.0,0.0
1583190961570,4939339.0,4336347.0,0.0
1583190961619,5121247.0,4337107.0,0.0
1583190961667,5112484.0,4302549.0,0.0
1583190961718,5197854.0,4396271.0,0.0
1583190961767,5294077.0,4470020.0,0.0
1583190961816,5319903.0,4455936.0,0.0
1583190961864,5280995.0,4461007.0,0.0
1583190961910,5181752.0,4433231.0,0.0
1583190961961,5176811.0,4341199.0,0.0
1583190962008,5203846.0,4277983.0,0.0
1583190962059,5240641.0,4289145.0,0.0
1583190962108,5229718.0,4295237.0,0.0
1583190962157,5254536.0,4336538.0,0.0
1583190962204,5246984.0,4299668.0,0.0
1583190962251,5165549.0,4269210.0,0.0
1583190962300,5081085.0,4184380.0,0.0
