time,value
1576760436457,4753641.0
1576760436503,4736284.0
1576760436553,4666819.0
1576760436629,4644733.0
1576760436675,4596264.0
1576760436737,4577934.0
1576760436753,4531797.0
1576760436848,4483456.0
1576760436851,4477242.0
1576760436890,4436547.0
1576760436939,4377350.0
1576760436987,4352440.0
1576760437040,4288166.0
1576760437087,4190807.0
1576760437139,4111882.0
1576760437183,4060649.0
1576760437238,4017767.0
1576760437286,3982872.0
1576760437333,3971496.0
1576760437381,3973065.0
1576760437430,3945364.0
1576760437482,3905680.0
1576760437529,3925694.0
1576760437582,3868596.0
1576760437624,3831745.0
1576760437678,3858696.0
1576760437723,3895913.0
1576760437775,3952241.0
1576760437823,3919695.0
1576760437874,3899564.0
1576760437923,3921111.0
1576760437972,3928007.0
1576760438020,3917094.0
1576760438070,3909851.0
1576760438120,3911161.0
1576760438170,3892561.0
1576760438222,3864677.0
1576760438273,3863174.0
1576760438313,3923683.0
1576760438364,3981878.0
1576760438417,4014868.0
1576760438466,3999313.0
1576760438515,4016747.0
1576760438561,4028208.0
1576760438611,4039342.0
1576760438663,4037869.0
1576760438710,4037138.0
1576760438761,4024307.0
1576760438806,4019317.0
1576760438859,3996308.0
1576760438905,4001182.0
1576760438955,4053532.0
1576760439005,4089467.0
1576760439053,4101142.0
1576760439106,4095112.0
1576760439151,4094862.0
1576760439201,4096595.0
1576760439252,4095016.0
1576760439301,4074481.0
1576760439342,4060600.0
1576760439396,4041569.0
1576760439445,3986253.0
1576760439495,3927708.0
1576760439547,3877178.0
1576760439587,3914455.0
1576760439647,3943283.0
1576760439691,3940953.0
1576760439740,3932680.0
1576760439785,3908098.0
1576760439838,3878808.0
1576760439880,3859139.0
1576760439929,3812047.0
1576760439984,3746549.0
1576760440028,3695867.0
1576760440083,3660615.0
1576760440127,3638028.0
1576760440183,3626044.0
1576760440229,3613628.0
1576760440283,3600587.0
1576760440331,3576372.0
1576760440371,3562406.0
1576760440423,3505895.0
1576760440474,3445705.0
1576760440527,3405086.0
1576760440571,3369333.0
1576760440622,3346533.0
1576760440668,3327028.0
1576760440719,3297007.0
1576760440765,3283657.0
1576760440813,3279004.0
1576760440864,3242134.0
1576760440915,3177927.0
1576760440968,3127686.0
1576760441013,3090391.0
1576760441068,3069972.0
1576760441110,3061176.0
1576760441161,2997989.0
1576760441208,2987103.0
1576760441260,2984435.0
1576760441306,2982867.0
1576760441357,2948561.0
1576760441404,2897247.0
1576760441454,2858313.0
1576760441505,2835145.0
1576760441552,2825268.0
1576760441602,2814130.0
1576760441650,2799083.0
1576760441700,2788666.0
1576760441746,2790294.0
1576760441792,2794298.0
1576760441842,2762327.0
1576760441899,2709652.0
1576760441957,2671274.0
1576760441995,2649370.0
1576760442041,2642608.0
1576760442090,2641820.0
1576760442141,2636247.0
1576760442189,2630690.0
1576760442242,2632502.0
1576760442282,2638604.0
1576760442339,2621334.0
1576760442389,2570065.0
1576760442437,2540359.0
1576760442480,2534816.0
1576760442527,2547090.0
1576760442581,2550269.0
1576760442629,2546726.0
1576760442673,2547305.0
1576760442725,2554439.0
1576760442773,2567783.0
1576760442826,2551600.0
1576760442870,2502753.0
1576760442926,2485686.0
1576760442974,2496489.0
1576760443021,2509151.0
1576760443069,2506587.0
1576760443124,2507018.0
1576760443163,2514515.0
1576760443222,2527162.0
1576760443270,2543575.0
1576760443317,2538457.0
1576760443366,2502916.0
1576760443416,2483427.0
1576760443461,2487379.0
1576760443511,2500108.0
1576760443562,2507292.0
1576760443608,2513706.0
1576760443662,2523765.0
1576760443704,2536354.0
1576760443764,2548963.0
1576760443810,2550723.0
1576760443858,2521589.0
1576760443906,2506833.0
1576760443953,2516492.0
1576760444001,2531405.0
1576760444046,2543636.0
1576760444103,2554061.0
1576760444144,2561802.0
1576760444201,2576558.0
1576760444250,2594614.0
1576760444298,2601435.0
1576760444346,2570118.0
1576760444396,2552269.0
1576760444444,2557537.0
1576760444493,2576410.0
1576760444544,2586248.0
1576760444586,2591071.0
1576760444642,2598635.0
1576760444692,2606896.0
1576760444738,2618556.0
1576760444789,2623786.0
1576760444836,2594161.0
1576760444886,2572643.0
1576760444932,2571142.0
1576760444982,2583558.0
1576760445025,2600330.0
1576760445084,2605626.0
1576760445131,2610895.0
1576760445180,2619692.0
1576760445228,2632665.0
1576760445278,2648218.0
1576760445323,2630853.0
1576760445376,2606451.0
1576760445421,2606214.0
1576760445467,2619298.0
1576760445518,2637555.0
1576760445564,2645833.0
1576760445616,2652944.0
1576760445662,2659496.0
1576760445718,2671051.0
1576760445767,2687191.0
1576760445810,2692845.0
1576760445862,2671616.0
1576760445912,2657787.0
1576760445962,2663911.0
1576760446012,2679767.0
1576760446064,2689828.0
1576760446107,2694397.0
1576760446159,2699993.0
1576760446209,2704660.0
1576760446255,2713709.0
1576760446305,2724662.0
1576760446353,2703209.0
1576760446400,2682814.0
1576760446446,2676965.0
1576760446504,2691425.0
1576760446545,2708047.0
1576760446601,2712758.0
1576760446649,2713597.0
1576760446697,2718256.0
1576760446749,2727783.0
1576760446790,2741231.0
1576760446847,2726467.0
1576760446896,2701212.0
1576760446942,2693514.0
1576760446989,2705387.0
1576760447044,2721147.0
1576760447089,2726444.0
1576760447140,2728421.0
1576760447188,2734224.0
1576760447236,2745035.0
1576760447288,2756583.0
1576760447329,2761234.0
1576760447387,2740963.0
1576760447428,2725211.0
1576760447479,2728586.0
1576760447530,2745593.0
1576760447582,2756248.0
1576760447631,2755803.0
1576760447678,2752987.0
1576760447729,2752473.0
1576760447770,2756642.0
1576760447828,2758857.0
1576760447869,2740398.0
1576760447925,2717535.0
1576760447972,2714244.0
1576760448024,2722842.0
1576760448071,2730999.0
1576760448119,2724750.0
1576760448169,2727381.0
1576760448215,2731416.0
1576760448268,2740183.0
1576760448309,2752920.0
1576760448367,2750630.0
1576760448410,2745697.0
1576760448462,2753225.0
1576760448512,2775308.0
1576760448562,2798935.0
1576760448610,2822609.0
1576760448656,2846193.0
1576760448709,2884065.0
1576760448749,2936777.0
1576760448808,2991026.0
1576760448849,3028853.0
1576760448904,3057603.0
1576760448951,3088030.0
1576760449002,3124618.0
1576760449044,3163194.0
1576760449099,3180426.0
1576760449148,3174615.0
1576760449190,3147353.0
1576760449249,3106702.0
1576760449290,3075553.0
1576760449343,3050290.0
1576760449392,3014617.0
1576760449444,2967844.0
1576760449492,2942705.0
1576760449539,2930283.0
1576760449589,2919976.0
1576760449637,2908891.0
1576760449689,2896867.0
1576760449730,2890880.0
1576760449786,2887722.0
1576760449832,2882342.0
1576760449885,2853786.0
1576760449934,2820662.0
1576760449974,2802517.0
1576760450024,2805615.0
1576760450072,2834505.0
1576760450124,2872704.0
1576760450173,2934822.0
1576760450223,3004586.0
1576760450273,3080005.0
1576760450327,3157867.0
1576760450373,3211969.0
1576760450426,3262547.0
1576760450472,3309098.0
1576760450516,3355501.0
1576760450565,3399066.0
1576760450615,3445424.0
1576760450664,3497012.0
1576760450713,3524498.0
1576760450769,3525040.0
1576760450814,3511078.0
1576760450863,3496708.0
1576760450914,3507921.0
1576760450962,3586401.0
1576760451011,3570350.0
1576760451055,3502340.0
1576760451110,3438514.0
1576760451152,3433075.0
1576760451209,3429434.0
1576760451255,3463212.0
1576760451306,3476400.0
1576760451354,3476073.0
1576760451403,3464244.0
1576760451453,3391323.0
1576760451495,3343077.0
1576760451550,3203840.0
1576760451592,3202234.0
1576760451650,3370979.0
1576760451694,3439294.0
1576760451747,3405084.0
1576760451796,3403070.0
1576760451843,3400254.0
1576760451886,3333514.0
1576760451936,3311061.0
1576760451991,3372783.0
1576760452033,3273522.0
1576760452089,3346094.0
1576760452136,3362976.0
1576760452188,3294378.0
1576760452236,3265883.0
1576760452280,3219399.0
1576760452327,3210014.0
1576760452382,3195747.0
1576760452432,3189351.0
1576760452474,3175552.0
1576760452530,3210067.0
1576760452577,3240301.0
1576760452629,3226496.0
1576760452677,3232833.0
1576760452720,3225313.0
1576760452773,3251023.0
1576760452823,3271411.0
1576760452872,3307144.0
1576760452915,3364796.0
1576760452971,3560766.0
1576760453014,3682616.0
1576760453068,3764008.0
1576760453116,3723394.0
1576760453167,3813034.0
1576760453217,3847415.0
1576760453260,3802819.0
1576760453313,3747588.0
1576760453360,3734733.0
1576760453403,3761824.0
1576760453453,3831834.0
1576760453511,3838856.0
1576760453556,3854935.0
1576760453609,3871177.0
1576760453657,3898737.0
1576760453706,3927864.0
1576760453754,3936186.0
1576760453799,3943779.0
1576760453853,3945652.0
1576760453895,3948661.0
1576760453951,3938125.0
1576760453997,3925560.0
1576760454051,3907898.0
1576760454089,3900952.0
1576760454145,3888178.0
1576760454190,3866585.0
1576760454237,3836411.0
1576760454293,3819499.0
1576760454334,3790445.0
1576760454383,3770177.0
1576760454437,3751994.0
1576760454490,3734020.0
1576760454538,3719478.0
1576760454580,3711632.0
1576760454627,3720200.0
1576760454677,3725423.0
1576760454728,3721886.0
1576760454779,3724464.0
1576760454827,3718083.0
1576760454878,3716827.0
1576760454930,3717412.0
1576760454979,3716410.0
1576760455026,3713206.0
1576760455077,3712568.0
1576760455124,3718192.0
1576760455175,3717711.0
1576760455216,3719903.0
1576760455272,3720385.0
1576760455317,3718215.0
1576760455369,3704856.0
1576760455421,3696556.0
1576760455470,3695181.0
1576760455517,3677689.0
1576760455565,3668536.0
1576760455615,3657658.0
1576760455658,3647916.0
1576760455714,3652880.0
1576760455758,3654018.0
1576760455805,3655102.0
1576760455861,3657457.0
1576760455910,3699691.0
1576760455958,3718580.0
1576760456006,3809231.0
1576760456057,3831714.0
1576760456098,3832324.0
1576760456154,3818786.0
1576760456197,3821068.0
1576760456251,3811905.0
1576760456300,3798523.0
1576760456350,3796650.0
1576760456400,3815755.0
1576760456447,3834947.0
1576760456496,3840788.0
1576760456539,3826893.0
1576760456594,3820235.0
1576760456638,3824879.0
1576760456692,3825934.0
1576760456740,3875754.0
1576760456790,3859675.0
1576760456841,3842838.0
1576760456887,3813042.0
1576760456938,3759573.0
1576760456981,3791026.0
1576760457036,3768222.0
1576760457082,3757381.0
1576760457134,3793099.0
1576760457181,3699462.0
1576760457230,3706794.0
1576760457281,3774738.0
1576760457324,3804958.0
1576760457379,3753888.0
1576760457419,3864697.0
1576760457476,3930085.0
1576760457523,3870226.0
1576760457574,3935406.0
1576760457620,3901299.0
1576760457670,3985733.0
1576760457722,3950468.0
1576760457764,3922261.0
1576760457812,3997517.0
1576760457863,3960305.0
1576760457912,4002027.0
1576760457962,4072890.0
1576760458010,3908463.0
1576760458059,3875992.0
1576760458105,3838632.0
1576760458159,3766267.0
1576760458206,3728700.0
1576760458256,3754735.0
1576760458303,3751942.0
1576760458353,3750009.0
1576760458403,3763689.0
1576760458452,3744794.0
1576760458499,3692269.0
1576760458549,3615022.0
1576760458600,3540421.0
1576760458647,3503729.0
1576760458698,3473956.0
1576760458750,3404944.0
1576760458805,3321492.0
1576760458843,3251795.0
1576760458898,3260586.0
1576760458943,3222771.0
1576760458997,3200993.0
1576760459045,3197442.0
1576760459088,3263498.0
1576760459140,3351340.0
1576760459185,3347380.0
1576760459243,3301534.0
1576760459283,3394533.0
1576760459333,3370904.0
1576760459382,3370660.0
1576760459438,3289274.0
1576760459485,3240561.0
1576760459533,3262368.0
1576760459586,3252435.0
1576760459630,3224273.0
1576760459683,3186147.0
1576760459723,3170982.0
1576760459780,3177528.0
1576760459822,3253170.0
1576760459877,3380742.0
1576760459924,3534752.0
1576760459973,3741852.0
1576760460019,3854295.0
1576760460065,3925865.0
1576760460116,3976972.0
1576760460163,4033865.0
1576760460213,4081257.0
1576760460261,4152484.0
1576760460310,4219180.0
1576760460360,4287941.0
1576760460411,4328777.0
1576760460464,4351782.0
1576760460506,4358359.0
1576760460563,4340957.0
1576760460606,4374534.0
1576760460657,4448235.0
1576760460705,4503220.0
1576760460754,4667830.0
1576760460807,4701763.0
1576760460858,4715064.0
1576760460906,4711531.0
1576760460955,4678050.0
1576760461001,4689405.0
1576760461051,4724573.0
1576760461104,4790619.0
1576760461144,4846986.0
1576760461201,4871102.0
1576760461240,4878039.0
1576760461298,4869148.0
1576760461347,4844288.0
1576760461395,4845752.0
1576760461441,4877933.0
1576760461491,4934916.0
1576760461544,4996445.0
1576760461591,5008908.0
1576760461641,5012386.0
1576760461683,4991445.0
1576760461738,4984964.0
1576760461789,4948372.0
1576760461837,4880889.0
1576760461883,4787277.0
1576760461931,4745935.0
1576760461982,4709825.0
1576760462030,4693211.0
1576760462082,4693075.0
1576760462122,4671124.0
1576760462179,4648104.0
1576760462228,4609586.0
1576760462276,4547132.0
1576760462325,4430171.0
1576760462372,4328419.0
1576760462421,4254955.0
1576760462470,4119568.0
1576760462522,4049438.0
1576760462563,3991964.0
1576760462620,3944622.0
1576760462666,3901817.0
1576760462718,3853937.0
1576760462767,3805653.0
1576760462809,3740897.0
1576760462861,3687535.0
1576760462913,3654121.0
1576760462964,3637323.0
1576760463004,3600058.0
1576760463061,3546782.0
1576760463108,3503670.0
1576760463159,3462454.0
1576760463206,3463533.0
1576760463256,3492614.0
1576760463305,3525284.0
1576760463353,3526806.0
1576760463400,3478578.0
1576760463445,3453777.0
1576760463501,3436564.0
1576760463546,3380738.0
1576760463600,3391709.0
1576760463650,3446428.0
1576760463697,3510337.0
1576760463744,3598014.0
1576760463792,3688825.0
1576760463843,3753908.0
1576760463886,3799883.0
1576760463944,3831515.0
1576760463989,3868385.0
1576760464039,3918703.0
1576760464086,3942686.0
1576760464137,3919782.0
1576760464185,3897146.0
1576760464235,3884990.0
1576760464281,3922180.0
1576760464326,3897088.0
1576760464384,3909755.0
1576760464429,3940114.0
1576760464480,4030732.0
1576760464533,4129922.0
1576760464578,4216437.0
1576760464625,4207412.0
1576760464676,4163470.0
1576760464723,4183572.0
1576760464772,4232937.0
1576760464824,4273217.0
1576760464868,4392057.0
1576760464922,4475239.0
1576760464972,4545917.0
1576760465010,4554752.0
1576760465060,4532386.0
1576760465117,4509691.0
1576760465166,4481653.0
1576760465213,4472185.0
1576760465261,4484370.0
1576760465306,4528753.0
1576760465364,4609875.0
1576760465406,4662050.0
1576760465460,4665683.0
1576760465508,4656705.0
1576760465557,4631007.0
1576760465604,4620239.0
1576760465653,4606677.0
1576760465701,4629148.0
1576760465745,4665874.0
1576760465803,4729504.0
1576760465847,4763389.0
1576760465896,4770738.0
1576760465951,4744760.0
1576760465996,4716346.0
1576760466047,4688770.0
1576760466090,4665585.0
1576760466146,4655780.0
1576760466188,4702957.0
1576760466240,4754923.0
1576760466292,4809565.0
1576760466334,4853564.0
1576760466390,4830880.0
1576760466432,4802822.0
1576760466488,4764082.0
1576760466530,4744163.0
1576760466585,4755606.0
1576760466627,4793335.0
1576760466687,4824263.0
1576760466729,4891995.0
1576760466783,4889443.0
1576760466824,4852455.0
1576760466871,4822914.0
1576760466921,4827306.0
1576760466972,4839781.0
1576760467022,4872240.0
1576760467070,4892718.0
1576760467119,4950337.0
1576760467170,4957464.0
1576760467224,4967972.0
1576760467270,4984897.0
1576760467318,4978616.0
1576760467368,4955566.0
1576760467412,4934849.0
1576760467468,4906481.0
1576760467508,4898728.0
1576760467564,4943227.0
1576760467609,4976111.0
1576760467663,4997128.0
1576760467711,5046434.0
1576760467754,4985492.0
1576760467809,4843392.0
1576760467852,4721576.0
1576760467908,4693201.0
1576760467948,4611608.0
1576760467998,4517089.0
1576760468051,4380999.0
1576760468103,4276347.0
1576760468152,4236548.0
1576760468202,4166292.0
1576760468249,4086964.0
1576760468293,4012105.0
1576760468341,3978961.0
1576760468388,4024616.0
1576760468447,4080818.0
1576760468491,4157730.0
1576760468543,4198792.0
1576760468591,4260975.0
1576760468640,4299897.0
1576760468687,4343444.0
1576760468734,4374304.0
1576760468789,4398866.0
1576760468831,4397076.0
1576760468888,4402161.0
1576760468931,4328380.0
1576760468982,4213922.0
1576760469032,4106227.0
1576760469082,4005313.0
1576760469124,3922440.0
1576760469178,3832968.0
1576760469229,3748882.0
1576760469269,3679550.0
1576760469329,3580052.0
1576760469371,3454624.0
1576760469428,3350251.0
1576760469473,3280111.0
1576760469523,3219498.0
1576760469573,3158816.0
1576760469619,3102825.0
1576760469670,3051660.0
1576760469714,3006949.0
1576760469769,2928485.0
1576760469809,2903816.0
1576760469868,2861157.0
1576760469913,2789091.0
1576760469965,2738564.0
1576760470013,2711724.0
1576760470060,2699487.0
1576760470103,2680354.0
1576760470154,2662231.0
1576760470209,2648039.0
1576760470251,2640475.0
1576760470307,2644622.0
1576760470356,2654770.0
1576760470405,2654482.0
1576760470453,2616996.0
1576760470501,2564366.0
1576760470552,2545107.0
1576760470593,2550597.0
1576760470649,2560465.0
1576760470691,2560160.0
1576760470749,2562515.0
1576760470794,2570355.0
1576760470843,2581217.0
1576760470894,2592229.0
1576760470946,2603985.0
1576760470991,2614877.0
1576760471033,2598560.0
1576760471089,2550093.0
1576760471132,2535135.0
1576760471187,2542506.0
1576760471235,2557738.0
1576760471286,2563423.0
1576760471334,2565658.0
1576760471383,2575140.0
1576760471433,2589324.0
1576760471476,2602684.0
1576760471531,2616832.0
1576760471572,2628126.0
1576760471630,2629418.0
1576760471675,2586701.0
1576760471729,2559343.0
1576760471777,2562241.0
1576760471819,2579175.0
1576760471873,2590906.0
1576760471916,2596026.0
1576760471971,2602298.0
1576760472013,2608585.0
1576760472070,2620858.0
1576760472115,2635326.0
1576760472168,2646316.0
1576760472216,2655158.0
1576760472263,2619491.0
1576760472313,2584332.0
1576760472356,2581455.0
1576760472402,2597906.0
1576760472457,2611512.0
1576760472503,2615984.0
1576760472555,2622508.0
1576760472602,2633126.0
1576760472648,2644384.0
1576760472704,2658746.0
1576760472754,2669736.0
1576760472803,2681506.0
1576760472852,2675234.0
1576760472895,2638327.0
1576760472950,2624768.0
1576760472996,2636694.0
1576760473048,2654638.0
1576760473098,2662670.0
1576760473146,2666601.0
1576760473194,2673273.0
1576760473241,2686982.0
1576760473293,2701576.0
1576760473333,2718390.0
1576760473391,2725278.0
1576760473437,2727202.0
1576760473490,2703827.0
1576760473537,2684678.0
1576760473587,2688215.0
1576760473635,2704940.0
1576760473681,2715708.0
1576760473732,2717068.0
1576760473776,2724520.0
1576760473833,2737101.0
1576760473877,2752898.0
1576760473930,2764785.0
1576760473979,2782114.0
1576760474028,2789150.0
1576760474075,2760610.0
1576760474121,2739551.0
1576760474172,2739397.0
1576760474217,2755059.0
1576760474271,2767691.0
1576760474317,2771130.0
1576760474369,2777715.0
1576760474418,2783851.0
1576760474467,2796202.0
1576760474517,2809925.0
1576760474565,2821731.0
1576760474613,2833034.0
1576760474658,2814717.0
1576760474711,2789113.0
1576760474757,2782120.0
1576760474811,2796921.0
1576760474859,2812326.0
1576760474905,2835478.0
1576760474957,2857577.0
1576760475003,2884630.0
1576760475054,2920021.0
1576760475097,2951667.0
1576760475152,2959802.0
1576760475198,2970554.0
1576760475250,2987928.0
1576760475300,3044524.0
1576760475342,3127694.0
1576760475397,3262236.0
1576760475440,3369047.0
1576760475494,3429441.0
1576760475536,3464133.0
1576760475592,3483704.0
1576760475638,3529736.0
1576760475691,3694929.0
1576760475741,3852690.0
1576760475788,3929758.0
1576760475839,3971458.0
1576760475885,4067547.0
1576760475936,4080461.0
1576760475978,4132526.0
1576760476034,4162492.0
1576760476078,4208658.0
1576760476131,4239843.0
1576760476181,4300111.0
1576760476229,4315603.0
1576760476279,4349226.0
1576760476327,4352526.0
1576760476376,4366346.0
1576760476419,4363908.0
1576760476474,4386066.0
1576760476522,4461417.0
1576760476571,4482521.0
1576760476619,4495225.0
1576760476666,4520856.0
1576760476718,4532616.0
1576760476761,4548201.0
1576760476810,4555589.0
1576760476858,4578147.0
1576760476915,4581026.0
1576760476959,4593741.0
1576760477010,4619322.0
1576760477063,4628839.0
1576760477107,4638232.0
1576760477151,4658275.0
1576760477200,4667810.0
1576760477257,4675102.0
1576760477299,4682577.0
1576760477347,4694241.0
1576760477400,4686872.0
1576760477444,4688278.0
1576760477495,4687912.0
1576760477544,4701899.0
1576760477594,4713833.0
1576760477644,4741745.0
1576760477692,4757061.0
1576760477741,4749730.0
1576760477794,4728397.0
1576760477843,4715229.0
1576760477891,4704095.0
1576760477943,4650684.0
1576760477985,4578330.0
1576760478041,4503287.0
1576760478083,4439495.0
1576760478137,4358365.0
1576760478183,4309617.0
1576760478233,4291990.0
1576760478285,4279180.0
1576760478327,4276175.0
1576760478384,4252038.0
1576760478424,4185114.0
1576760478480,4124606.0
1576760478523,4082070.0
1576760478576,4058174.0
1576760478625,4034035.0
1576760478674,4007192.0
1576760478723,3984499.0
1576760478766,3973904.0
1576760478817,3964176.0
1576760478864,3957000.0
1576760478915,3930136.0
1576760478963,3888209.0
1576760479010,3866140.0
1576760479059,3863637.0
1576760479110,3873162.0
1576760479162,3874732.0
1576760479207,3880791.0
1576760479258,3879308.0
1576760479305,3867412.0
1576760479355,3862731.0
1576760479404,3847745.0
1576760479454,3803725.0
1576760479503,3770264.0
1576760479551,3756462.0
1576760479601,3777834.0
1576760479649,3837909.0
1576760479701,3883304.0
1576760479747,3899207.0
1576760479804,4085355.0
1576760479844,4168007.0
1576760479901,4111169.0
1576760479943,4046866.0
1576760479998,3984180.0
1576760480042,3929750.0
1576760480096,3905227.0
1576760480145,3905410.0
1576760480192,3910351.0
1576760480242,3913098.0
1576760480290,3926688.0
1576760480342,3942696.0
1576760480383,3960957.0
1576760480439,3969761.0
1576760480483,3966362.0
1576760480537,3945384.0
1576760480588,3898061.0
1576760480632,3874001.0
1576760480681,3866044.0
1576760480725,3873231.0
1576760480783,3861268.0
1576760480832,3841261.0
1576760480880,3827980.0
1576760480922,3813877.0
1576760480978,3810074.0
1576760481028,3807530.0
1576760481068,3807713.0
1576760481125,3803534.0
1576760481170,3752976.0
1576760481220,3695847.0
1576760481265,3657126.0
1576760481323,3633432.0
1576760481371,3614390.0
1576760481419,3596734.0
1576760481461,3592141.0
1576760481517,3587805.0
1576760481566,3594114.0
1576760481612,3588981.0
1576760481662,3587323.0
1576760481704,3591369.0
1576760481763,3595637.0
1576760481803,3582075.0
1576760481861,3540975.0
1576760481901,3519284.0
1576760481957,3517261.0
1576760482004,3498709.0
1576760482056,3491813.0
1576760482101,3488548.0
1576760482151,3488105.0
1576760482200,3511578.0
1576760482248,3509093.0
1576760482302,3492766.0
1576760482340,3473137.0
1576760482399,3457773.0
1576760482444,3394299.0
1576760482497,3265326.0
1576760482545,3162977.0
1576760482592,3095438.0
1576760482636,3033986.0
1576760482690,2992058.0
1576760482744,2919903.0
1576760482785,2891948.0
1576760482843,2882222.0
1576760482890,2882639.0
1576760482939,2887113.0
1576760482985,2901892.0
1576760483036,2906282.0
1576760483084,2888679.0
1576760483132,2850265.0
1576760483180,2802992.0
1576760483226,2767201.0
1576760483283,2765395.0
1576760483329,2770870.0
1576760483380,2763910.0
1576760483431,2752912.0
1576760483477,2748944.0
1576760483524,2748810.0
1576760483573,2755521.0
1576760483621,2758493.0
1576760483667,2758054.0
1576760483723,2730538.0
1576760483766,2666481.0
1576760483813,2631885.0
1576760483869,2638906.0
1576760483918,2662231.0
1576760483965,2687160.0
1576760484016,2701626.0
1576760484065,2693357.0
1576760484111,2694649.0
1576760484161,2716682.0
1576760484205,2735175.0
1576760484262,2742903.0
1576760484306,2732560.0
1576760484352,2688461.0
1576760484408,2658271.0
1576760484457,2658271.0
1576760484506,2668993.0
1576760484555,2672522.0
1576760484601,2676081.0
1576760484647,2676766.0
1576760484704,2690793.0
1576760484747,2693461.0
1576760484800,2708055.0
1576760484848,2730339.0
1576760484897,2726883.0
1576760484947,2704621.0
1576760484996,2685838.0
1576760485042,2684359.0
1576760485086,2702661.0
1576760485141,2719632.0
1576760485186,2726265.0
1576760485242,2728458.0
1576760485290,2750297.0
1576760485339,2772475.0
1576760485385,2788311.0
1576760485434,2807623.0
1576760485485,2796194.0
1576760485526,2771844.0
1576760485582,2779578.0
1576760485632,2796602.0
1576760485684,2811857.0
1576760485731,2827349.0
1576760485780,2879347.0
1576760485832,2925015.0
1576760485876,2985602.0
1576760485927,3027911.0
1576760485967,3114489.0
1576760486022,3242819.0
1576760486068,3305035.0
1576760486120,3413146.0
1576760486170,3469135.0
1576760486220,3509548.0
1576760486269,3553893.0
1576760486316,3476981.0
1576760486360,3475435.0
1576760486409,3441857.0
1576760486464,3550021.0
1576760486508,3514727.0
1576760486562,3578510.0
1576760486609,3623976.0
1576760486661,3609376.0
1576760486709,3617147.0
1576760486750,3589916.0
1576760486799,3658847.0
1576760486851,3646260.0
1576760486900,3492370.0
1576760486947,3456680.0
1576760486999,3456221.0
1576760487049,3459541.0
1576760487102,3483897.0
1576760487149,3480606.0
1576760487197,3454571.0
1576760487247,3455047.0
1576760487294,3509459.0
1576760487346,3517387.0
1576760487391,3553722.0
1576760487442,3582151.0
1576760487489,3620707.0
1576760487542,3646736.0
1576760487590,3653371.0
1576760487638,3631741.0
1576760487682,3573879.0
1576760487729,3530034.0
1576760487787,3562719.0
1576760487832,3594254.0
1576760487882,3601491.0
1576760487932,3618761.0
1576760487984,3631918.0
1576760488030,3648906.0
1576760488078,3675030.0
1576760488129,3759238.0
1576760488170,3744288.0
1576760488227,3769402.0
1576760488269,3786032.0
1576760488326,3803093.0
1576760488377,3805277.0
1576760488424,3792073.0
1576760488472,3774388.0
1576760488521,3691800.0
1576760488570,3670259.0
1576760488610,3696912.0
1576760488668,3727459.0
1576760488709,3756489.0
1576760488763,3759313.0
1576760488811,3754386.0
1576760488866,3768988.0
1576760488911,3773149.0
1576760488955,3843833.0
1576760489011,3863428.0
1576760489052,3849272.0
1576760489109,3845774.0
1576760489150,3844191.0
1576760489207,3832041.0
1576760489252,3812335.0
1576760489304,3797424.0
1576760489353,3782190.0
1576760489400,3782274.0
1576760489450,3835816.0
1576760489494,3841806.0
1576760489548,3850246.0
1576760489590,3856442.0
1576760489647,3877999.0
1576760489692,3897555.0
1576760489743,3934417.0
1576760489793,3934626.0
1576760489837,4010067.0
1576760489891,3949478.0
1576760489932,3990087.0
1576760489989,4008297.0
1576760490031,4021806.0
1576760490080,4017072.0
1576760490136,4005623.0
1576760490187,3980546.0
1576760490233,3943214.0
1576760490283,3958418.0
1576760490331,3964934.0
1576760490382,3976852.0
1576760490430,3985308.0
1576760490472,3999553.0
1576760490528,4009992.0
1576760490574,4018389.0
1576760490625,4020246.0
1576760490674,4057094.0
1576760490725,4063772.0
1576760490772,4090619.0
1576760490816,4111097.0
1576760490871,4100026.0
1576760490912,4079666.0
1576760490970,4063209.0
1576760491013,4055377.0
1576760491068,4017430.0
1576760491115,4023864.0
1576760491163,4035894.0
1576760491213,4045889.0
1576760491256,4054113.0
1576760491310,4065326.0
1576760491353,4080142.0
1576760491410,4085514.0
1576760491454,4095910.0
1576760491507,4143396.0
1576760491557,4100933.0
1576760491603,4130356.0
1576760491653,4154475.0
1576760491700,4142126.0
1576760491750,4109610.0
1576760491794,4085491.0
1576760491843,4069613.0
1576760491893,4054395.0
1576760491943,4062600.0
1576760491991,4064694.0
1576760492041,4084490.0
1576760492088,4093226.0
1576760492140,4093226.0
1576760492186,4104001.0
1576760492235,4111343.0
1576760492283,4109151.0
1576760492335,4165392.0
1576760492380,4143203.0
1576760492437,4157685.0
1576760492484,4163057.0
1576760492534,4155708.0
1576760492582,4150269.0
1576760492632,4140789.0
1576760492678,4121388.0
1576760492730,4109500.0
1576760492775,4225934.0
1576760492829,4167814.0
1576760492878,4162143.0
1576760492925,4169760.0
1576760492975,4183692.0
1576760493022,4193745.0
1576760493073,4197705.0
1576760493120,4215316.0
1576760493171,4209483.0
1576760493215,4228282.0
1576760493269,4227813.0
1576760493317,4223341.0
1576760493361,4214781.0
1576760493416,4207173.0
1576760493464,4190965.0
1576760493513,4177361.0
1576760493556,4207134.0
1576760493612,4208688.0
1576760493654,4202305.0
1576760493709,4206801.0
1576760493756,4210486.0
1576760493809,4214432.0
1576760493860,4226683.0
1576760493904,4230154.0
1576760493954,4265799.0
1576760493997,4235645.0
1576760494052,4261948.0
1576760494096,4264817.0
1576760494144,4249437.0
1576760494198,4238120.0
1576760494248,4229991.0
1576760494290,4216275.0
1576760494345,4290429.0
1576760494396,4260337.0
1576760494436,4252237.0
1576760494493,4258517.0
1576760494535,4274157.0
1576760494592,4292398.0
1576760494639,4297851.0
1576760494680,4309400.0
1576760494729,4322364.0
1576760494779,4297896.0
1576760494827,4309772.0
1576760494878,4302778.0
1576760494930,4293000.0
1576760494978,4284834.0
1576760495032,4279409.0
1576760495080,4268481.0
1576760495129,4316964.0
1576760495175,4281959.0
1576760495228,4279753.0
1576760495277,4280807.0
1576760495324,4282940.0
1576760495368,4289985.0
1576760495421,4302289.0
1576760495473,4310530.0
1576760495517,4304369.0
1576760495562,4297734.0
1576760495617,4318650.0
1576760495660,4317334.0
1576760495710,4313018.0
1576760495768,4304918.0
1576760495810,4298439.0
1576760495858,4302132.0
1576760495914,4375350.0
1576760495958,4310424.0
1576760496012,4309414.0
1576760496059,4307823.0
1576760496109,4316168.0
1576760496159,4320975.0
1576760496205,4326735.0
1576760496257,4356947.0
1576760496303,4333525.0
1576760496355,4352711.0
1576760496398,4361835.0
1576760496451,4354450.0
1576760496500,4350163.0
1576760496548,4338222.0
1576760496601,4332247.0
1576760496641,4368835.0
1576760496698,4401105.0
1576760496739,4354115.0
1576760496796,4351433.0
1576760496840,4352205.0
1576760496886,4358209.0
1576760496940,4366368.0
1576760496989,4381370.0
1576760497041,4486324.0
1576760497080,4459952.0
1576760497137,4473197.0
1576760497178,4461976.0
1576760497236,4452161.0
1576760497281,4444387.0
1576760497335,4438877.0
1576760497385,4444706.0
1576760497429,4481548.0
1576760497481,4459471.0
1576760497521,4437144.0
1576760497579,4428812.0
1576760497620,4427771.0
1576760497675,4438174.0
1576760497722,4448056.0
1576760497774,4465143.0
1576760497825,4474940.0
1576760497870,4466366.0
1576760497923,4481962.0
1576760497962,4471482.0
1576760498019,4466724.0
1576760498060,4464085.0
1576760498116,4454280.0
1576760498164,4463101.0
1576760498216,4502690.0
1576760498264,4459973.0
1576760498306,4453345.0
1576760498363,4453922.0
1576760498403,4451043.0
1576760498459,4453682.0
1576760498502,4455176.0
1576760498557,4487241.0
1576760498607,4498702.0
1576760498655,4494041.0
1576760498706,4505252.0
1576760498752,4491402.0
1576760498803,4482521.0
1576760498843,4476174.0
1576760498901,4479370.0
1576760498946,4501467.0
1576760498998,4516916.0
1576760499039,4483425.0
1576760499087,4468341.0
1576760499140,4462014.0
1576760499188,4466454.0
1576760499238,4473061.0
1576760499286,4482732.0
1576760499334,4519661.0
1576760499390,4518747.0
1576760499438,4516165.0
1576760499482,4524718.0
1576760499536,4510057.0
1576760499585,4498413.0
1576760499628,4484496.0
1576760499678,4501109.0
1576760499726,4514488.0
1576760499776,4559085.0
1576760499824,4498019.0
1576760499873,4495620.0
1576760499924,4499134.0
1576760499971,4507670.0
1576760500023,4519237.0
1576760500069,4516636.0
1576760500120,4542122.0
1576760500166,4546198.0
1576760500218,4548644.0
1576760500264,4545166.0
1576760500315,4539040.0
1576760500363,4529649.0
1576760500412,4521327.0
1576760500463,4513574.0
1576760500510,4563630.0
1576760500560,4593259.0
1576760500611,4534802.0
1576760500660,4535381.0
1576760500706,4539483.0
1576760500762,4550465.0
1576760500803,4556204.0
1576760500860,4578157.0
1576760500904,4594251.0
1576760500956,4581518.0
1576760501004,4590187.0
1576760501056,4582761.0
1576760501102,4570412.0
1576760501151,4561483.0
1576760501201,4549934.0
1576760501249,4555329.0
1576760501301,4603229.0
1576760501343,4559278.0
1576760501399,4564922.0
1576760501444,4567706.0
1576760501497,4571702.0
1576760501545,4582009.0
1576760501597,4587229.0
1576760501641,4622713.0
1576760501691,4627974.0
1576760501743,4625777.0
1576760501784,4633925.0
1576760501840,4601004.0
1576760501884,4585419.0
1576760501938,4564132.0
1576760501988,4544079.0
1576760502030,4607995.0
1576760502084,4608631.0
1576760502128,4570384.0
1576760502180,4563525.0
1576760502230,4564189.0
1576760502282,4573600.0
1576760502322,4571944.0
1576760502373,4587788.0
1576760502429,4601638.0
1576760502477,4607620.0
1576760502524,4614131.0
1576760502575,4554317.0
1576760502620,4509017.0
1576760502670,4489388.0
1576760502723,4489128.0
1576760502768,4515191.0
1576760502814,4564315.0
1576760502870,4518631.0
1576760502920,4528637.0
1576760502967,4521868.0
1576760503017,4496747.0
1576760503066,4468043.0
1576760503111,4461281.0
1576760503160,4542104.0
1576760503205,4508700.0
1576760503264,4527752.0
1576760503309,4509952.0
1576760503358,4462535.0
1576760503406,4388762.0
1576760503457,4367022.0
1576760503505,4380546.0
1576760503553,4445100.0
1576760503600,4422802.0
1576760503649,4425721.0
1576760503703,4420335.0
1576760503748,4434610.0
1576760503800,4419663.0
1576760503848,4457998.0
1576760503887,4568448.0
1576760503946,4594858.0
1576760503996,4707262.0
1576760504041,4782827.0
1576760504086,4878915.0
1576760504136,4955576.0
1576760504186,4988025.0
1576760504236,5188622.0
1576760504285,5152241.0
1576760504333,5234537.0
1576760504379,5256555.0
1576760504434,5317276.0
1576760504485,5359339.0
1576760504531,5390161.0
1576760504581,5430808.0
1576760504629,5450554.0
1576760504683,5438736.0
1576760504732,5466591.0
1576760504780,5409300.0
1576760504829,5414934.0
1576760504874,5409395.0
1576760504925,5453385.0
1576760504967,5448309.0
1576760505023,5501478.0
1576760505071,5590690.0
1576760505119,5612188.0
1576760505170,5618236.0
1576760505221,5599648.0
1576760505269,5484940.0
1576760505312,5456245.0
1576760505367,5390055.0
1576760505416,5396807.0
1576760505463,5392424.0
1576760505505,5368037.0
1576760505560,5326128.0
1576760505606,5282167.0
1576760505656,5192523.0
1576760505705,5182717.0
1576760505753,5141733.0
1576760505803,5113386.0
1576760505850,5100932.0
1576760505908,5092975.0
1576760505946,5099237.0
1576760505999,5097445.0
1576760506048,5107714.0
1576760506096,5092677.0
1576760506150,5116420.0
1576760506198,5117287.0
1576760506248,5103205.0
1576760506290,5068627.0
1576760506347,5053070.0
1576760506396,5028971.0
1576760506445,5066835.0
1576760506489,5116661.0
1576760506543,5029916.0
1576760506589,5022933.0
1576760506641,5019859.0
1576760506689,5036686.0
1576760506736,5049537.0
1576760506787,5032911.0
1576760506828,5058340.0
1576760506889,5055930.0
1576760506929,5072085.0
1576760506981,5076746.0
1576760507031,5045221.0
1576760507081,5031649.0
1576760507129,5019773.0
1576760507171,5027913.0
1576760507228,5076843.0
1576760507269,5018520.0
1576760507327,5004554.0
1576760507371,5000817.0
1576760507423,5016980.0
1576760507473,5023077.0
1576760507523,5013676.0
1576760507570,5017770.0
1576760507620,5035964.0
1576760507668,5052598.0
1576760507712,5039788.0
1576760507767,5013319.0
1576760507809,5006374.0
1576760507866,4993661.0
1576760507911,5003843.0
1576760507962,5033673.0
1576760508011,4992071.0
1576760508060,4981910.0
1576760508111,4981688.0
1576760508152,4983403.0
1576760508208,5005923.0
1576760508248,4995549.0
1576760508307,5029386.0
1576760508348,5019552.0
1576760508395,5045260.0
1576760508443,5042698.0
1576760508492,5013965.0
1576760508541,4994084.0
1576760508599,4975099.0
1576760508648,4974512.0
1576760508690,5031996.0
1576760508747,4977460.0
1576760508791,4962222.0
1576760508843,4958705.0
1576760508896,4959727.0
1576760508943,4974772.0
1576760508990,4965575.0
1576760509035,4987776.0
1576760509089,4992284.0
1576760509130,5012039.0
1576760509187,5001492.0
1576760509231,4978210.0
1576760509277,4955085.0
1576760509333,4941320.0
1576760509377,4966056.0
1576760509426,5017856.0
1576760509476,4969754.0
1576760509530,4925033.0
1576760509572,4927758.0
1576760509629,4926236.0
1576760509672,4939924.0
1576760509728,4943660.0
1576760509773,4974118.0
1576760509824,4971170.0
1576760509872,4986563.0
1576760509916,4981313.0
1576760509971,4966662.0
1576760510012,4948449.0
1576760510070,4938567.0
1576760510112,4952618.0
1576760510168,4978403.0
1576760510214,4987005.0
1576760510265,4928260.0
1576760510313,4930773.0
1576760510364,4929107.0
1576760510411,4936754.0
1576760510455,4944692.0
1576760510510,4962606.0
1576760510551,4960855.0
1576760510609,4982507.0
1576760510650,4997493.0
1576760510701,4986725.0
1576760510749,4968588.0
1576760510800,4944075.0
1576760510846,4929560.0
1576760510895,4965410.0
1576760510951,4990134.0
1576760510992,4915941.0
1576760511048,4911634.0
1576760511094,4901906.0
1576760511146,4900134.0
1576760511195,4899220.0
1576760511241,4905258.0
1576760511293,4945818.0
1576760511335,4938392.0
1576760511383,4942352.0
1576760511432,4940097.0
1576760511489,4928587.0
1576760511535,4911085.0
1576760511586,4900953.0
1576760511636,4977363.0
1576760511682,4965044.0
1576760511733,4914389.0
1576760511779,4898805.0
1576760511831,4892958.0
1576760511873,4905662.0
1576760511930,4914159.0
1576760511977,4903698.0
1576760512027,4927422.0
1576760512077,4945298.0
1576760512127,4940781.0
1576760512173,4939942.0
1576760512220,4914746.0
1576760512271,4903159.0
1576760512313,4899151.0
1576760512370,4929792.0
1576760512415,4963157.0
1576760512469,4960199.0
1576760512517,4890445.0
1576760512566,4891138.0
1576760512615,4900981.0
1576760512662,4912174.0
1576760512713,4907879.0
1576760512754,4906934.0
1576760512810,4932864.0
1576760512855,4948709.0
1576760512911,4939759.0
1576760512957,4922374.0
1576760513005,4911904.0
1576760513053,4908119.0
1576760513102,4901926.0
1576760513153,4914726.0
1576760513202,4981178.0
1576760513251,4964110.0
1576760513298,4914572.0
1576760513349,4909767.0
1576760513398,4923645.0
1576760513447,4946001.0
1576760513496,4927719.0
1576760513544,4929838.0
1576760513592,4964014.0
1576760513635,4963646.0
1576760513691,4948506.0
1576760513734,4940395.0
1576760513782,4922770.0
1576760513838,4914332.0
1576760513888,4909844.0
1576760513938,4923656.0
1576760513978,4949940.0
1576760514034,4974136.0
1576760514079,4900798.0
1576760514128,4890118.0
1576760514177,4899557.0
1576760514231,4910403.0
1576760514279,4911018.0
1576760514329,4917857.0
1576760514377,4972393.0
1576760514425,4953053.0
1576760514475,4961615.0
1576760514517,4952358.0
1576760514566,4940166.0
1576760514617,4928404.0
1576760514671,4917646.0
1576760514719,4935186.0
1576760514769,4980648.0
1576760514815,4983306.0
1576760514866,4908582.0
1576760514920,4911672.0
1576760514962,4909661.0
1576760515014,4917144.0
1576760515057,4919745.0
1576760515113,4942535.0
1576760515158,4976930.0
1576760515203,4966662.0
1576760515252,4979299.0
1576760515300,4965266.0
1576760515351,4945915.0
1576760515401,4930214.0
1576760515449,4929011.0
1576760515497,4960932.0
1576760515552,4994787.0
1576760515599,4924485.0
1576760515647,4902928.0
1576760515700,4894585.0
1576760515746,4902465.0
1576760515797,4917684.0
1576760515840,4906394.0
1576760515892,4926978.0
1576760515939,4930629.0
1576760515992,4921181.0
1576760516038,4910990.0
1576760516091,4883712.0
1576760516141,4867462.0
1576760516187,4851078.0
1576760516238,4845868.0
1576760516279,4916230.0
1576760516336,4929926.0
1576760516380,4874195.0
1576760516434,4866962.0
1576760516481,4863831.0
1576760516532,4886505.0
1576760516582,4892129.0
1576760516626,4894740.0
1576760516679,4933296.0
1576760516720,4939471.0
1576760516777,4961875.0
1576760516819,4940570.0
1576760516875,4923154.0
1576760516923,4908850.0
1576760516972,4897745.0
1576760517022,4910526.0
1576760517068,4967694.0
1576760517119,4890156.0
1576760517162,4881765.0
1576760517216,4886034.0
1576760517263,4890684.0
1576760517314,4894768.0
1576760517364,4891341.0
1576760517412,4914533.0
1576760517463,4927536.0
1576760517504,4933971.0
1576760517561,4925448.0
1576760517602,4900798.0
1576760517658,4894451.0
1576760517703,4887035.0
1576760517754,4908235.0
1576760517805,4951328.0
1576760517851,4943776.0
1576760517905,4883961.0
1576760517943,4874774.0
1576760518002,4877663.0
1576760518042,4886186.0
1576760518100,4892834.0
1576760518142,4902022.0
1576760518193,4947937.0
1576760518242,4931805.0
1576760518294,4928646.0
1576760518344,4899807.0
1576760518387,4874185.0
1576760518440,4863223.0
1576760518485,4866769.0
1576760518541,4934221.0
1576760518582,4951271.0
1576760518639,4879926.0
1576760518682,4878029.0
1576760518735,4866769.0
1576760518785,4873020.0
1576760518834,4876373.0
1576760518880,4865229.0
1576760518926,4911451.0
1576760518981,4903940.0
1576760519023,4928684.0
1576760519071,4924995.0
1576760519123,4897822.0
1576760519168,4887998.0
1576760519227,4884463.0
1576760519266,4925255.0
1576760519315,4971546.0
1576760519363,4884242.0
1576760519414,4888894.0
1576760519461,4888681.0
1576760519513,4894557.0
1576760519562,4883992.0
1576760519612,4901434.0
1576760519663,4934038.0
1576760519710,4933461.0
1576760519760,4934473.0
1576760519806,4920208.0
1576760519864,4893576.0
1576760519903,4874177.0
1576760519961,4887950.0
1576760520000,4933692.0
1576760520053,4913050.0
1576760520100,4877171.0
1576760520155,4880148.0
1576760520203,4880908.0
1576760520251,4884425.0
1576760520299,4873551.0
1576760520348,4909602.0
1576760520400,4915112.0
1576760520441,4904313.0
1576760520498,4885560.0
1576760520541,4868494.0
1576760520596,4820276.0
1576760520645,4789885.0
1576760520685,4847977.0
1576760520736,4875379.0
1576760520787,4827893.0
1576760520835,4821690.0
1576760520885,4831825.0
1576760520934,4846167.0
1576760520981,4839521.0
1576760521037,4826979.0
1576760521087,4844413.0
1576760521135,4860257.0
1576760521181,4857687.0
1576760521230,4833875.0
1576760521280,4823657.0
1576760521322,4807397.0
1576760521380,4828086.0
1576760521421,4867116.0
1576760521468,4862435.0
1576760521523,4817068.0
1576760521566,4814419.0
1576760521616,4825004.0
1576760521671,4827847.0
1576760521721,4817395.0
1576760521768,4870391.0
1576760521814,4833885.0
1576760521864,4836264.0
1576760521918,4822259.0
1576760521969,4806454.0
1576760522016,4791371.0
1576760522065,4805749.0
1576760522111,4848217.0
1576760522160,4801194.0
1576760522208,4790513.0
1576760522262,4794530.0
1576760522308,4818976.0
1576760522359,4831160.0
1576760522406,4822761.0
1576760522457,4846976.0
1576760522506,4826814.0
1576760522551,4751599.0
1576760522600,4707803.0
1576760522646,4692439.0
1576760522702,4680236.0
1576760522744,4679619.0
1576760522797,4711539.0
1576760522849,4768552.0
1576760522896,4707813.0
1576760522945,4706637.0
1576760522993,4724764.0
1576760523039,4784002.0
1576760523090,4764005.0
1576760523141,4791775.0
1576760523185,4836331.0
1576760523240,4803053.0
1576760523288,4789684.0
1576760523337,4801735.0
1576760523386,4789674.0
1576760523436,4773810.0
1576760523486,4725997.0
1576760523528,4800656.0
1576760523580,4764852.0
1576760523629,4806135.0
1576760523680,4820689.0
1576760523731,4818232.0
1576760523777,4802793.0
1576760523826,4778906.0
1576760523867,4750270.0
1576760523926,4754267.0
1576760523967,4756252.0
1576760524020,4710682.0
1576760524068,4686380.0
1576760524112,4677664.0
1576760524166,4726932.0
1576760524211,4762272.0
1576760524268,4749663.0
1576760524310,4709026.0
1576760524363,4738539.0
1576760524412,4759556.0
1576760524460,4763735.0
1576760524509,4744858.0
1576760524553,4756291.0
1576760524609,4754874.0
1576760524660,4775862.0
1576760524706,4752418.0
1576760524756,4714912.0
1576760524804,4699154.0
1576760524852,4715180.0
1576760524901,4754373.0
1576760524947,4771884.0
1576760525004,4729908.0
1576760525047,4737401.0
1576760525100,4738944.0
1576760525149,4747719.0
1576760525196,4736361.0
1576760525248,4767579.0
1576760525288,4779243.0
1576760525346,4784117.0
1576760525385,4788731.0
1576760525445,4764103.0
1576760525484,4729504.0
1576760525533,4715363.0
1576760525584,4742940.0
1576760525634,4787344.0
1576760525683,4758255.0
1576760525731,4727249.0
1576760525778,4727048.0
1576760525830,4728569.0
1576760525878,4727096.0
1576760525929,4717309.0
1576760525974,4775862.0
1576760526030,4761626.0
1576760526080,4767396.0
1576760526128,4756347.0
1576760526171,4736188.0
1576760526227,4700088.0
1576760526268,4706021.0
1576760526323,4744933.0
1576760526371,4790359.0
1576760526419,4729321.0
1576760526471,4719429.0
1576760526518,4720188.0
1576760526569,4730621.0
1576760526610,4732895.0
1576760526667,4728549.0
1576760526708,4765151.0
1576760526764,4769024.0
1576760526810,4771933.0
1576760526864,4751185.0
1576760526911,4726180.0
1576760526959,4705298.0
1576760527009,4725168.0
1576760527051,4740138.0
1576760527107,4758083.0
1576760527157,4764265.0
1576760527206,4738586.0
1576760527249,4740002.0
1576760527301,4764708.0
1576760527351,4775621.0
1576760527395,4744183.0
1576760527450,4750039.0
1576760527493,4784184.0
1576760527549,4780418.0
1576760527587,4767414.0
1576760527647,4749557.0
1576760527690,4729195.0
1576760527742,4735717.0
1576760527785,4755673.0
1576760527842,4811404.0
1576760527890,4761876.0
1576760527932,4749452.0
1576760527988,4748633.0
1576760528028,4762118.0
1576760528087,4767945.0
1576760528131,4759584.0
1576760528175,4805432.0
1576760528232,4801627.0
1576760528282,4812127.0
1576760528330,4797574.0
1576760528376,4776267.0
1576760528429,4754354.0
1576760528469,4759458.0
1576760528527,4784666.0
1576760528573,4829446.0
1576760528623,4771393.0
1576760528673,4765017.0
1576760528720,4762368.0
1576760528771,4763794.0
1576760528812,4767010.0
1576760528869,4773609.0
1576760528910,4810760.0
1576760528967,4808399.0
1576760529016,4813446.0
1576760529059,4809102.0
1576760529113,4783500.0
1576760529162,4756329.0
1576760529211,4741168.0
1576760529261,4789231.0
1576760529308,4825988.0
1576760529351,4757117.0
1576760529404,4761366.0
1576760529452,4754671.0
1576760529506,4756347.0
1576760529553,4747948.0
1576760529603,4758052.0
1576760529652,4780554.0
1576760529697,4787248.0
1576760529750,4803640.0
1576760529792,4789896.0
1576760529850,4761463.0
1576760529890,4730274.0
1576760529940,4798132.0
1576760529992,4817982.0
1576760530045,4761029.0
1576760530093,4753930.0
1576760530142,4753623.0
1576760530190,4768186.0
1576760530233,4764844.0
1576760530289,4768936.0
1576760530331,4827394.0
1576760530387,4835484.0
1576760530433,4838952.0
1576760530485,4813368.0
1576760530533,4785572.0
1576760530582,4769024.0
1576760530631,4788307.0
1576760530673,4828722.0
1576760530730,4779532.0
1576760530772,4759566.0
1576760530820,4745088.0
1576760530872,4756463.0
1576760530921,4757745.0
1576760530969,4755750.0
1576760531018,4799211.0
1576760531066,4800193.0
1576760531122,4828385.0
1576760531170,4824947.0
1576760531214,4796745.0
1576760531263,4782961.0
1576760531314,4766770.0
1576760531362,4803921.0
1576760531408,4851291.0
1576760531462,4778558.0
1576760531513,4771451.0
1576760531557,4775275.0
1576760531610,4791033.0
1576760531652,4794337.0
1576760531708,4814516.0
1576760531755,4826498.0
1576760531808,4833944.0
1576760531855,4834454.0
1576760531902,4810394.0
1576760531956,4800741.0
1576760531999,4806078.0
1576760532049,4835705.0
1576760532093,4874483.0
1576760532151,4811020.0
1576760532196,4800713.0
1576760532248,4807186.0
1576760532296,4815420.0
1576760532345,4820410.0
1576760532393,4816000.0
1576760532435,4877104.0
1576760532484,4860017.0
1576760532534,4871661.0
1576760532589,4846128.0
1576760532637,4830785.0
1576760532687,4825805.0
1576760532737,4834050.0
1576760532784,4873597.0
1576760532834,4885205.0
1576760532878,4831207.0
1576760532932,4829031.0
1576760532974,4827855.0
1576760533030,4837286.0
1576760533078,4822617.0
1576760533129,4863967.0
1576760533177,4864274.0
1576760533224,4860162.0
1576760533276,4848160.0
1576760533316,4829358.0
1576760533373,4823222.0
1576760533417,4825506.0
1576760533471,4888200.0
1576760533518,4905085.0
1576760533569,4816432.0
1576760533617,4810296.0
1576760533665,4802147.0
1576760533715,4808236.0
1576760533757,4828635.0
1576760533813,4848729.0
1576760533856,4871344.0
1576760533910,4879607.0
1576760533958,4896377.0
1576760534008,4866104.0
1576760534059,4842516.0
1576760534108,4828279.0
1576760534157,4877393.0
1576760534203,4919842.0
1576760534252,4835100.0
1576760534296,4836390.0
1576760534351,4827172.0
1576760534397,4837845.0
1576760534450,4844298.0
1576760534499,4850153.0
1576760534546,4869061.0
1576760534588,4896079.0
1576760534637,4894933.0
1576760534685,4853794.0
1576760534737,4805721.0
1576760534782,4791822.0
1576760534840,4822241.0
1576760534889,4881015.0
1576760534942,4828241.0
1576760534986,4803573.0
1576760535036,4778414.0
1576760535078,4762022.0
1576760535134,4719939.0
1576760535179,4706560.0
1576760535223,4753170.0
1576760535281,4733712.0
1576760535329,4735197.0
1576760535381,4694164.0
1576760535428,4654711.0
1576760535477,4741833.0
1576760535519,4848585.0
1576760535575,4965516.0
1576760535621,5050701.0
1576760535671,4957320.0
1576760535720,4937246.0
1576760535769,4907243.0
1576760535813,5000076.0
1576760535867,4988180.0
1576760535917,5050172.0
1576760535960,5111547.0
1576760536015,5141579.0
1576760536061,5072373.0
1576760536112,5070149.0
1576760536161,5008648.0
1576760536210,5009639.0
1576760536261,5040973.0
1576760536306,5067018.0
1576760536358,4965063.0
1576760536398,4926931.0
1576760536456,4855972.0
1576760536499,4811020.0
1576760536554,4622791.0
1576760536599,4589994.0
1576760536649,4627531.0
1576760536701,4709778.0
1576760536745,4579968.0
1576760536798,4495128.0
1576760536840,4516762.0
1576760536892,4420510.0
1576760536946,4440360.0
1576760536992,4447479.0
1576760537043,4452343.0
1576760537088,4485140.0
1576760537142,4526837.0
1576760537182,4617311.0
1576760537239,4569323.0
1576760537281,4617667.0
1576760537327,4569140.0
1576760537381,4597276.0
1576760537433,4591681.0
1576760537480,4574910.0
1576760537525,4557592.0
1576760537583,4546236.0
1576760537623,4521654.0
1576760537679,4530728.0
1576760537722,4492450.0
1576760537777,4489012.0
1576760537828,4509249.0
1576760537872,4529899.0
1576760537924,4548992.0
1576760537965,4540340.0
1576760538023,4620036.0
1576760538063,4589696.0
1576760538120,4608891.0
1576760538161,4598450.0
1576760538218,4581690.0
1576760538262,4574457.0
1576760538314,4559229.0
1576760538364,4538337.0
1576760538407,4589263.0
1576760538461,4618611.0
1576760538505,4538290.0
1576760538561,4529852.0
1576760538601,4553287.0
1576760538659,4612417.0
1576760538702,4606726.0
1576760538755,4590553.0
1576760538806,4632220.0
1576760538850,4611271.0
1576760538900,4612388.0
1576760538944,4594011.0
1576760539001,4605328.0
1576760539041,4576577.0
1576760539098,4550743.0
1576760539139,4546919.0
1576760539197,4585717.0
1576760539242,4528148.0
1576760539294,4542789.0
1576760539340,4556281.0
1576760539390,4578927.0
1576760539443,4587692.0
1576760539487,4569478.0
1576760539539,4620903.0
1576760539581,4651580.0
1576760539637,4667686.0
1576760539683,4646716.0
1576760539733,4624631.0
1576760539780,4609692.0
1576760539828,4611193.0
1576760539882,4601244.0
1576760539927,4644232.0
1576760539981,4596158.0
1576760540020,4591420.0
1576760540079,4601398.0
1576760540128,4608247.0
1576760540177,4612792.0
1576760540223,4588820.0
1576760540271,4633587.0
1576760540319,4640264.0
1576760540368,4657804.0
1576760540418,4644587.0
1576760540462,4633183.0
1576760540519,4622685.0
1576760540567,4617291.0
1576760540617,4603517.0
1576760540664,4642401.0
1576760540715,4603788.0
1576760540761,4611078.0
1576760540805,4611724.0
1576760540862,4623128.0
1576760540904,4638626.0
1576760540963,4637712.0
1576760541001,4658381.0
1576760541057,4683068.0
1576760541104,4682451.0
1576760541156,4694452.0
1576760541205,4674832.0
1576760541250,4665768.0
1576760541299,4662647.0
1576760541344,4637826.0
1576760541400,4670902.0
1576760541443,4672146.0
1576760541498,4668361.0
1576760541547,4691429.0
1576760541595,4702756.0
1576760541644,4699904.0
1576760541691,4703796.0
1576760541741,4695001.0
1576760541789,4729551.0
1576760541842,4743393.0
1576760541883,4733799.0
1576760541939,4717811.0
1576760541989,4712456.0
1576760542028,4701021.0
1576760542084,4714044.0
1576760542134,4694280.0
1576760542181,4680177.0
1576760542228,4698459.0
1576760542282,4714246.0
1576760542328,4708081.0
1576760542380,4700858.0
1576760542430,4738086.0
1576760542477,4727153.0
1576760542524,4738702.0
1576760542575,4728829.0
1576760542624,4710009.0
1576760542670,4702823.0
1576760542720,4706482.0
1576760542764,4716722.0
1576760542814,4752948.0
1576760542871,4698479.0
1576760542919,4691939.0
1576760542968,4702900.0
1576760543015,4715546.0
1576760543065,4724841.0
1576760543112,4721702.0
1576760543159,4768032.0
1576760543204,4754383.0
1576760543262,4776287.0
1576760543306,4782441.0
1576760543360,4761106.0
1576760543408,4744096.0
1576760543456,4741284.0
1576760543504,4743702.0
1576760543553,4760769.0
1576760543601,4714575.0
1576760543645,4706184.0
1576760543703,4712397.0
1576760543745,4748200.0
1576760543800,4759123.0
1576760543848,4744665.0
1576760543896,4740811.0
1576760543947,4754923.0
1576760543993,4772366.0
1576760544042,4774013.0
1576760544090,4755183.0
1576760544140,4736487.0
1576760544187,4722135.0
1576760544241,4707581.0
1576760544287,4710442.0
1576760544338,4713573.0
1576760544386,4734782.0
1576760544436,4733529.0
1576760544485,4711011.0
1576760544526,4714536.0
1576760544580,4701927.0
1576760544633,4697892.0
1576760544684,4726383.0
1576760544728,4740339.0
1576760544779,4750858.0
1576760544828,4736188.0
1576760544875,4707649.0
1576760544927,4693798.0
1576760544969,4669064.0
1576760545025,4713573.0
1576760545066,4743373.0
1576760545123,4672251.0
1576760545169,4694627.0
1576760545221,4696100.0
1576760545268,4694058.0
1576760545318,4685860.0
1576760545367,4680015.0
1576760545408,4685891.0
1576760545466,4736121.0
1576760545507,4742834.0
1576760545559,4747843.0
1576760545609,4723368.0
1576760545662,4709536.0
1576760545710,4682036.0
1576760545759,4679495.0
1576760545807,4643451.0
1576760545851,4700753.0
1576760545907,4615220.0
1576760545947,4635997.0
1576760546005,4646889.0
1576760546047,4640977.0
1576760546101,4578425.0
1576760546149,4565144.0
1576760546202,4590264.0
1576760546249,4582615.0
1576760546297,4568525.0
1576760546347,4546939.0
1576760546387,4515770.0
1576760546444,4493750.0
1576760546487,4476838.0
1576760546540,4510953.0
1576760546589,4540958.0
1576760546633,4522926.0
1576760546683,4525401.0
1576760546732,4528089.0
1576760546783,4539629.0
1576760546833,4525769.0
1576760546881,4517725.0
1576760546929,4540938.0
1576760546982,4555308.0
1576760547032,4561454.0
1576760547082,4523024.0
1576760547130,4473795.0
1576760547178,4423082.0
1576760547229,4402633.0
1576760547270,4421241.0
1576760547328,4483330.0
1576760547368,4429949.0
1576760547419,4420731.0
1576760547471,4433475.0
1576760547521,4437491.0
1576760547571,4421059.0
1576760547622,4403258.0
1576760547669,4442942.0
1576760547716,4460222.0
1576760547769,4462880.0
1576760547810,4466492.0
1576760547868,4430594.0
1576760547910,4366214.0
1576760547967,4334140.0
1576760548011,4332993.0
1576760548061,4357477.0
1576760548111,4385381.0
1576760548163,4375673.0
1576760548210,4372033.0
1576760548253,4381289.0
1576760548308,4379863.0
1576760548349,4378601.0
1576760548406,4378573.0
1576760548452,4417832.0
1576760548506,4425788.0
1576760548552,4436691.0
1576760548603,4424661.0
1576760548651,4411398.0
1576760548699,4406784.0
1576760548748,4406660.0
1576760548795,4427666.0
1576760548847,4473313.0
1576760548891,4418401.0
1576760548946,4445041.0
1576760548995,4460560.0
1576760549041,4475971.0
1576760549091,4467927.0
1576760549141,4477232.0
1576760549188,4509866.0
1576760549231,4502005.0
1576760549288,4500262.0
1576760549331,4472878.0
1576760549387,4446429.0
1576760549436,4441073.0
1576760549482,4447932.0
1576760549532,4471560.0
1576760549579,4502960.0
1576760549629,4497749.0
1576760549672,4471233.0
1576760549728,4477742.0
1576760549772,4484697.0
1576760549827,4483281.0
1576760549874,4479158.0
1576760549927,4527983.0
1576760549977,4537037.0
1576760550021,4547835.0
1576760550072,4527800.0
1576760550113,4502700.0
1576760550169,4483098.0
1576760550211,4476962.0
1576760550267,4493616.0
1576760550312,4533156.0
1576760550357,4520943.0
1576760550405,4498596.0
1576760550454,4504781.0
1576760550503,4515019.0
1576760550555,4512428.0
1576760550610,4507168.0
1576760550652,4566078.0
1576760550708,4562572.0
1576760550753,4590715.0
1576760550806,4571463.0
1576760550855,4540755.0
1576760550903,4526153.0
1576760550952,4540976.0
1576760551002,4554000.0
1576760551051,4618158.0
1576760551093,4572137.0
1576760551149,4549010.0
1576760551195,4553421.0
1576760551247,4558238.0
1576760551296,4561542.0
1576760551343,4568216.0
1576760551394,4570317.0
1576760551440,4566810.0
1576760551492,4525576.0
1576760551532,4475507.0
1576760551590,4464201.0
1576760551635,4454972.0
1576760551679,4452439.0
1576760551731,4470288.0
1576760551779,4493086.0
1576760551828,4460665.0
1576760551879,4467842.0
1576760551932,4488348.0
1576760551973,4496814.0
1576760552030,4494579.0
1576760552077,4537441.0
1576760552128,4510222.0
1576760552177,4494348.0
1576760552224,4446285.0
1576760552276,4405898.0
1576760552318,4386519.0
1576760552363,4377378.0
1576760552417,4447595.0
1576760552463,4461754.0
1576760552515,4412775.0
1576760552561,4407602.0
1576760552617,4426077.0
1576760552667,4434793.0
1576760552715,4462764.0
1576760552763,4463709.0
1576760552813,4466165.0
1576760552861,4491922.0
1576760552911,4511022.0
1576760552955,4479053.0
1576760553007,4456553.0
1576760553058,4441469.0
1576760553107,4415242.0
1576760553157,4462293.0
1576760553204,4465702.0
1576760553254,4443771.0
1576760553295,4459981.0
1576760553351,4474361.0
1576760553395,4492537.0
1576760553450,4481489.0
1576760553498,4557448.0
1576760553547,4532683.0
1576760553598,4545755.0
1576760553645,4522300.0
1576760553696,4503143.0
1576760553738,4497844.0
1576760553793,4498009.0
1576760553836,4482606.0
1576760553892,4521173.0
1576760553939,4473514.0
1576760553990,4483917.0
1576760554038,4500561.0
1576760554086,4506975.0
1576760554137,4522368.0
1576760554178,4526134.0
1576760554235,4592363.0
1576760554278,4555367.0
1576760554332,4581922.0
1576760554379,4580681.0
1576760554424,4554942.0
1576760554480,4538762.0
1576760554527,4518572.0
1576760554579,4531508.0
1576760554625,4565636.0
1576760554677,4570691.0
1576760554719,4520364.0
1576760554775,4507005.0
1576760554817,4514257.0
1576760554873,4521837.0
1576760554920,4534745.0
1576760554969,4558006.0
1576760555021,4607467.0
1576760555068,4585216.0
1576760555117,4591526.0
1576760555158,4574218.0
1576760555215,4544396.0
1576760555259,4539830.0
1576760555313,4534168.0
1576760555360,4565538.0
1576760555410,4596043.0
1576760555462,4546834.0
1576760555503,4526289.0
1576760555558,4537134.0
1576760555599,4549751.0
1576760555656,4557852.0
1576760555698,4562533.0
1576760555754,4601303.0
1576760555798,4611492.0
1576760555851,4609903.0
1576760555899,4594366.0
1576760555951,4567791.0
1576760556002,4552458.0
1576760556045,4529852.0
1576760556089,4553421.0
1576760556141,4586729.0
1576760556189,4550637.0
1576760556243,4533888.0
1576760556286,4543847.0
1576760556343,4558179.0
1576760556385,4564498.0
1576760556440,4559845.0
1576760556482,4601331.0
1576760556537,4602977.0
1576760556581,4609672.0
1576760556635,4595850.0
1576760556684,4568427.0
1576760556734,4544069.0
1576760556778,4505896.0
1576760556822,4531171.0
1576760556876,4576038.0
1576760556922,4544975.0
1576760556973,4546708.0
1576760557021,4586170.0
1576760557076,4631517.0
1576760557125,4605732.0
1576760557171,4586719.0
1576760557225,4640918.0
1576760557270,4630708.0
1576760557322,4610683.0
1576760557362,4575518.0
1576760557414,4530054.0
1576760557461,4475643.0
1576760557511,4450108.0
1576760557563,4489494.0
1576760557613,4510848.0
1576760557664,4494417.0
1576760557705,4456754.0
1576760557763,4460637.0
1576760557803,4471549.0
1576760557859,4463459.0
1576760557901,4476674.0
1576760557957,4511599.0
1576760558003,4510126.0
1576760558054,4525807.0
1576760558103,4500388.0
1576760558144,4429370.0
1576760558200,4394215.0
1576760558243,4391545.0
1576760558302,4438483.0
1576760558341,4468766.0
1576760558399,4418757.0
1576760558439,4414124.0
1576760558495,4425845.0
1576760558544,4433147.0
1576760558593,4432241.0
1576760558640,4476434.0
1576760558683,4505541.0
1576760558741,4506061.0
1576760558782,4506841.0
1576760558838,4460472.0
1576760558879,4403317.0
1576760558937,4377425.0
1576760558987,4395958.0
1576760559034,4445013.0
1576760559085,4456687.0
1576760559132,4419864.0
1576760559179,4425016.0
1576760559227,4434245.0
1576760559281,4443800.0
1576760559321,4432463.0
1576760559369,4476867.0
1576760559423,4485390.0
1576760559469,4503084.0
1576760559520,4491392.0
1576760559567,4430006.0
1576760559620,4392326.0
1576760559669,4385517.0
1576760559721,4404106.0
1576760559761,4449416.0
1576760559811,4414297.0
1576760559866,4426242.0
1576760559916,4437713.0
1576760559964,4448828.0
1576760560010,4443231.0
1576760560059,4449550.0
1576760560110,4509423.0
1576760560154,4494108.0
1576760560203,4488598.0
1576760560259,4416782.0
1576760560303,4382703.0
1576760560356,4386499.0
1576760560404,4395794.0
1576760560454,4436026.0
1576760560501,4476424.0
1576760560549,4393963.0
1576760560597,4363971.0
1576760560644,4349763.0
1576760560694,4347682.0
1576760560742,4348107.0
1576760560791,4379005.0
1576760560842,4452431.0
1576760560889,4444338.0
1576760560940,4410502.0
1576760560987,4369883.0
1576760561037,4336461.0
1576760561085,4350128.0
1576760561135,4363064.0
1576760561183,4388937.0
1576760561233,4399455.0
1576760561283,4354984.0
1576760561329,4341566.0
1576760561380,4336000.0
1576760561427,4342020.0
1576760561477,4347229.0
1576760561525,4374816.0
1576760561581,4405725.0
1576760561626,4384361.0
1576760561680,4327119.0
1576760561727,4281914.0
1576760561776,4259915.0
1576760561825,4265821.0
1576760561873,4278312.0
1576760561923,4324709.0
1576760561969,4328986.0
1576760562020,4270713.0
1576760562067,4254811.0
1576760562120,4250400.0
1576760562170,4275029.0
1576760562218,4279950.0
1576760562265,4309453.0
1576760562316,4332166.0
1576760562363,4325672.0
1576760562404,4297732.0
1576760562458,4257980.0
1576760562505,4238051.0
1576760562556,4231454.0
1576760562606,4228640.0
1576760562649,4221840.0
1576760562698,4271030.0
1576760562747,4223902.0
1576760562797,4239506.0
1576760562844,4244571.0
1576760562900,4252643.0
1576760562943,4259791.0
1576760563005,4271445.0
1576760563043,4330644.0
1576760563099,4310194.0
1576760563148,4317563.0
1576760563194,4274113.0
1576760563243,4248320.0
1576760563295,4223853.0
1576760563340,4197981.0
1576760563384,4192761.0
1576760563435,4193714.0
1576760563486,4146807.0
1576760563540,4120695.0
1576760563589,4123152.0
1576760563636,4134296.0
1576760563684,4102018.0
1576760563734,4087763.0
1576760563781,4076531.0
1576760563830,4020473.0
1576760563879,3966151.0
1576760563926,3939344.0
1576760563981,3919126.0
1576760564029,3896135.0
1576760564077,3825021.0
1576760564126,3785772.0
1576760564170,3739605.0
1576760564225,3710354.0
1576760564266,3717000.0
1576760564322,3751954.0
1576760564370,3775485.0
1576760564421,3671594.0
1576760564469,3669861.0
1576760564518,3641360.0
1576760564568,3609467.0
1576760564612,3574495.0
1576760564665,3561232.0
1576760564707,3554576.0
1576760564759,3510865.0
1576760564807,3528281.0
1576760564862,3533732.0
1576760564908,3505934.0
1576760564961,3501309.0
1576760565010,3517425.0
1576760565055,3571122.0
1576760565107,3532470.0
1576760565150,3552398.0
1576760565200,3592584.0
1576760565249,3562185.0
1576760565298,3527846.0
1576760565346,3533259.0
1576760565401,3574158.0
1576760565446,3572423.0
1576760565497,3542237.0
1576760565548,3542729.0
1576760565589,3501801.0
1576760565646,3517173.0
1576760565687,3571748.0
1576760565742,3668049.0
1576760565789,3688874.0
1576760565842,3687680.0
1576760565889,3767684.0
1576760565940,3755412.0
1576760565989,3744826.0
1576760566033,3848939.0
1576760566080,3932428.0
1576760566127,3993996.0
1576760566185,3980645.0
1576760566230,4003888.0
1576760566280,3961882.0
1576760566330,4039489.0
1576760566378,4095768.0
1576760566429,3983467.0
1576760566475,3920186.0
1576760566526,3828431.0
1576760566568,3778789.0
1576760566626,3812124.0
1576760566672,3804101.0
1576760566721,3823116.0
1576760566770,3813839.0
1576760566814,3756125.0
1576760566869,3639818.0
1576760566912,3650557.0
1576760566968,3627942.0
1576760567009,3605837.0
1576760567066,3595146.0
1576760567110,3606684.0
1576760567163,3610384.0
1576760567211,3554844.0
1576760567261,3644566.0
1576760567310,3657126.0
1576760567357,3672066.0
1576760567408,3694856.0
1576760567458,3794200.0
1576760567508,3930030.0
1576760567548,4100864.0
1576760567606,4231251.0
1576760567650,4487990.0
1576760567701,4543548.0
1576760567750,4686159.0
1576760567798,4750145.0
1576760567848,4814486.0
1576760567891,4838144.0
1576760567947,4825774.0
1576760567988,4812464.0
1576760568045,4766258.0
1576760568093,4625932.0
1576760568135,4602593.0
1576760568192,4750608.0
1576760568235,4809083.0
1576760568289,4904834.0
1576760568330,4973145.0
1576760568388,4993304.0
1576760568430,4972115.0
1576760568487,5041300.0
1576760568532,4985069.0
1576760568584,4981794.0
1576760568633,4940753.0
1576760568684,4954642.0
1576760568731,4897765.0
1576760568778,4859574.0
1576760568830,4801704.0
1576760568871,4737759.0
1576760568928,4721306.0
1576760568972,4667117.0
1576760569027,4528668.0
1576760569074,4523861.0
1576760569123,4479043.0
1576760569172,4493897.0
1576760569221,4505232.0
1576760569269,4513775.0
1576760569311,4488098.0
1576760569368,4505358.0
1576760569411,4555087.0
1576760569459,4533426.0
1576760569513,4536508.0
1576760569558,4516973.0
1576760569606,4452150.0
1576760569655,4433686.0
1576760569705,4396440.0
1576760569755,4409278.0
1576760569809,4407064.0
1576760569850,4392019.0
1576760569907,4428322.0
1576760569953,4430825.0
1576760570004,4384601.0
1576760570054,4363767.0
1576760570101,4446419.0
1576760570144,4455436.0
1576760570196,4453489.0
1576760570244,4443723.0
1576760570294,4401314.0
1576760570342,4358509.0
1576760570396,4357940.0
1576760570438,4365799.0
1576760570494,4372792.0
1576760570542,4373351.0
1576760570592,4342125.0
1576760570641,4352065.0
1576760570691,4330363.0
1576760570732,4300294.0
1576760570790,4291084.0
1576760570836,4305166.0
1576760570886,4277957.0
1576760570936,4212295.0
1576760570986,4146076.0
1576760571034,4085298.0
1576760571078,4049379.0
1576760571131,4015601.0
1576760571174,4049080.0
1576760571229,4021928.0
1576760571276,3991684.0
1576760571327,3963857.0
1576760571377,3956374.0
1576760571427,3942792.0
1576760571473,3908386.0
1576760571523,3912645.0
1576760571571,3905525.0
1576760571613,3874117.0
1576760571670,3812935.0
1576760571714,3750123.0
1576760571768,3695847.0
1576760571810,3674388.0
1576760571867,3674581.0
1576760571916,3724791.0
1576760571962,3736196.0
1576760572013,3703785.0
1576760572055,3656173.0
1576760572111,3642833.0
1576760572155,3625380.0
1576760572210,3609833.0
1576760572256,3655393.0
1576760572308,3679811.0
1576760572357,3629580.0
1576760572400,3573272.0
1576760572448,3526324.0
1576760572503,3522501.0
1576760572552,3524081.0
1576760572601,3573455.0
1576760572651,3591100.0
1576760572696,3585060.0
1576760572750,3560153.0
1576760572797,3527491.0
1576760572845,3521633.0
1576760572896,3526141.0
1576760572945,3523657.0
1576760572996,3548208.0
1576760573036,3566461.0
1576760573092,3506887.0
1576760573136,3446081.0
1576760573182,3416693.0
1576760573238,3401851.0
1576760573282,3397093.0
1576760573337,3409854.0
1576760573378,3455723.0
1576760573435,3425525.0
1576760573477,3375748.0
1576760573533,3363033.0
1576760573576,3361946.0
1576760573632,3384494.0
1576760573679,3395059.0
1576760573728,3415970.0
1576760573779,3443624.0
1576760573826,3406638.0
1576760573876,3377444.0
1576760573918,3366068.0
1576760573974,3363092.0
1576760574018,3356552.0
1576760574072,3364093.0
1576760574119,3360463.0
1576760574171,3308672.0
1576760574218,3272695.0
1576760574267,3268668.0
1576760574319,3292846.0
1576760574366,3348528.0
1576760574416,3325372.0
1576760574458,3344790.0
1576760574505,3310482.0
1576760574557,3250253.0
1576760574606,3235584.0
1576760574659,3238974.0
1576760574708,3260483.0
1576760574760,3266917.0
1576760574807,3323457.0
1576760574857,3324420.0
1576760574899,3291111.0
1576760574955,3292808.0
1576760575000,3313361.0
1576760575054,3356714.0
1576760575098,3364864.0
1576760575148,3410269.0
1576760575201,3379437.0
1576760575245,3340621.0
1576760575298,3326701.0
1576760575339,3338955.0
1576760575389,3369467.0
1576760575438,3385467.0
1576760575485,3422886.0
1576760575536,3372068.0
1576760575582,3352563.0
1576760575633,3366666.0
1576760575680,3394377.0
1576760575739,3469756.0
1576760575780,3503410.0
1576760575837,3592391.0
1576760575879,3572605.0
1576760575935,3589847.0
1576760575984,3715699.0
1576760576026,3905373.0
1576760576079,3937042.0
1576760576123,3901606.0
1576760576181,3879424.0
1576760576220,3777574.0
1576760576278,3719129.0
1576760576321,3683480.0
1576760576375,3642959.0
1576760576422,3593315.0
1576760576473,3592092.0
1576760576525,3485639.0
1576760576565,3486988.0
1576760576622,3431084.0
1576760576662,3411917.0
1576760576719,3411222.0
1576760576761,3400204.0
1576760576809,3405395.0
1576760576862,3441814.0
1576760576914,3492459.0
1576760576960,3490214.0
1576760577004,3491803.0
1576760577062,3492545.0
1576760577102,3489867.0
1576760577160,3541833.0
1576760577201,3556396.0
1576760577257,3608427.0
1576760577303,3576517.0
1576760577354,3536621.0
1576760577403,3538393.0
1576760577446,3543990.0
1576760577500,3565440.0
1576760577543,3568627.0
1576760577600,3583173.0
1576760577644,3541187.0
1576760577697,3507754.0
1576760577741,3514477.0
1576760577796,3550646.0
1576760577843,3598112.0
1576760577891,3624793.0
1576760577939,3658254.0
1576760577983,3648536.0
1576760578042,3609478.0
1576760578086,3594819.0
1576760578140,3605942.0
1576760578182,3618850.0
1576760578238,3610778.0
1576760578279,3620794.0
1576760578331,3579377.0
1576760578382,3550752.0
1576760578430,3558302.0
1576760578479,3628038.0
1576760578526,3679599.0
1576760578580,3692245.0
1576760578621,3718127.0
1576760578678,3667423.0
1576760578719,3612426.0
1576760578775,3596060.0
1576760578826,3653766.0
1576760578871,3670371.0
1576760578919,3708812.0
1576760578969,3710575.0
1576760579023,3685936.0
1576760579061,3657136.0
1576760579112,3668455.0
1576760579163,3718146.0
1576760579217,3789269.0
1576760579267,3773549.0
1576760579316,3795982.0
1576760579363,3769811.0
1576760579412,3750721.0
1576760579459,3727817.0
1576760579507,3745731.0
1576760579561,3765428.0
1576760579601,3839971.0
1576760579658,3811374.0
1576760579706,3811508.0
1576760579755,3826834.0
1576760579803,3785656.0
1576760579849,3791754.0
1576760579900,3791898.0
1576760579947,3822132.0
1576760580018,3831610.0
1576760580041,3878152.0
1576760580090,3929096.0
1576760580140,3907289.0
1576760580194,3909457.0
1576760580243,3883160.0
1576760580294,3883950.0
1576760580339,3907155.0
1576760580383,3904477.0
1576760580442,3911893.0
1576760580482,3927515.0
1576760580532,3917326.0
1576760580582,3928537.0
1576760580631,3937735.0
1576760580681,3953032.0
1576760580729,3970562.0
1576760580776,3994526.0
1576760580829,4016449.0
1576760580879,4068096.0
1576760580924,4066149.0
1576760580979,4052953.0
1576760581025,4028430.0
1576760581077,4055765.0
1576760581124,4052345.0
1576760581176,4011324.0
1576760581224,4029133.0
1576760581273,4033188.0
1576760581318,4036973.0
1576760581367,4076127.0
1576760581417,4095238.0
1576760581467,4097501.0
1576760581518,4131541.0
1576760581565,4127918.0
1576760581616,4159445.0
1576760581664,4158577.0
1576760581712,4133593.0
1576760581760,4113905.0
1576760581805,4100756.0
1576760581862,4110967.0
1576760581908,4136858.0
1576760581959,4124836.0
1576760582010,4106006.0
1576760582057,4132061.0
1576760582104,4147858.0
1576760582154,4161582.0
1576760582202,4161544.0
1576760582247,4206988.0
1576760582300,4226685.0
1576760582346,4242251.0
1576760582400,4255264.0
1576760582445,4229441.0
1576760582496,4208780.0
1576760582546,4191134.0
1576760582586,4168594.0
1576760582638,4220867.0
1576760582690,4216515.0
1576760582741,4187022.0
1576760582787,4211352.0
1576760582843,4230414.0
1576760582885,4228815.0
1576760582938,4231385.0
1576760582986,4314481.0
1576760583027,4348915.0
1576760583086,4309337.0
1576760583132,4298589.0
1576760583182,4273410.0
1576760583223,4263566.0
1576760583278,4262662.0
1576760583333,4272977.0
1576760583380,4314481.0
1576760583428,4293424.0
1576760583477,4283138.0
1576760583526,4279893.0
1576760583568,4281018.0
1576760583622,4304262.0
1576760583667,4316678.0
1576760583721,4406948.0
1576760583768,4350071.0
1576760583813,4352199.0
1576760583868,4333177.0
1576760583915,4295775.0
1576760583968,4279767.0
1576760584008,4293609.0
1576760584065,4324719.0
1576760584107,4355167.0
1576760584158,4304820.0
1576760584208,4317043.0
1576760584261,4310792.0
1576760584308,4289448.0
1576760584358,4281010.0
1576760584408,4370336.0
1576760584450,4376011.0
1576760584506,4382039.0
1576760584547,4384178.0
1576760584605,4349175.0
1576760584646,4311610.0
1576760584701,4307892.0
1576760584749,4306891.0
1576760584802,4328697.0
1576760584849,4307622.0
1576760584896,4291055.0
1576760584947,4273515.0
1576760584988,4283022.0
1576760585037,4263143.0
1576760585088,4246912.0
1576760585140,4297943.0
1576760585188,4285383.0
1576760585242,4285362.0
1576760585289,4261755.0
1576760585336,4212719.0
1576760585387,4195380.0
1576760585428,4213479.0
1576760585487,4208692.0
1576760585526,4262757.0
1576760585581,4261331.0
1576760585629,4266321.0
1576760585681,4269635.0
1576760585722,4283331.0
1576760585777,4289639.0
1576760585827,4267457.0
1576760585868,4347875.0
1576760585926,4333446.0
1576760585968,4341835.0
1576760586025,4288898.0
1576760586071,4256420.0
1576760586121,4239910.0
1576760586171,4241692.0
1576760586218,4265031.0
1576760586268,4276329.0
1576760586316,4295736.0
1576760586368,4267266.0
1576760586407,4265713.0
1576760586459,4292935.0
1576760586513,4305619.0
1576760586561,4298049.0
1576760586610,4309597.0
1576760586659,4342009.0
1576760586709,4361831.0
1576760586752,4360714.0
1576760586808,4322533.0
1576760586849,4303057.0
1576760586906,4302750.0
1576760586950,4313287.0
1576760587004,4323998.0
1576760587053,4349667.0
1576760587102,4386527.0
1576760587150,4323043.0
1576760587198,4331028.0
1576760587248,4348029.0
1576760587289,4363932.0
1576760587347,4354992.0
1576760587389,4359887.0
1576760587441,4404059.0
1576760587492,4403096.0
1576760587543,4406678.0
1576760587590,4374237.0
1576760587634,4349801.0
1576760587689,4338281.0
1576760587730,4329130.0
1576760587784,4384688.0
1576760587829,4414065.0
1576760587886,4380806.0
1576760587933,4361465.0
1576760587980,4366147.0
1576760588032,4383032.0
1576760588077,4367514.0
1576760588129,4334785.0
1576760588171,4422735.0
1576760588218,4405483.0
1576760588271,4439629.0
1576760588317,4411841.0
1576760588365,4394743.0
1576760588419,4391643.0
1576760588465,4378109.0
1576760588519,4392009.0
1576760588570,4422032.0
1576760588610,4397161.0
1576760588668,4406081.0
1576760588713,4428889.0
1576760588766,4460704.0
1576760588814,4455686.0
1576760588863,4453623.0
1576760588911,4457900.0
1576760588961,4545985.0
1576760589011,4483214.0
1576760589051,4506195.0
1576760589108,4448790.0
1576760589153,4418700.0
1576760589206,4395073.0
1576760589255,4413911.0
1576760589302,4476115.0
1576760589352,4430874.0
1576760589401,4421694.0
1576760589443,4406920.0
1576760589498,4367341.0
1576760589548,4347028.0
1576760589592,4322062.0
1576760589638,4409153.0
1576760589696,4410059.0
1576760589744,4401082.0
1576760589792,4363613.0
1576760589841,4302132.0
1576760589890,4273149.0
1576760589933,4266581.0
1576760589985,4297297.0
1576760590033,4329969.0
1576760590080,4262536.0
1576760590136,4249272.0
1576760590184,4206112.0
1576760590233,4173305.0
1576760590280,4178102.0
1576760590330,4156631.0
1576760590372,4235767.0
1576760590429,4220483.0
1576760590475,4184074.0
1576760590527,4122949.0
1576760590576,4079008.0
1576760590624,4078766.0
1576760590674,4092907.0
1576760590721,4141905.0
1576760590772,4182830.0
1576760590814,4120850.0
1576760590870,4130297.0
1576760590916,4139005.0
1576760590968,4140653.0
1576760591018,4134440.0
1576760591067,4138630.0
1576760591116,4201478.0
1576760591166,4201488.0
1576760591212,4168488.0
1576760591255,4091501.0
1576760591310,4064753.0
1576760591354,4057114.0
1576760591408,4064473.0
1576760591457,4097125.0
1576760591506,4154504.0
1576760591556,4110823.0
1576760591603,4101124.0
1576760591653,4110707.0
1576760591697,4132841.0
1576760591751,4138938.0
1576760591793,4136925.0
1576760591850,4218075.0
1576760591897,4187444.0
1576760591948,4180538.0
1576760591995,4119519.0
1576760592044,4095248.0
1576760592094,4093031.0
1576760592136,4097405.0
1576760592189,4130944.0
1576760592234,4175934.0
1576760592290,4116429.0
1576760592336,4135009.0
1576760592389,4156265.0
1576760592438,4163096.0
1576760592486,4155948.0
1576760592535,4166698.0
1576760592577,4233957.0
1576760592633,4198454.0
1576760592675,4195545.0
1576760592731,4164028.0
1576760592775,4132648.0
1576760592829,4141547.0
1576760592879,4147145.0
1576760592926,4172986.0
1576760592976,4215176.0
1576760593018,4176310.0
1576760593074,4191085.0
1576760593117,4213172.0
1576760593172,4220944.0
1576760593218,4215464.0
1576760593269,4257334.0
1576760593318,4293493.0
1576760593367,4253356.0
1576760593415,4228766.0
1576760593460,4179382.0
1576760593515,4162344.0
1576760593557,4140084.0
1576760593613,4139969.0
1576760593657,4192558.0
1576760593711,4178429.0
1576760593760,4130153.0
1576760593809,4120945.0
1576760593858,4125011.0
1576760593905,4121167.0
1576760593955,4090229.0
1576760593998,4131175.0
1576760594050,4080509.0
1576760594097,4028411.0
1576760594150,3990200.0
1576760594197,3980531.0
1576760594248,3979162.0
1576760594299,3917691.0
1576760594344,3909841.0
1576760594396,3905304.0
1576760594437,3877853.0
1576760594494,3867721.0
1576760594537,3873674.0
1576760594594,3868895.0
1576760594638,3829174.0
1576760594690,3790240.0
1576760594739,3786465.0
1576760594787,3774927.0
1576760594839,3739731.0
1576760594882,3713889.0
1576760594937,3732256.0
1576760594977,3777036.0
1576760595033,3881553.0
1576760595080,4026378.0
1576760595123,4155629.0
1576760595184,4257844.0
1576760595225,4325471.0
1576760595281,4431837.0
1576760595321,4465442.0
1576760595377,4375673.0
1576760595421,4375375.0
1576760595468,4341430.0
1576760595523,4250447.0
1576760595570,4241393.0
1576760595619,4199629.0
1576760595665,4126734.0
1576760595720,4072082.0
1576760595761,4141693.0
1576760595812,4217467.0
1576760595861,4245747.0
1576760595916,4254002.0
1576760595961,4504742.0
1576760596013,4422042.0
1576760596064,4607928.0
1576760596108,4494561.0
1576760596160,4428611.0
1576760596204,4352103.0
1576760596261,4230576.0
1576760596301,4192993.0
1576760596358,4190575.0
1576760596400,4075849.0
1576760596456,4145208.0
1576760596502,4137782.0
1576760596552,4159049.0
1576760596603,4411889.0
1576760596645,4257865.0
1576760596702,4101497.0
1576760596742,4001288.0
1576760596799,3966650.0
1576760596842,3918163.0
1576760596896,3877333.0
1576760596941,3836166.0
1576760596992,3783692.0
1576760597042,3732171.0
1576760597090,3689153.0
1576760597139,3669764.0
1576760597182,3709381.0
1576760597240,3725283.0
1576760597281,3726014.0
1576760597337,3707349.0
1576760597380,3754758.0
1576760597433,3736638.0
1576760597484,3691753.0
1576760597531,3690337.0
1576760597579,3686263.0
1576760597623,3665103.0
1576760597682,3616778.0
1576760597722,3567116.0
1576760597778,3505442.0
1576760597821,3479495.0
1576760597876,3490273.0
1576760597925,3566585.0
1576760597974,3594355.0
1576760598020,3593258.0
1576760598069,3640232.0
1576760598118,3691580.0
1576760598166,3903782.0
1576760598220,3859494.0
1576760598259,3979008.0
1576760598317,4093880.0
1576760598365,4228987.0
1576760598415,4152663.0
1576760598464,4253771.0
1576760598510,4163990.0
1576760598559,4242781.0
1576760598608,4379863.0
1576760598662,4477155.0
1576760598704,4373217.0
1576760598758,4334728.0
1576760598805,4506802.0
1576760598856,4347412.0
1576760598906,4323718.0
1576760598952,4298020.0
1576760598998,4338310.0
1576760599045,4252422.0
1576760599099,4286848.0
1576760599147,4338243.0
1576760599199,4405030.0
1576760599241,4462669.0
1576760599297,4477348.0
1576760599347,4583155.0
1576760599395,4640321.0
1576760599443,4697689.0
1576760599492,4764844.0
1576760599538,4745744.0
1576760599587,4741302.0
1576760599642,4726903.0
1576760599681,4812897.0
1576760599738,4923308.0
1576760599786,4968964.0
1576760599835,5054256.0
1576760599883,5009794.0
1576760599934,5065813.0
1576760599979,5078566.0
1576760600025,5096135.0
1576760600083,5057405.0
1576760600122,5100865.0
1576760600180,5058994.0
1576760600227,5074907.0
1576760600276,5089702.0
1576760600323,5219935.0
1576760600374,5386800.0
1576760600421,5390691.0
1576760600465,5388706.0
1576760600518,5359185.0
1576760600564,5375116.0
1576760600619,5333371.0
1576760600668,5437070.0
1576760600717,5288957.0
1576760600764,5230126.0
1576760600808,5217373.0
1576760600864,5220215.0
1576760600911,5247077.0
1576760600959,5346980.0
1576760601009,5294766.0
1576760601063,5324836.0
1576760601103,5229838.0
1576760601159,5168414.0
1576760601208,5084027.0
1576760601256,5048785.0
1576760601303,5007666.0
1576760601355,4964957.0
1576760601403,4887113.0
1576760601450,4823127.0
1576760601498,4884512.0
1576760601543,4810134.0
1576760601600,4797466.0
1576760601647,4797785.0
1576760601697,4792151.0
1576760601746,4788018.0
1576760601796,4779493.0
1576760601845,4836890.0
1576760601893,4829561.0
1576760601940,4810008.0
1576760601989,4760884.0
1576760602040,4717811.0
1576760602088,4696852.0
1576760602140,4688664.0
1576760602186,4756829.0
1576760602238,4803295.0
1576760602287,4720247.0
1576760602335,4729600.0
1576760602383,4743172.0
1576760602428,4747448.0
1576760602477,4737316.0
1576760602524,4751666.0
1576760602579,4787141.0
1576760602629,4768581.0
1576760602680,4755297.0
1576760602728,4744704.0
1576760602778,4728974.0
1576760602827,4735514.0
1576760602866,4736948.0
1576760602917,4730004.0
1576760602965,4756329.0
1576760603015,4731690.0
1576760603064,4722366.0
1576760603122,4729677.0
1576760603168,4743846.0
1576760603219,4751282.0
1576760603268,4771065.0
1576760603317,4820410.0
1576760603367,4805770.0
1576760603411,4798055.0
1576760603465,4757012.0
1576760603507,4718726.0
1576760603561,4691774.0
1576760603607,4722742.0
1576760603661,4747853.0
1576760603709,4699751.0
1576760603759,4668474.0
1576760603807,4678532.0
1576760603853,4685986.0
1576760603906,4696677.0
1576760603946,4683290.0
1576760604001,4746426.0
1576760604047,4727287.0
1576760604100,4747410.0
1576760604149,4740437.0
1576760604198,4708400.0
1576760604247,4682808.0
1576760604293,4717618.0
1576760604345,4691939.0
1576760604386,4679456.0
1576760604444,4655481.0
1576760604488,4633435.0
1576760604541,4631056.0
1576760604590,4659074.0
1576760604639,4649289.0
1576760604688,4630072.0
1576760604729,4700655.0
1576760604786,4691216.0
1576760604832,4691514.0
1576760604885,4676874.0
1576760604927,4628656.0
1576760604981,4557226.0
1576760605032,4525913.0
1576760605080,4580488.0
1576760605128,4616482.0
1576760605177,4578984.0
1576760605226,4547614.0
1576760605268,4549733.0
1576760605325,4551842.0
1576760605367,4565355.0
1576760605422,4570469.0
1576760605470,4566676.0
1576760605520,4624650.0
1576760605570,4628792.0
1576760605619,4664015.0
1576760605668,4552285.0
1576760605711,4514450.0
1576760605766,4504588.0
1576760605807,4509125.0
1576760605864,4524391.0
1576760605909,4539032.0
1576760605960,4573051.0
1576760606010,4459105.0
1576760606058,4456448.0
1576760606109,4458229.0
1576760606151,4468959.0
1576760606206,4464546.0
1576760606247,4515279.0
1576760606304,4578358.0
1576760606351,4545523.0
1576760606400,4532289.0
1576760606451,4482096.0
1576760606501,4441006.0
1576760606549,4430913.0
1576760606596,4432916.0
1576760606647,4465280.0
1576760606690,4509393.0
1576760606746,4501485.0
1576760606790,4449387.0
1576760606841,4427503.0
1576760606892,4428765.0
1576760606941,4409183.0
1576760606989,4392578.0
1576760607032,4371281.0
1576760607081,4401072.0
1576760607129,4354925.0
1576760607181,4321464.0
1576760607229,4287463.0
1576760607279,4267727.0
1576760607327,4235517.0
1576760607383,4208857.0
1576760607431,4191433.0
1576760607475,4301805.0
1576760607528,4204271.0
1576760607569,4153541.0
1576760607626,4144688.0
1576760607670,4152462.0
1576760607727,4117768.0
1576760607772,4103848.0
1576760607821,4179460.0
1576760607871,4196016.0
1576760607920,4137455.0
1576760607969,4075040.0
1576760608011,4014214.0
1576760608069,3954948.0
1576760608116,3940634.0
1576760608167,3947637.0
1576760608213,4002318.0
1576760608265,4035992.0
1576760608312,3940855.0
1576760608361,3976957.0
1576760608409,4001403.0
1576760608452,3978855.0
1576760608508,3955939.0
1576760608550,3965659.0
1576760608606,4021148.0
1576760608653,4066891.0
1576760608703,4069993.0
1576760608753,3989103.0
1576760608800,3948032.0
1576760608851,3928344.0
1576760608897,3927883.0
1576760608947,3956268.0
1576760608991,3987716.0
1576760609046,4032418.0
1576760609093,3979605.0
1576760609142,3969982.0
1576760609194,3994400.0
1576760609241,3997060.0
1576760609291,3993977.0
1576760609340,4032967.0
1576760609387,4045691.0
1576760609431,4065349.0
1576760609481,4059127.0
1576760609534,4019145.0
1576760609586,4006113.0
1576760609635,4005497.0
1576760609676,4003301.0
1576760609732,4042821.0
1576760609780,4085394.0
1576760609830,4059532.0
1576760609873,4042319.0
1576760609929,4065099.0
1576760609973,4081251.0
1576760610027,4079364.0
1576760610077,4080761.0
1576760610126,4131724.0
1576760610165,4133140.0
1576760610221,4108665.0
1576760610272,4063713.0
1576760610319,4031898.0
1576760610370,4017651.0
1576760610413,3956547.0
1576760610468,3969001.0
1576760610515,4033064.0
1576760610560,4015303.0
1576760610615,3987821.0
1576760610662,4004457.0
1576760610712,4036589.0
1576760610754,4022332.0
1576760610810,3973373.0
1576760610854,4025368.0
1576760610908,4074384.0
1576760610954,4040277.0
1576760611006,4010920.0
1576760611056,3998185.0
1576760611103,3982457.0
1576760611155,3968048.0
1576760611195,3970889.0
1576760611251,3970649.0
1576760611295,3978951.0
1576760611349,4002366.0
1576760611395,4033536.0
1576760611463,4060072.0
1576760611505,4071417.0
1576760611539,4079981.0
1576760611590,4102914.0
1576760611636,4093196.0
1576760611692,4106670.0
1576760611735,4120829.0
1576760611791,4139150.0
1576760611838,4154705.0
1576760611887,4175723.0
1576760611937,4188186.0
1576760611979,4188899.0
1576760612038,4215570.0
1576760612079,4210551.0
1576760612125,4236424.0
1576760612178,4240757.0
1576760612226,4250668.0
1576760612278,4306679.0
1576760612323,4375375.0
1576760612373,4322698.0
1576760612430,4229701.0
1576760612476,4185874.0
1576760612518,4191739.0
1576760612576,4210427.0
1576760612617,4222427.0
1576760612672,4248801.0
1576760612717,4274547.0
1576760612770,4183852.0
1576760612815,4201575.0
1576760612869,4231944.0
1576760612921,4231828.0
1576760612966,4226117.0
1576760613019,4298221.0
1576760613057,4316446.0
1576760613114,4275500.0
1576760613157,4206169.0
1576760613206,4154715.0
1576760613257,4142098.0
1576760613304,4145160.0
1576760613351,4160176.0
1576760613403,4205899.0
1576760613453,4154898.0
1576760613509,4096808.0
1576760613555,4107182.0
1576760613597,4119992.0
1576760613653,4144428.0
1576760613698,4132148.0
1576760613749,4185114.0
1576760613800,4204137.0
1576760613846,4197597.0
1576760613898,4191008.0
1576760613940,4159483.0
1576760614000,4150361.0
1576760614040,4141181.0
1576760614095,4137541.0
1576760614139,4181424.0
1576760614189,4214983.0
1576760614240,4162844.0
1576760614288,4155129.0
1576760614339,4176542.0
1576760614381,4188322.0
1576760614437,4191703.0
1576760614478,4221523.0
1576760614535,4245863.0
1576760614579,4248289.0
1576760614632,4270019.0
1576760614678,4260975.0
1576760614729,4236288.0
1576760614781,4228987.0
1576760614827,4214733.0
1576760614877,4264588.0
1576760614927,4277532.0
1576760614975,4249041.0
1576760615023,4255349.0
1576760615070,4280047.0
1576760615119,4281732.0
1576760615167,4260532.0
1576760615221,4254569.0
1576760615261,4318478.0
1576760615315,4325038.0
1576760615361,4330191.0
1576760615414,4303752.0
1576760615467,4239882.0
1576760615514,4217159.0
1576760615564,4229902.0
1576760615605,4263074.0
1576760615661,4337789.0
1576760615703,4341152.0
1576760615758,4259801.0
1576760615801,4259693.0
1576760615857,4269364.0
1576760615900,4276203.0
1576760615953,4270945.0
1576760616008,4286037.0
1576760616046,4318256.0
1576760616093,4357140.0
1576760616141,4337895.0
1576760616192,4290633.0
1576760616239,4263499.0
1576760616290,4260821.0
1576760616340,4264261.0
1576760616387,4305639.0
1576760616444,4377677.0
1576760616487,4368554.0
1576760616542,4290450.0
1576760616585,4289804.0
1576760616642,4302750.0
1576760616681,4306948.0
1576760616739,4303240.0
1576760616782,4339929.0
1576760616837,4374373.0
1576760616880,4386192.0
1576760616945,4371059.0
1576760616984,4333399.0
1576760617031,4324469.0
1576760617079,4319124.0
1576760617128,4325885.0
1576760617180,4372715.0
1576760617220,4415626.0
1576760617269,4367475.0
1576760617318,4351112.0
1576760617367,4359009.0
1576760617422,4366994.0
1576760617467,4365116.0
1576760617520,4342962.0
1576760617568,4419161.0
1576760617620,4400032.0
1576760617661,4407082.0
1576760617718,4379054.0
1576760617760,4354127.0
1576760617809,4300505.0
1576760617866,4268527.0
1576760617912,4268229.0
1576760617966,4361293.0
1576760618005,4392202.0
1576760618060,4383561.0
1576760618103,4402970.0
1576760618160,4409943.0
1576760618200,4404028.0
1576760618251,4393963.0
1576760618303,4434448.0
1576760618349,4457478.0
1576760618402,4483657.0
1576760618444,4482048.0
1576760618506,4432906.0
1576760618544,4388522.0
1576760618601,4381346.0
1576760618640,4384794.0
1576760618696,4408970.0
1576760618748,4435584.0
1576760618797,4384119.0
1576760618843,4323555.0
1576760618893,4282174.0
1576760618939,4274450.0
1576760618988,4257314.0
1576760619043,4302122.0
1576760619082,4323640.0
1576760619138,4346227.0
1576760619182,4307084.0
1576760619236,4240392.0
1576760619287,4212217.0
1576760619334,4217756.0
1576760619383,4226243.0
1576760619427,4211996.0
1576760619474,4283601.0
1576760619523,4243031.0
1576760619575,4214347.0
1576760619620,4213489.0
1576760619677,4215415.0
1576760619727,4213749.0
1576760619775,4235412.0
1576760619821,4259059.0
1576760619871,4254270.0
1576760619922,4240922.0
1576760619964,4207065.0
1576760620022,4168769.0
1576760620065,4155861.0
1576760620119,4150188.0
1576760620169,4159126.0
1576760620216,4204088.0
1576760620264,4143185.0
1576760620314,4114848.0
1576760620363,4107105.0
1576760620409,4121177.0
1576760620467,4149071.0
1576760620503,4148339.0
1576760620560,4236231.0
1576760620606,4223477.0
1576760620656,4183909.0
1576760620704,4143051.0
1576760620754,4108279.0
1576760620800,4113259.0
1576760620850,4078604.0
1576760620901,4092405.0
1576760620942,4145641.0
1576760621000,4149908.0
1576760621048,4106873.0
1576760621098,4116429.0
1576760621146,4115716.0
1576760621194,4090422.0
1576760621242,4062104.0
1576760621287,4147588.0
1576760621343,4142453.0
1576760621387,4140432.0
1576760621443,4114155.0
1576760621484,4064262.0
1576760621532,4028517.0
1576760621581,4020849.0
1576760621629,4036000.0
1576760621679,4088129.0
1576760621727,4091723.0
1576760621777,4038601.0
1576760621826,4044950.0
1576760621877,4055044.0
1576760621924,4038881.0
1576760621972,4015120.0
1576760622024,4029866.0
1576760622071,4105967.0
1576760622120,4090248.0
1576760622169,4064262.0
1576760622219,3999601.0
1576760622267,3946365.0
1576760622316,3930666.0
1576760622368,3922314.0
1576760622414,3942532.0
1576760622464,3993061.0
1576760622514,3981860.0
1576760622567,3898081.0
1576760622614,3881398.0
1576760622663,3881638.0
1576760622711,3894863.0
1576760622759,3889952.0
1576760622808,3912143.0
1576760622861,3903774.0
1576760622907,3816545.0
1576760622957,3763531.0
1576760623006,3733142.0
1576760623048,3713426.0
1576760623104,3715718.0
1576760623148,3711605.0
1576760623198,3738199.0
1576760623245,3784096.0
1576760623293,3765438.0
1576760623347,3741234.0
1576760623393,3750028.0
1576760623442,3771093.0
1576760623491,3776709.0
1576760623547,3740954.0
1576760623587,3807924.0
1576760623645,3785530.0
1576760623686,3812211.0
1576760623744,3809920.0
1576760623790,3781099.0
1576760623838,3755855.0
1576760623887,3714350.0
1576760623930,3711788.0
1576760623987,3786331.0
1576760624037,3776034.0
1576760624086,3755904.0
1576760624126,3771247.0
1576760624184,3800037.0
1576760624227,3825976.0
1576760624281,3790077.0
1576760624329,3846867.0
1576760624380,3888574.0
1576760624425,3899940.0
1576760624478,3910891.0
1576760624526,3847600.0
1576760624567,3784645.0
1576760624625,3772277.0
1576760624667,3765006.0
1576760624719,3816238.0
1576760624769,3851895.0
1576760624814,3781755.0
1576760624868,3788064.0
1576760624916,3799700.0
1576760624964,3795423.0
1576760625009,3807347.0
1576760625068,3841830.0
1576760625106,3931658.0
1576760625164,3931609.0
1576760625210,3911094.0
1576760625260,3867036.0
1576760625301,3838931.0
1576760625354,3841647.0
1576760625403,3841676.0
1576760625455,3886273.0
1576760625497,3923624.0
1576760625548,3886793.0
1576760625605,3853726.0
1576760625650,3857328.0
1576760625700,3880155.0
1576760625750,3887215.0
1576760625799,3901962.0
1576760625848,4010168.0
1576760625891,4007509.0
1576760625947,3988784.0
1576760625986,3940307.0
1576760626046,3915274.0
1576760626090,3914426.0
1576760626136,3925733.0
1576760626191,3950439.0
1576760626239,4005313.0
1576760626289,3955766.0
1576760626335,3925869.0
1576760626387,3939691.0
1576760626440,3962672.0
1576760626485,3971149.0
1576760626529,3947849.0
1576760626575,4024472.0
1576760626632,4018336.0
1576760626681,4029779.0
1576760626730,4006036.0
1576760626776,3975984.0
1576760626828,3947493.0
1576760626869,3919079.0
1576760626925,3949775.0
1576760626976,4011402.0
1576760627023,3950065.0
1576760627075,3949342.0
1576760627120,3949285.0
1576760627170,3954301.0
1576760627220,3930116.0
1576760627269,3918240.0
1576760627309,4024395.0
1576760627367,4014906.0
1576760627410,3983449.0
1576760627468,3961027.0
1576760627518,3951106.0
1576760627563,3938092.0
1576760627612,3929742.0
1576760627660,3957847.0
1576760627709,4009880.0
1576760627753,3964974.0
1576760627809,3957548.0
1576760627849,3950508.0
1576760627908,3910160.0
1576760627954,3887071.0
1576760628003,3917354.0
1576760628052,4023373.0
1576760628099,3997696.0
1576760628150,3980357.0
1576760628195,3913675.0
1576760628249,3873875.0
1576760628291,3866083.0
1576760628348,3869377.0
1576760628393,3900682.0
1576760628446,3973894.0
1576760628493,3925243.0
1576760628539,3914368.0
1576760628591,3902858.0
1576760628640,3901297.0
1576760628689,3903437.0
1576760628730,3941483.0
1576760628784,4011708.0
1576760628832,4015890.0
1576760628887,3992955.0
1576760628935,4028594.0
1576760628982,4013019.0
1576760629034,4059773.0
1576760629075,4087899.0
1576760629122,4074144.0
1576760629173,4114173.0
1576760629221,4145141.0
1576760629271,4078902.0
1576760629328,4053156.0
1576760629374,4058221.0
1576760629423,4089467.0
1576760629475,4144593.0
1576760629515,4272052.0
1576760629571,4256843.0
1576760629614,4376049.0
1576760629666,4512024.0
1576760629716,4529554.0
1576760629764,4555213.0
1576760629813,4540476.0
1576760629867,4506571.0
1576760629914,4455513.0
1576760629967,4383061.0
1576760630014,4336981.0
1576760630062,4303616.0
1576760630112,4330240.0
1576760630155,4350409.0
1576760630210,4297567.0
1576760630254,4443087.0
1576760630308,4352595.0
1576760630354,4293512.0
1576760630401,4302374.0
1576760630446,4229690.0
1576760630498,4210984.0
1576760630550,4158953.0
1576760630603,4157846.0
1576760630651,4177696.0
1576760630694,4101180.0
1576760630750,4070995.0
1576760630793,4101845.0
1576760630848,4108444.0
1576760630896,4064743.0
1576760630945,4040701.0
1576760630994,4139843.0
1576760631039,4094843.0
1576760631088,4063221.0
1576760631139,4025973.0
1576760631186,3962548.0
1576760631237,3923624.0
1576760631280,3919339.0
1576760631336,3930107.0
1576760631385,3996905.0
1576760631437,3934500.0
1576760631485,3941445.0
1576760631534,3972874.0
1576760631580,3947503.0
1576760631632,3929278.0
1576760631674,3951152.0
1576760631730,4046384.0
1576760631777,4049379.0
1576760631828,4057634.0
1576760631877,3988053.0
1576760631930,3935693.0
1576760631977,3923124.0
1576760632023,3940847.0
1576760632075,3988408.0
1576760632116,4014348.0
1576760632171,3956758.0
1576760632215,3913435.0
1576760632268,3912740.0
1576760632319,3910111.0
1576760632365,3903774.0
1576760632414,3944488.0
1576760632465,4013799.0
1576760632506,3989778.0
1576760632556,3909629.0
1576760632612,3861325.0
1576760632656,3848090.0
1576760632709,3853543.0
1576760632758,3878095.0
1576760632807,3904119.0
1576760632856,3953629.0
1576760632900,3899198.0
1576760632952,3902039.0
1576760633000,3921775.0
1576760633046,3937147.0
1576760633099,3949651.0
1576760633150,3971764.0
1576760633199,4066813.0
1576760633246,4074414.0
1576760633299,4075589.0
1576760633343,4031908.0
1576760633395,4004514.0
1576760633439,3994670.0
1576760633491,4000026.0
1576760633538,4016516.0
1576760633589,4069983.0
1576760633637,4029933.0
1576760633687,4032390.0
1576760633740,4049621.0
1576760633788,4067025.0
1576760633837,4055834.0
1576760633877,4034383.0
1576760633935,4106940.0
1576760633981,4102846.0
1576760634032,4108818.0
1576760634081,4081820.0
1576760634131,4051065.0
1576760634181,4030386.0
1576760634228,4033139.0
1576760634277,4057740.0
1576760634326,4130375.0
1576760634376,4089902.0
1576760634423,4086560.0
1576760634474,4119413.0
1576760634522,4123152.0
1576760634568,4111158.0
1576760634618,4100053.0
1576760634668,4167728.0
1576760634719,4141693.0
1576760634762,4164656.0
1576760634809,4136124.0
1576760634860,4051413.0
1576760634912,4049111.0
1576760634966,4045730.0
1576760635004,4062413.0
1576760635062,4128392.0
1576760635103,4101672.0
1576760635161,4106786.0
1576760635201,4124123.0
1576760635257,4116640.0
1576760635300,4103791.0
1576760635356,4095104.0
1576760635399,4189641.0
1576760635445,4186510.0
1576760635501,4210330.0
1576760635543,4184218.0
1576760635596,4156921.0
1576760635643,4152317.0
1576760635699,4166812.0
1576760635741,4154743.0
1576760635796,4206035.0
1576760635841,4189236.0
1576760635892,4151545.0
1576760635943,4144140.0
1576760635982,4136876.0
1576760636038,4110486.0
1576760636084,4110754.0
1576760636140,4170319.0
1576760636180,4157710.0
1576760636237,4090894.0
1576760636280,4036540.0
1576760636335,3985885.0
1576760636382,3958202.0
1576760636432,3938476.0
1576760636479,3938805.0
1576760636530,3946164.0
1576760636581,3912259.0
1576760636620,3880917.0
1576760636678,3871112.0
1576760636721,3872479.0
1576760636776,3888111.0
1576760636825,3864850.0
1576760636873,3919164.0
1576760636921,3931830.0
1576760636968,3869685.0
1576760637018,3851125.0
1576760637066,3854622.0
1576760637120,3850353.0
1576760637159,3825562.0
1576760637217,3845615.0
1576760637265,3895172.0
1576760637314,3894121.0
1576760637362,3875512.0
1576760637409,3859553.0
1576760637465,3881957.0
1576760637504,3829260.0
1576760637559,3827141.0
1576760637600,3906663.0
1576760637656,3855217.0
1576760637707,3842822.0
1576760637755,3815265.0
1576760637804,3779433.0
1576760637850,3767952.0
1576760637899,3749950.0
1576760637946,3786032.0
1576760637997,3858868.0
1576760638042,3877825.0
1576760638101,3908195.0
1576760638142,3908224.0
1576760638195,3911690.0
1576760638242,3890944.0
1576760638290,3887802.0
1576760638337,3974182.0
1576760638388,3976783.0
1576760638440,3976399.0
1576760638481,3939663.0
1576760638540,3909485.0
1576760638583,3899958.0
1576760638658,3910245.0
1576760638687,3957432.0
1576760638733,4012066.0
1576760638798,4011073.0
1576760638843,3995749.0
1576760638878,3959562.0
1576760638928,3953137.0
1576760638979,3939143.0
1576760639022,3958983.0
1576760639075,4040903.0
1576760639125,3980405.0
1576760639172,3948822.0
1576760639222,3910814.0
1576760639271,3892975.0
1576760639321,3902453.0
1576760639369,3921592.0
1576760639420,3972140.0
1576760639473,3967364.0
1576760639512,3903849.0
1576760639565,3891917.0
1576760639616,3898611.0
1576760639667,3897831.0
1576760639712,3899863.0
1576760639761,3959196.0
1576760639805,3980164.0
1576760639858,3949630.0
1576760639903,3923961.0
1576760639959,3900285.0
1576760640008,3898774.0
1576760640049,3911285.0
1576760640107,3886870.0
1576760640153,3882843.0
1576760640203,3906643.0
1576760640247,3879519.0
1576760640301,3925619.0
1576760640347,3961768.0
1576760640399,3957780.0
1576760640441,3942696.0
1576760640500,3891858.0
1576760640546,3899593.0
1576760640595,3875069.0
1576760640643,3872585.0
1576760640692,3877034.0
1576760640741,3877410.0
1576760640791,3872700.0
1576760640838,3867999.0
1576760640882,3921968.0
1576760640942,3894834.0
1576760640992,3873548.0
1576760641035,3874616.0
1576760641086,3878074.0
1576760641133,3860410.0
1576760641182,3831938.0
1576760641224,3898313.0
1576760641280,3897425.0
1576760641324,3877469.0
1576760641378,3844276.0
1576760641426,3806585.0
1576760641472,3775928.0
1576760641526,3739018.0
1576760641574,3754506.0
1576760641616,3729830.0
1576760641664,3722471.0
1576760641715,3700711.0
1576760641762,3694055.0
1576760641812,3658573.0
1576760641864,3697611.0
1576760641920,3633875.0
1576760641968,3637709.0
1576760642014,3718097.0
1576760642063,3730013.0
1576760642105,3679898.0
1576760642183,3629994.0
1576760642215,3595491.0
1576760642287,3608206.0
1576760642310,3628424.0
1576760642359,3689124.0
1576760642408,3710411.0
1576760642457,3771796.0
1576760642507,3739759.0
1576760642554,3710027.0
1576760642605,3723895.0
1576760642646,3752955.0
1576760642704,3761509.0
1576760642744,3818723.0
1576760642800,3927584.0
1576760642849,3847281.0
1576760642896,3805622.0
1576760642947,3768580.0
1576760642994,3736764.0
1576760643046,3737179.0
1576760643089,3719513.0
1576760643145,3675660.0
1576760643186,3686428.0
1576760643242,3633568.0
1576760643290,3590483.0
1576760643342,3591803.0
1576760643389,3646955.0
1576760643436,3661066.0
1576760643487,3620699.0
1576760643535,3642969.0
1576760643585,3703293.0
1576760643625,3687554.0
1576760643674,3656616.0
1576760643725,3641157.0
1576760643773,3626652.0
1576760643820,3585011.0
1576760643870,3570102.0
1576760643918,3611625.0
1576760643967,3687814.0
1576760644017,3678461.0
1576760644067,3678894.0
1576760644125,3668677.0
1576760644166,3664438.0
1576760644220,3643286.0
1576760644269,3625025.0
1576760644321,3681139.0
1576760644369,3717115.0
1576760644415,3722471.0
1576760644466,3689654.0
1576760644508,3650846.0
1576760644565,3643824.0
1576760644606,3651734.0
1576760644660,3667019.0
1576760644709,3688151.0
1576760644758,3795693.0
1576760644810,3749701.0
1576760644857,3728713.0
1576760644907,3747456.0
1576760644950,3779348.0
1576760645005,3784789.0
1576760645048,3791473.0
1576760645105,3894912.0
1576760645150,3908406.0
1576760645201,3912982.0
1576760645250,3899958.0
1576760645297,3884123.0
1576760645348,3880049.0
1576760645389,3884674.0
1576760645446,3907935.0
1576760645491,3934789.0
1576760645544,3963144.0
1576760645592,3936753.0
1576760645642,3923508.0
1576760645691,3933949.0
1576760645741,3948003.0
1576760645789,3948418.0
1576760645836,3980810.0
1576760645886,4028391.0
1576760645928,4042810.0
1576760645987,4051604.0
1576760646029,4034344.0
1576760646082,4022834.0
1576760646131,3986657.0
1576760646180,3972189.0
1576760646230,3990566.0
1576760646278,4039633.0
1576760646328,4011796.0
1576760646369,4005497.0
1576760646427,4016891.0
1576760646469,4030134.0
1576760646517,4006865.0
1576760646571,3995257.0
1576760646622,4081040.0
1576760646672,4114029.0
1576760646719,4109618.0
1576760646770,4072226.0
1576760646810,4015195.0
1576760646869,3999900.0
1576760646909,4000719.0
1576760646966,4031715.0
1576760647012,4053195.0
1576760647056,4106055.0
1576760647113,4033082.0
1576760647153,4048176.0
1576760647209,4057240.0
1576760647253,4064262.0
1576760647308,4071476.0
1576760647350,4095989.0
1576760647405,4172978.0
1576760647453,4169346.0
1576760647503,4141240.0
1576760647552,4111274.0
1576760647600,4089786.0
1576760647650,4085857.0
1576760647699,4094342.0
1576760647747,4140151.0
1576760647791,4177688.0
1576760647847,4251806.0
1576760647893,4195053.0
1576760647944,4186067.0
1576760647994,4194996.0
1576760648044,4189669.0
1576760648094,4188397.0
1576760648139,4230038.0
1576760648188,4266928.0
1576760648230,4282839.0
1576760648288,4277233.0
1576760648332,4253328.0
1576760648386,4247846.0
1576760648435,4253655.0
1576760648489,4258287.0
1576760648523,4296653.0
1576760648575,4332676.0
1576760648623,4247432.0
1576760648674,4235700.0
1576760648721,4233274.0
1576760648769,4213932.0
1576760648820,4192694.0
1576760648871,4205149.0
1576760648918,4260937.0
1576760648970,4269143.0
1576760649020,4261254.0
1576760649068,4238888.0
1576760649119,4174315.0
1576760649166,4156448.0
1576760649210,4159232.0
1576760649264,4224201.0
1576760649316,4238291.0
1576760649363,4242704.0
1576760649411,4220753.0
1576760649461,4207961.0
1576760649508,4203627.0
1576760649559,4206998.0
1576760649603,4215879.0
1576760649652,4276896.0
1576760649705,4305080.0
1576760649757,4283995.0
1576760649802,4226897.0
1576760649853,4186270.0
1576760649901,4184787.0
1576760649949,4191557.0
1576760649999,4203290.0
1576760650047,4246247.0
1576760650100,4254492.0
1576760650145,4210755.0
1576760650199,4222813.0
1576760650244,4230267.0
1576760650293,4222746.0
1576760650341,4230249.0
1576760650391,4281116.0
1576760650434,4295901.0
1576760650489,4293050.0
1576760650540,4291642.0
1576760650586,4269962.0
1576760650634,4274787.0
1576760650684,4296498.0
1576760650733,4319691.0
1576760650778,4298252.0
1576760650831,4320646.0
1576760650881,4259819.0
1576760650929,4222996.0
1576760650973,4231019.0
1576760651027,4234882.0
1576760651074,4168710.0
1576760651125,4169096.0
1576760651175,4154069.0
1576760651223,4067825.0
1576760651272,4011729.0
1576760651322,3964598.0
1576760651370,3892331.0
1576760651419,3823047.0
1576760651467,3796443.0
1576760651514,3830735.0
1576760651566,3845664.0
1576760651614,3789442.0
1576760651664,3803369.0
1576760651713,3805769.0
1576760651763,3758754.0
1576760651810,3714592.0
1576760651863,3729385.0
1576760651908,3783239.0
1576760651957,3722894.0
1576760652006,3684386.0
1576760652057,3616152.0
1576760652099,3566047.0
1576760652155,3546532.0
1576760652204,3553554.0
1576760652252,3589818.0
1576760652301,3608968.0
1576760652349,3582565.0
1576760652400,3561858.0
1576760652446,3556404.0
1576760652501,3541668.0
1576760652545,3546571.0
1576760652595,3608234.0
1576760652643,3611115.0
1576760652692,3590078.0
1576760652736,3526662.0
1576760652790,3491764.0
1576760652836,3497890.0
1576760652887,3491525.0
1576760652937,3525632.0
1576760652980,3520160.0
1576760653035,3439347.0
1576760653084,3403373.0
1576760653133,3402784.0
1576760653181,3387211.0
1576760653230,3385283.0
1576760653276,3401957.0
1576760653328,3477144.0
1576760653378,3411358.0
1576760653420,3332819.0
1576760653472,3282318.0
1576760653521,3272031.0
1576760653574,3306205.0
1576760653623,3330939.0
1576760653671,3395185.0
1576760653716,3421336.0
1576760653765,3349818.0
1576760653821,3357033.0
1576760653861,3379494.0
1576760653916,3394377.0
1576760653960,3416559.0
1576760654012,3468273.0
1576760654059,3472164.0
1576760654114,3434792.0
1576760654157,3440089.0
1576760654211,3423561.0
1576760654262,3449191.0
1576760654308,3494182.0
1576760654362,3470035.0
1576760654399,3497506.0
1576760654450,3511338.0
1576760654498,3472810.0
1576760654547,3497988.0
1576760654598,3518031.0
1576760654652,3516828.0
1576760654704,3469149.0
1576760654749,3507726.0
1576760654803,3512628.0
1576760654847,3470006.0
1576760654897,3449847.0
1576760654944,3440570.0
1576760654995,3435014.0
1576760655038,3399182.0
1576760655093,3418359.0
1576760655136,3462599.0
1576760655190,3451859.0
1576760655243,3458448.0
1576760655288,3496870.0
1576760655338,3505105.0
1576760655387,3522145.0
1576760655435,3496216.0
1576760655480,3593199.0
1576760655529,3564237.0
1576760655577,3536678.0
1576760655631,3516470.0
1576760655683,3472810.0
1576760655728,3483365.0
1576760655779,3515652.0
1576760655827,3557705.0
1576760655877,3629368.0
1576760655924,3648323.0
1576760655974,3669359.0
1576760656017,3685926.0
1576760656072,3687873.0
1576760656121,3671102.0
1576760656170,3692611.0
1576760656222,3787044.0
1576760656268,3761365.0
1576760656319,3702503.0
1576760656366,3641793.0
1576760656416,3614630.0
1576760656463,3632518.0
1576760656513,3656752.0
1576760656561,3721516.0
1576760656611,3771845.0
1576760656663,3740222.0
1576760656708,3728731.0
1576760656758,3732122.0
1576760656807,3735879.0
1576760656857,3743603.0
1576760656901,3801472.0
1576760656955,3833557.0
1576760657003,3802955.0
1576760657050,3788497.0
1576760657105,3771477.0
1576760657150,3799998.0
1576760657200,3812721.0
1576760657243,3824916.0
1576760657297,3869675.0
1576760657345,3837062.0
1576760657395,3784789.0
1576760657439,3769656.0
1576760657493,3769793.0
1576760657543,3760806.0
1576760657591,3764282.0
1576760657641,3820216.0
1576760657682,3766180.0
1576760657738,3706587.0
1576760657787,3683055.0
1576760657836,3674849.0
1576760657884,3702176.0
1576760657934,3750605.0
1576760657985,3779665.0
1576760658031,3797957.0
1576760658083,3778537.0
1576760658129,3773366.0
1576760658180,3789442.0
1576760658228,3800143.0
1576760658277,3789490.0
1576760658326,3774358.0
1576760658375,3817384.0
1576760658422,3763049.0
1576760658473,3740424.0
1576760658525,3725899.0
1576760658571,3716382.0
1576760658621,3731785.0
1576760658670,3711479.0
1576760658718,3768984.0
1576760658767,3773366.0
1576760658813,3746098.0
1576760658864,3753640.0
1576760658909,3768271.0
1576760658960,3779126.0
1576760659009,3745491.0
1576760659057,3777237.0
1576760659107,3750306.0
1576760659156,3721864.0
1576760659202,3706067.0
1576760659255,3685272.0
1576760659302,3683606.0
1576760659353,3695481.0
1576760659401,3735675.0
1576760659453,3791725.0
1576760659506,3757665.0
1576760659551,3776863.0
1576760659601,3799602.0
1576760659649,3792071.0
1576760659698,3736399.0
1576760659746,3753120.0
1576760659798,3815293.0
1576760659846,3786697.0
1576760659895,3746454.0
1576760659947,3710045.0
1576760659992,3633288.0
1576760660041,3618003.0
1576760660090,3608129.0
1576760660140,3626536.0
1576760660184,3606635.0
1576760660237,3594567.0
1576760660284,3604555.0
1576760660335,3592486.0
1576760660385,3650915.0
1576760660433,3605250.0
1576760660482,3662587.0
1576760660524,3663898.0
1576760660581,3608803.0
1576760660629,3549568.0
1576760660678,3460876.0
1576760660722,3435467.0
1576760660776,3445831.0
1576760660827,3471587.0
1576760660874,3562782.0
1576760660923,3555384.0
1576760660972,3515759.0
1576760661020,3474340.0
1576760661070,3465585.0
1576760661120,3476951.0
1576760661162,3499414.0
1576760661218,3629618.0
1576760661267,3638653.0
1576760661314,3597293.0
1576760661363,3568243.0
1576760661412,3573378.0
1576760661462,3582364.0
1576760661509,3613340.0
1576760661559,3651974.0
1576760661606,3684453.0
1576760661660,3594317.0
1576760661710,3578646.0
1576760661756,3592872.0
1576760661804,3604786.0
1576760661853,3610855.0
1576760661903,3621932.0
1576760661951,3737341.0
1576760662000,3696465.0
1576760662045,3682690.0
1576760662101,3661480.0
1576760662148,3656636.0
1576760662197,3676862.0
1576760662239,3712993.0
1576760662288,3707771.0
1576760662342,3753138.0
1576760662391,3792215.0
1576760662442,3802349.0
1576760662488,3820881.0
1576760662535,3829491.0
1576760662588,3834481.0
1576760662636,3826314.0
1576760662688,3912230.0
1576760662729,3883834.0
1576760662784,3868588.0
1576760662833,3845558.0
1576760662881,3846761.0
1576760662929,3851182.0
1576760662980,3883237.0
1576760663030,3879251.0
1576760663072,3902994.0
1576760663125,3949188.0
1576760663176,3923972.0
1576760663223,3946723.0
1576760663274,3965263.0
1576760663322,4010967.0
1576760663370,3999246.0
1576760663420,4051354.0
1576760663466,4056555.0
1576760663519,4067132.0
1576760663568,4051701.0
1576760663617,4027891.0
1576760663665,4002444.0
1576760663714,3978325.0
1576760663763,4024163.0
1576760663807,4020975.0
1576760663862,4025406.0
1576760663908,4003271.0
1576760663959,3999477.0
1576760664011,4019858.0
1576760664058,4027188.0
1576760664107,4023316.0
1576760664155,4054389.0
1576760664204,4105102.0
1576760664253,4110898.0
1576760664302,4112219.0
1576760664345,4086251.0
1576760664400,4078699.0
1576760664451,4075877.0
1576760664497,4118672.0
1576760664544,4135942.0
1576760664596,4174364.0
1576760664644,4125338.0
1576760664694,4112402.0
1576760664742,4112904.0
1576760664788,4116900.0
1576760664841,4128997.0
1576760664887,4191711.0
1576760664938,4220820.0
1576760664987,4199812.0
1576760665037,4155024.0
1576760665084,4123855.0
1576760665135,4111853.0
1576760665184,4113836.0
1576760665231,4109224.0
1576760665281,4124249.0
1576760665326,4198426.0
1576760665380,4196634.0
1576760665428,4166765.0
1576760665478,4190652.0
1576760665525,4219231.0
1576760665576,4209637.0
1576760665624,4212593.0
1576760665667,4263586.0
1576760665722,4258163.0
1576760665769,4263306.0
1576760665814,4259925.0
1576760665871,4263123.0
1576760665918,4259858.0
1576760665967,4263249.0
1576760666017,4290574.0
1576760666064,4321011.0
1576760666108,4276059.0
1576760666164,4252267.0
1576760666211,4265551.0
1576760666262,4272331.0
1576760666314,4273198.0
1576760666358,4278304.0
1576760666407,4341276.0
1576760666458,4326223.0
1576760666505,4315308.0
1576760666555,4295121.0
1576760666603,4277128.0
1576760666649,4234333.0
1576760666702,4240449.0
1576760666754,4224577.0
1576760666800,4262294.0
1576760666847,4283341.0
1576760666898,4219038.0
1576760666946,4228766.0
1576760666996,4201266.0
1576760667044,4162998.0
1576760667088,4164136.0
1576760667143,4266061.0
1576760667194,4239843.0
1576760667241,4210070.0
1576760667282,4175752.0
1576760667332,4156862.0
1576760667380,4155910.0
1576760667429,4193936.0
1576760667478,4218680.0
1576760667532,4288725.0
1576760667583,4334967.0
1576760667635,4276762.0
1576760667681,4268826.0
1576760667729,4267688.0
1576760667779,4267526.0
1576760667827,4265396.0
1576760667879,4329699.0
1576760667925,4362044.0
1576760667972,4349204.0
1576760668020,4276540.0
1576760668069,4218044.0
1576760668123,4204552.0
1576760668167,4202345.0
1576760668220,4238100.0
1576760668269,4316495.0
1576760668319,4332732.0
1576760668367,4344273.0
1576760668415,4350852.0
1576760668464,4343887.0
1576760668512,4337550.0
1576760668563,4311870.0
1576760668614,4322639.0
1576760668662,4340274.0
1576760668710,4361321.0
1576760668760,4361630.0
1576760668808,4416184.0
1576760668859,4410877.0
1576760668905,4416954.0
1576760668951,4387742.0
1576760669003,4419248.0
1576760669056,4376915.0
1576760669102,4355618.0
1576760669152,4353818.0
1576760669201,4368709.0
1576760669249,4371868.0
1576760669299,4308325.0
1576760669346,4350043.0
1576760669390,4372630.0
1576760669445,4371636.0
1576760669496,4339206.0
1576760669538,4311062.0
1576760669592,4305946.0
1576760669641,4314183.0
1576760669691,4307112.0
1576760669740,4338425.0
1576760669787,4383282.0
1576760669840,4303636.0
1576760669885,4316706.0
1576760669935,4361311.0
1576760669984,4324547.0
1576760670033,4286067.0
1576760670082,4278467.0
1576760670132,4360706.0
1576760670181,4368613.0
1576760670229,4364385.0
1576760670278,4254021.0
1576760670327,4181540.0
1576760670374,4161842.0
1576760670424,4159262.0
1576760670476,4222082.0
1576760670523,4224507.0
1576760670572,4292000.0
1576760670621,4221446.0
1576760670670,4213191.0
1576760670719,4234825.0
1576760670766,4234410.0
1576760670814,4232435.0
1576760670865,4279419.0
1576760670919,4316340.0
1576760670964,4319374.0
1576760671013,4299908.0
1576760671057,4240459.0
1576760671112,4216561.0
1576760671157,4202682.0
1576760671208,4218276.0
1576760671258,4269673.0
1576760671306,4324961.0
1576760671357,4246412.0
1576760671405,4240026.0
1576760671453,4243608.0
1576760671502,4238677.0
1576760671547,4241558.0
1576760671597,4241190.0
1576760671649,4308971.0
1576760671700,4217457.0
1576760671747,4158876.0
1576760671797,4125462.0
1576760671845,4125058.0
1576760671898,4107981.0
1576760671945,4108336.0
1576760671994,4143859.0
1576760672043,4174210.0
1576760672091,4142010.0
1576760672137,4122804.0
1576760672189,4132648.0
1576760672235,4139747.0
1576760672287,4119107.0
1576760672335,4127581.0
1576760672385,4209473.0
1576760672431,4165658.0
1576760672480,4156623.0
1576760672526,4124336.0
1576760672578,4062065.0
1576760672630,4031550.0
1576760672678,4076830.0
1576760672727,4128698.0
1576760672776,4144467.0
1576760672826,4101556.0
1576760672876,4070001.0
1576760672924,4082139.0
1576760672973,4093023.0
1576760673024,4093696.0
1576760673071,4109232.0
1576760673117,4204147.0
1576760673169,4191518.0
1576760673220,4201083.0
1576760673266,4171908.0
1576760673317,4150129.0
1576760673362,4143841.0
1576760673412,4150343.0
1576760673460,4194813.0
1576760673514,4221927.0
1576760673564,4171513.0
1576760673611,4162893.0
1576760673659,4177881.0
1576760673709,4186355.0
1576760673759,4193956.0
1576760673807,4237521.0
1576760673857,4259281.0
1576760673904,4248366.0
1576760673955,4222947.0
1576760673998,4155418.0
1576760674053,4158675.0
1576760674096,4157488.0
1576760674151,4171784.0
1576760674203,4237801.0
1576760674249,4265020.0
1576760674302,4230798.0
1576760674346,4237830.0
1576760674396,4252355.0
1576760674443,4255398.0
1576760674495,4255215.0
1576760674537,4305523.0
1576760674591,4321214.0
1576760674640,4292010.0
1576760674690,4256755.0
1576760674740,4196364.0
1576760674788,4175510.0
1576760674838,4156795.0
1576760674880,4149581.0
1576760674935,4243628.0
1576760674980,4242163.0
1576760675033,4186453.0
1576760675077,4204609.0
1576760675131,4207335.0
1576760675181,4205582.0
1576760675228,4179614.0
1576760675278,4258972.0
1576760675327,4234487.0
1576760675377,4217073.0
1576760675424,4183361.0
1576760675473,4152915.0
1576760675517,4125521.0
1576760675572,4091270.0
1576760675624,4134672.0
1576760675669,4150265.0
1576760675719,4143666.0
1576760675763,4113038.0
1576760675813,4118200.0
1576760675865,4205466.0
1576760675915,4173112.0
1576760675962,4155255.0
1576760676012,4238360.0
1576760676060,4206815.0
1576760676111,4230702.0
1576760676162,4228833.0
1576760676208,4174624.0
1576760676258,4118066.0
1576760676306,4114241.0
1576760676356,4158683.0
1576760676402,4141433.0
1576760676453,4197067.0
1576760676500,4179421.0
1576760676546,4190344.0
1576760676604,4197432.0
1576760676648,4192568.0
1576760676698,4181126.0
1576760676746,4288560.0
1576760676796,4274257.0
1576760676843,4244419.0
1576760676895,4152462.0
1576760676941,4108925.0
1576760676992,4096451.0
1576760677045,4107249.0
1576760677090,4143648.0
1576760677140,4202538.0
1576760677188,4092588.0
1576760677238,4029624.0
1576760677286,4004823.0
1576760677335,4011901.0
1576760677381,3994660.0
1576760677428,3986513.0
1576760677479,4073595.0
1576760677524,4032042.0
1576760677576,3979605.0
1576760677624,3935270.0
1576760677675,3896943.0
1576760677724,3898802.0
1576760677776,3895105.0
1576760677819,3933112.0
1576760677873,3957751.0
1576760677925,3957790.0
1576760677971,3908347.0
1576760678020,3891829.0
1576760678069,3908821.0
1576760678119,3900615.0
1576760678165,3856731.0
1576760678217,3934807.0
1576760678263,3914831.0
1576760678315,3881821.0
1576760678359,3858137.0
1576760678408,3839904.0
1576760678458,3825928.0
1576760678504,3795163.0
1576760678554,3846491.0
1576760678602,3852233.0
1576760678654,3807811.0
1576760678703,3780764.0
1576760678755,3766286.0
1576760678806,3760479.0
1576760678853,3716933.0
1576760678902,3727297.0
1576760678950,3814977.0
1576760679000,3804613.0
1576760679049,3789230.0
1576760679099,3765449.0
1576760679145,3707648.0
1576760679196,3669205.0
1576760679245,3658321.0
1576760679294,3705451.0
1576760679346,3721912.0
1576760679392,3751212.0
1576760679441,3726303.0
1576760679490,3738430.0
1576760679540,3742524.0
1576760679586,3725139.0
1576760679638,3754199.0
1576760679685,3875716.0
1576760679735,3856085.0
1576760679785,3827797.0
1576760679832,3752059.0
1576760679876,3731823.0
1576760679924,3730098.0
1576760679974,3766383.0
1576760680023,3812134.0
1576760680074,3822797.0
1576760680121,3814456.0
1576760680175,3817356.0
1576760680224,3830771.0
1576760680273,3845404.0
1576760680323,3853850.0
1576760680371,3872979.0
1576760680421,3968605.0
1576760680470,3960131.0
1576760680519,3951701.0
1576760680568,3918904.0
1576760680614,3893235.0
1576760680663,3884413.0
1576760680716,3885289.0
1576760680762,3898138.0
1576760680807,3963087.0
1576760680856,3927180.0
1576760680904,3917210.0
1576760680954,3917519.0
1576760681006,3936465.0
1576760681059,3910930.0
1576760681104,3881600.0
1576760681158,3965322.0
1576760681208,3919156.0
1576760681254,3893410.0
