time,value
1574255671462,5409964.0
1574255671509,5373200.0
1574255671560,5307095.0
1574255671609,5271168.0
1574255671665,5097888.0
1574255671752,4968116.0
1574255671754,4877114.0
1574255671834,4791495.0
1574255671854,4696023.0
1574255671899,4523765.0
1574255671948,4334331.0
1574255671998,4218825.0
1574255672047,4143571.0
1574255672097,4067277.0
1574255672148,3992569.0
1574255672197,3921178.0
1574255672247,3858320.0
1574255672296,3906499.0
1574255672348,3950333.0
1574255672395,3976360.0
1574255672446,3927468.0
1574255672495,3890809.0
1574255672545,3858675.0
1574255672593,3842688.0
1574255672643,3825706.0
1574255672692,3801327.0
1574255672742,3781207.0
1574255672792,3775880.0
1574255672843,3769782.0
1574255672895,3694017.0
1574255672941,3640685.0
1574255672992,3612174.0
1574255673044,3605672.0
1574255673089,3561760.0
1574255673139,3501340.0
1574255673189,3462272.0
1574255673238,3432827.0
1574255673293,3376229.0
1574255673341,3332327.0
1574255673391,3200668.0
1574255673440,3084986.0
1574255673489,3157438.0
1574255673539,3273563.0
1574255673590,3367696.0
1574255673638,3392633.0
1574255673688,3356850.0
1574255673737,3339001.0
1574255673788,3342652.0
1574255673835,3323899.0
1574255673887,3326490.0
1574255673933,3425517.0
1574255673985,3375585.0
1574255674029,3401437.0
1574255674084,3435544.0
1574255674131,3432807.0
1574255674183,3447371.0
1574255674230,3454789.0
1574255674282,3398970.0
1574255674332,3299742.0
1574255674381,3253306.0
1574255674432,3260338.0
1574255674480,3277155.0
1574255674531,3280469.0
1574255674578,3287846.0
1574255674629,3301447.0
1574255674674,3316618.0
1574255674727,3331248.0
1574255674778,3280294.0
1574255674828,3250580.0
1574255674876,3260192.0
1574255674927,3286903.0
1574255674973,3320825.0
1574255675027,3337990.0
1574255675077,3347025.0
1574255675124,3357736.0
1574255675171,3352515.0
1574255675223,3287596.0
1574255675273,3255464.0
1574255675322,3271944.0
1574255675372,3306032.0
1574255675421,3321567.0
1574255675471,3307639.0
1574255675520,3288049.0
1574255675571,3278108.0
1574255675620,3287354.0
1574255675669,3246843.0
1574255675719,3207883.0
1574255675769,3210154.0
1574255675817,3227782.0
1574255675869,3217021.0
1574255675911,3205831.0
1574255675968,3150947.0
1574255676014,3099975.0
1574255676065,3055831.0
1574255676113,3084111.0
1574255676165,3068078.0
1574255676212,3017553.0
1574255676264,3013042.0
1574255676312,3204983.0
1574255676362,3355962.0
1574255676413,3314366.0
1574255676461,3362746.0
1574255676511,3441345.0
1574255676561,3418577.0
1574255676611,3418831.0
1574255676660,3445016.0
1574255676710,3484982.0
1574255676754,3508998.0
1574255676802,3502429.0
1574255676851,3408577.0
1574255676909,3470301.0
1574255676951,3472455.0
1574255677009,3437905.0
1574255677051,3420858.0
1574255677106,3383143.0
1574255677151,3381835.0
1574255677204,3375593.0
1574255677255,3360473.0
1574255677304,3357805.0
1574255677353,3363295.0
1574255677403,3282454.0
1574255677453,3209472.0
1574255677498,3192567.0
1574255677553,3201381.0
1574255677601,3207050.0
1574255677652,3207005.0
1574255677701,3216174.0
1574255677751,3235917.0
1574255677801,3238755.0
1574255677851,3158038.0
1574255677898,3117893.0
1574255677954,3120418.0
1574255677993,3141997.0
1574255678042,3162615.0
1574255678091,3178227.0
1574255678145,3195897.0
1574255678196,3216381.0
1574255678243,3205475.0
1574255678295,3146410.0
1574255678344,3127515.0
1574255678395,3139069.0
1574255678445,3161486.0
1574255678493,3161894.0
1574255678543,3151374.0
1574255678592,3158365.0
1574255678642,3193719.0
1574255678686,3197925.0
1574255678742,3150474.0
1574255678791,3129514.0
1574255678835,3131794.0
1574255678891,3126044.0
1574255678939,3093313.0
1574255678990,3057253.0
1574255679035,3006065.0
1574255679089,2983037.0
1574255679134,2982495.0
1574255679189,2848623.0
1574255679233,2863506.0
1574255679288,2500955.0
1574255679333,2599734.0
1574255679386,2788622.0
1574255679435,2900228.0
1574255679484,2937230.0
1574255679534,2971284.0
1574255679584,2994830.0
1574255679633,2977078.0
1574255679678,2961645.0
1574255679732,2974063.0
1574255679776,3034583.0
1574255679826,3018823.0
1574255679876,2938323.0
1574255679929,2941665.0
1574255679977,2960733.0
1574255680024,2962501.0
1574255680075,2938174.0
1574255680130,2950619.0
1574255680173,3006333.0
1574255680230,3052111.0
1574255680276,3068220.0
1574255680327,3089336.0
1574255680376,3127218.0
1574255680429,3161331.0
1574255680475,3139819.0
1574255680526,3105491.0
1574255680574,3108746.0
1574255680620,3128273.0
1574255680674,3150683.0
1574255680724,3178040.0
1574255680774,3195993.0
1574255680823,3214145.0
1574255680873,3224527.0
1574255680921,3192523.0
1574255680972,3145079.0
1574255681019,3141617.0
1574255681071,3166992.0
1574255681115,3188644.0
1574255681171,3187165.0
1574255681215,3170031.0
1574255681268,3159064.0
1574255681316,3166681.0
1574255681367,3130695.0
1574255681416,3079736.0
1574255681468,3051635.0
1574255681515,3029032.0
1574255681566,3050595.0
1574255681614,3068399.0
1574255681666,3100706.0
1574255681713,3149620.0
1574255681763,3162548.0
1574255681813,3025956.0
1574255681863,2893858.0
1574255681909,2826109.0
1574255681956,2831689.0
1574255682011,2848512.0
1574255682055,2855525.0
1574255682112,2852955.0
1574255682157,2851297.0
1574255682211,2852136.0
1574255682257,2812377.0
1574255682309,2764214.0
1574255682360,2753789.0
1574255682408,2779089.0
1574255682456,2802167.0
1574255682508,2812578.0
1574255682556,2808862.0
1574255682605,2813403.0
1574255682654,2834944.0
1574255682705,2821747.0
1574255682749,2780515.0
1574255682804,2774125.0
1574255682847,2793644.0
1574255682903,2805942.0
1574255682952,2797925.0
1574255683001,2797858.0
1574255683048,2812556.0
1574255683098,2826294.0
1574255683144,2779312.0
1574255683200,2724425.0
1574255683247,2721064.0
1574255683297,2754419.0
1574255683345,2794077.0
1574255683394,2826502.0
1574255683443,2843771.0
1574255683497,2859085.0
1574255683548,2844871.0
1574255683596,2802033.0
1574255683647,2755415.0
1574255683690,2749584.0
1574255683745,2763046.0
1574255683794,2807206.0
1574255683844,2874636.0
1574255683893,2937780.0
1574255683937,2980839.0
1574255683992,3022522.0
1574255684037,2980199.0
1574255684087,2962976.0
1574255684138,3004066.0
1574255684190,3070287.0
1574255684238,3133698.0
1574255684289,3206611.0
1574255684338,3287572.0
1574255684390,3507571.0
1574255684434,3808465.0
1574255684488,3989380.0
1574255684537,4005995.0
1574255684588,4008462.0
1574255684636,4013996.0
1574255684682,4038688.0
1574255684735,4042536.0
1574255684786,4049336.0
1574255684834,4147640.0
1574255684884,4271713.0
1574255684933,4218302.0
1574255684977,4225615.0
1574255685033,4247377.0
1574255685079,4260209.0
1574255685131,4217396.0
1574255685179,4198784.0
1574255685232,4364800.0
1574255685282,4466129.0
1574255685331,4485603.0
1574255685379,4533898.0
1574255685429,4509336.0
1574255685478,4505002.0
1574255685528,4476019.0
1574255685577,4424864.0
1574255685629,4426347.0
1574255685676,4570798.0
1574255685719,4592961.0
1574255685772,4549270.0
1574255685822,4387124.0
1574255685871,4313037.0
1574255685918,4315897.0
1574255685975,4356419.0
1574255686018,4567320.0
1574255686073,4685110.0
1574255686119,4639589.0
1574255686172,4701021.0
1574255686219,4763457.0
1574255686271,4675208.0
1574255686320,4679948.0
1574255686371,4642141.0
1574255686420,4495717.0
1574255686471,4403933.0
1574255686519,4294446.0
1574255686569,4324825.0
1574255686618,4382039.0
1574255686668,4316080.0
1574255686717,4299859.0
1574255686769,4284785.0
1574255686816,4314355.0
1574255686862,4318835.0
1574255686910,4211380.0
1574255686965,4209954.0
1574255687010,4222205.0
1574255687059,4202471.0
1574255687113,4156556.0
1574255687161,4090170.0
1574255687213,4085038.0
1574255687263,4143156.0
1574255687312,4127341.0
1574255687361,4154079.0
1574255687411,4180933.0
1574255687460,4148792.0
1574255687511,4021428.0
1574255687559,3967238.0
1574255687609,4120636.0
1574255687658,4172062.0
1574255687707,4080579.0
1574255687752,4026967.0
1574255687808,4026908.0
1574255687855,4039170.0
1574255687907,3956933.0
1574255687955,3893217.0
1574255688000,3943090.0
1574255688055,4020638.0
1574255688102,3943495.0
1574255688154,3929866.0
1574255688206,3943129.0
1574255688253,3938641.0
1574255688301,3906970.0
1574255688352,3864206.0
1574255688401,4200862.0
1574255688452,4323689.0
1574255688500,4295476.0
1574255688550,4244792.0
1574255688600,4220848.0
1574255688650,4194255.0
1574255688694,4116100.0
1574255688743,3986436.0
1574255688792,3960476.0
1574255688844,3916487.0
1574255688896,3893063.0
1574255688946,3900239.0
1574255688995,3900700.0
1574255689043,3886425.0
1574255689095,3845924.0
1574255689143,3781524.0
1574255689194,3588798.0
1574255689242,3427982.0
1574255689293,3390370.0
1574255689343,3402168.0
1574255689392,3413524.0
1574255689442,3413516.0
1574255689491,3420499.0
1574255689541,3472347.0
1574255689587,3475594.0
1574255689640,3411029.0
1574255689686,3380053.0
1574255689740,3415499.0
1574255689789,3448161.0
1574255689838,3484887.0
1574255689883,3672057.0
1574255689931,3807963.0
1574255689987,3862125.0
1574255690032,3849169.0
1574255690086,3689335.0
1574255690132,3553044.0
1574255690182,3530225.0
1574255690235,3496571.0
1574255690283,3538653.0
1574255690335,3633962.0
1574255690384,3684211.0
1574255690434,3696753.0
1574255690484,3608986.0
1574255690533,3565285.0
1574255690582,3585369.0
1574255690625,3634992.0
1574255690681,3895885.0
1574255690732,4070743.0
1574255690776,4061188.0
1574255690827,4060216.0
1574255690876,4107932.0
1574255690926,4179797.0
1574255690979,4195748.0
1574255691024,4220617.0
1574255691078,4261014.0
1574255691124,4461389.0
1574255691176,4442971.0
1574255691223,4474689.0
1574255691274,4492316.0
1574255691323,4472724.0
1574255691375,4469564.0
1574255691423,4527589.0
1574255691473,4629841.0
1574255691523,4679157.0
1574255691573,4710586.0
1574255691622,4734821.0
1574255691673,4729620.0
1574255691721,4735282.0
1574255691771,4712561.0
1574255691821,4645735.0
1574255691870,4720142.0
1574255691919,4803929.0
1574255691966,4767252.0
1574255692019,4745049.0
1574255692064,4720054.0
1574255692113,4693229.0
1574255692164,4668302.0
1574255692216,4745600.0
1574255692269,4905624.0
1574255692315,4915006.0
1574255692366,4862049.0
1574255692414,4854865.0
1574255692465,4859757.0
1574255692514,4829531.0
1574255692563,4797803.0
1574255692613,4887873.0
1574255692662,4888634.0
1574255692712,4853006.0
1574255692757,4832286.0
1574255692808,4776267.0
1574255692857,4765565.0
1574255692908,4759545.0
1574255692957,4885560.0
1574255693009,4948150.0
1574255693056,4899045.0
1574255693109,4829590.0
1574255693155,4761317.0
1574255693208,4747611.0
1574255693254,4738182.0
1574255693308,4758977.0
1574255693353,4786582.0
1574255693408,4807677.0
1574255693453,4850356.0
1574255693508,4864505.0
1574255693552,4781622.0
1574255693604,4811259.0
1574255693651,4797659.0
1574255693701,4964313.0
1574255693751,4919822.0
1574255693804,4856443.0
1574255693848,4863483.0
1574255693903,4879937.0
1574255693948,4848054.0
1574255694002,4710432.0
1574255694047,4715306.0
1574255694096,4724794.0
1574255694146,4668544.0
1574255694201,4632846.0
1574255694250,4622368.0
1574255694300,4625960.0
1574255694353,4590890.0
1574255694398,4547622.0
1574255694450,4647564.0
1574255694497,4814401.0
1574255694552,4777327.0
1574255694596,4742005.0
1574255694647,4764978.0
1574255694691,4827855.0
1574255694746,4810412.0
1574255694794,4777721.0
1574255694838,4746552.0
1574255694887,4884443.0
1574255694937,4886523.0
1574255694987,4877452.0
1574255695043,4888210.0
1574255695087,4866123.0
1574255695143,4856057.0
1574255695187,4915892.0
1574255695242,5087872.0
1574255695289,5101202.0
1574255695341,4969185.0
1574255695388,4904074.0
1574255695439,4850627.0
1574255695493,4856049.0
1574255695537,4854950.0
1574255695587,4844674.0
1574255695637,5013136.0
1574255695687,4945491.0
1574255695736,4765836.0
1574255695788,4636757.0
1574255695835,4616868.0
1574255695887,4641044.0
1574255695931,4637596.0
1574255695978,4749316.0
1574255696028,4793006.0
1574255696081,4744529.0
1574255696128,4643953.0
1574255696179,4559634.0
1574255696228,4527414.0
1574255696282,4550040.0
1574255696326,4638057.0
1574255696381,4577926.0
1574255696430,4644770.0
1574255696480,4619073.0
1574255696528,4632220.0
1574255696579,4705164.0
1574255696628,4748517.0
1574255696678,4725428.0
1574255696727,4670990.0
1574255696777,4715942.0
1574255696827,4712927.0
1574255696877,4644839.0
1574255696927,4633252.0
1574255696970,4627011.0
1574255697026,4500030.0
1574255697075,4379266.0
1574255697125,4297047.0
1574255697170,4344023.0
1574255697225,4320404.0
1574255697273,4270096.0
1574255697324,4267554.0
1574255697374,4258490.0
1574255697422,4249888.0
1574255697468,4125011.0
1574255697522,4004012.0
1574255697568,3940664.0
1574255697620,3905208.0
1574255697670,3875927.0
1574255697720,3866217.0
1574255697772,3868269.0
1574255697819,3901287.0
1574255697870,3993707.0
1574255697918,4072246.0
1574255697972,4115716.0
1574255698018,4196441.0
1574255698062,4204483.0
1574255698111,4216842.0
1574255698167,4183958.0
1574255698216,4137975.0
1574255698267,4050141.0
1574255698315,3961768.0
1574255698366,3869224.0
1574255698414,3781197.0
1574255698466,3725283.0
1574255698510,3684723.0
1574255698563,3739404.0
1574255698610,3674676.0
1574255698664,3598112.0
1574255698714,3611625.0
1574255698755,3608602.0
1574255698814,3625553.0
1574255698860,3626699.0
1574255698911,3668772.0
1574255698960,3678587.0
1574255699011,3700075.0
1574255699059,3760044.0
1574255699108,3747494.0
1574255699158,3925002.0
1574255699207,3985086.0
1574255699257,3986492.0
1574255699307,3997444.0
1574255699354,4057250.0
1574255699409,4023190.0
1574255699454,4007885.0
1574255699506,4061005.0
1574255699548,4062681.0
1574255699605,4056941.0
1574255699652,4003031.0
1574255699696,3950189.0
1574255699748,3969493.0
1574255699798,4072630.0
1574255699849,4059349.0
1574255699897,3993071.0
1574255699945,3982177.0
1574255699995,4019204.0
1574255700048,4043794.0
1574255700093,4001962.0
1574255700148,4053089.0
1574255700198,4147039.0
1574255700247,4139438.0
1574255700297,4133621.0
1574255700347,4162720.0
1574255700394,4206411.0
1574255700448,4201874.0
1574255700491,4306679.0
1574255700545,4407141.0
1574255700591,4416329.0
1574255700645,4328718.0
1574255700693,4274807.0
1574255700743,4273920.0
1574255700791,4278786.0
1574255700842,4263787.0
1574255700892,4346006.0
1574255700941,4413700.0
1574255700992,4405195.0
1574255701040,4352835.0
1574255701084,4323998.0
1574255701135,4336172.0
1574255701185,4344561.0
1574255701235,4405512.0
1574255701285,4456033.0
1574255701336,4468987.0
1574255701388,4437453.0
1574255701435,4349724.0
1574255701489,4293550.0
1574255701530,4302730.0
1574255701586,4303790.0
1574255701631,4293002.0
1574255701679,4370856.0
1574255701734,4457524.0
1574255701784,4456620.0
1574255701834,4411341.0
1574255701883,4394514.0
1574255701933,4381982.0
1574255701983,4401371.0
1574255702032,4522532.0
1574255702082,4613948.0
1574255702131,4583107.0
1574255702181,4588097.0
1574255702230,4664200.0
1574255702279,4653084.0
1574255702331,4590494.0
1574255702374,4586469.0
1574255702429,4661164.0
1574255702471,4715836.0
1574255702528,4722568.0
1574255702573,4706840.0
1574255702628,4675844.0
1574255702674,4604779.0
1574255702727,4664844.0
1574255702773,4782529.0
1574255702823,4809776.0
1574255702876,4759535.0
1574255702923,4708169.0
1574255702976,4709642.0
1574255703022,4734705.0
1574255703072,4676297.0
1574255703117,4670295.0
1574255703172,4861135.0
1574255703220,4844885.0
1574255703271,4869495.0
1574255703318,4848353.0
1574255703370,4833558.0
1574255703417,4860084.0
1574255703470,4930340.0
1574255703516,5092532.0
1574255703567,5214340.0
1574255703615,5283380.0
1574255703664,5280579.0
1574255703714,5245143.0
1574255703767,5246925.0
1574255703816,5194997.0
1574255703866,5171795.0
1574255703916,5210611.0
1574255703964,5258223.0
1574255704014,5210853.0
1574255704064,5203090.0
1574255704113,5177045.0
1574255704164,5156634.0
1574255704212,5134990.0
1574255704262,5161238.0
1574255704312,5291790.0
1574255704361,5289931.0
1574255704411,5195960.0
1574255704458,5190491.0
1574255704509,5168172.0
1574255704558,5170108.0
1574255704610,5099776.0
1574255704657,5112616.0
1574255704705,5184499.0
1574255704755,5172402.0
1574255704808,5148523.0
1574255704854,5140461.0
1574255704907,5113222.0
1574255704957,5120225.0
1574255705002,5117480.0
1574255705048,5207251.0
1574255705104,5283612.0
1574255705153,5270099.0
1574255705203,5186667.0
1574255705253,5177305.0
1574255705303,5170706.0
1574255705352,5125697.0
1574255705401,5117490.0
1574255705452,5245450.0
1574255705501,5282572.0
1574255705551,5222584.0
1574255705596,5169271.0
1574255705650,5083085.0
1574255705695,5055565.0
1574255705750,5040404.0
1574255705794,4999749.0
1574255705850,5071313.0
1574255705895,5132765.0
1574255705949,5101472.0
1574255705997,5073288.0
1574255706048,5116517.0
1574255706097,5104572.0
1574255706147,5080011.0
1574255706196,5036649.0
1574255706243,5119339.0
1574255706289,5109514.0
1574255706340,5118443.0
1574255706388,5102319.0
1574255706440,5021267.0
1574255706491,4979724.0
1574255706540,4989009.0
1574255706593,5060477.0
1574255706643,5083710.0
1574255706692,5074106.0
1574255706742,5032429.0
1574255706791,5077989.0
1574255706839,5071372.0
1574255706891,5066961.0
1574255706934,4985203.0
1574255706993,5057800.0
1574255707035,5056038.0
1574255707090,5127373.0
1574255707136,5121804.0
1574255707188,5096907.0
1574255707236,5065640.0
1574255707289,5022980.0
1574255707336,5089710.0
1574255707387,5099680.0
1574255707434,5053283.0
1574255707482,5009670.0
1574255707533,5065486.0
1574255707585,5085029.0
1574255707634,5092532.0
1574255707678,5132862.0
1574255707732,5044884.0
1574255707783,5030859.0
1574255707832,5122507.0
1574255707880,5136830.0
1574255707930,5108579.0
1574255707975,5091714.0
1574255708031,4989624.0
1574255708077,4811548.0
1574255708130,4728771.0
1574255708178,4695194.0
1574255708229,4698508.0
1574255708280,4664122.0
1574255708327,4650800.0
1574255708377,4630564.0
1574255708426,4593952.0
1574255708477,4436758.0
1574255708528,4374044.0
1574255708575,4375836.0
1574255708625,4498596.0
1574255708674,4572078.0
1574255708724,4623071.0
1574255708769,4535958.0
1574255708822,4460925.0
1574255708873,4421790.0
1574255708919,4300340.0
1574255708972,4261745.0
1574255709019,4233929.0
1574255709072,4265829.0
1574255709121,4317880.0
1574255709172,4274625.0
1574255709222,4427560.0
1574255709271,4454887.0
1574255709322,4474940.0
1574255709368,4497507.0
1574255709418,4512658.0
1574255709467,4509923.0
1574255709517,4492586.0
1574255709568,4736727.0
1574255709615,4799433.0
1574255709666,4745849.0
1574255709708,4742150.0
1574255709761,4704672.0
1574255709809,4679734.0
1574255709858,4653056.0
1574255709907,4630796.0
1574255709957,4620257.0
1574255710010,4637123.0
1574255710058,4578157.0
1574255710108,4518477.0
1574255710157,4516656.0
1574255710211,4512148.0
1574255710262,4481450.0
1574255710310,4562301.0
1574255710359,4591910.0
1574255710410,4545639.0
1574255710458,4510183.0
1574255710507,4466675.0
1574255710557,4454723.0
1574255710607,4419884.0
1574255710655,4418448.0
1574255710702,4460357.0
1574255710755,4490313.0
1574255710805,4516955.0
1574255710854,4507284.0
1574255710899,4523889.0
1574255710953,4550156.0
1574255711000,4590254.0
1574255711052,4696996.0
1574255711098,4690917.0
1574255711153,4762030.0
1574255711202,4851214.0
1574255711250,4940946.0
1574255711300,5067190.0
1574255711345,5142938.0
1574255711397,5027218.0
1574255711443,4953004.0
1574255711494,5058850.0
1574255711549,5144324.0
1574255711596,5217306.0
1574255711648,5181610.0
1574255711695,5145644.0
1574255711747,5109071.0
1574255711795,5213058.0
1574255711847,5187378.0
1574255711894,5204890.0
1574255711942,5208011.0
1574255711995,5190903.0
1574255712038,5164011.0
1574255712093,5140780.0
1574255712143,5092784.0
1574255712192,5158627.0
1574255712242,5111604.0
1574255712291,5253059.0
1574255712340,5360889.0
1574255712391,5448088.0
1574255712439,5502459.0
1574255712490,5401614.0
1574255712539,5428130.0
1574255712587,5454782.0
1574255712637,5472650.0
1574255712688,5479980.0
1574255712736,5491807.0
1574255712788,5450784.0
1574255712835,5402443.0
1574255712885,5340970.0
1574255712935,5427909.0
1574255712979,5363884.0
1574255713034,5327900.0
1574255713084,5336204.0
1574255713132,5291857.0
1574255713184,5278681.0
1574255713232,5221776.0
1574255713282,5254582.0
1574255713331,5249448.0
1574255713380,5184134.0
1574255713430,5195432.0
1574255713480,5153446.0
1574255713530,5096799.0
1574255713579,5087331.0
1574255713629,5018636.0
1574255713676,5000722.0
1574255713724,4959987.0
1574255713773,4878482.0
1574255713824,4845647.0
1574255713872,4853573.0
1574255713925,4927258.0
1574255713971,4981601.0
1574255714020,4968443.0
1574255714070,5036263.0
1574255714121,5048092.0
1574255714171,5011884.0
1574255714222,5017856.0
1574255714269,5018481.0
1574255714322,5030763.0
1574255714369,5038748.0
1574255714419,5010584.0
1574255714467,4986128.0
1574255714518,5027210.0
1574255714567,5041686.0
1574255714616,5060536.0
1574255714671,5068318.0
1574255714714,5078924.0
1574255714763,5089479.0
1574255714818,5147349.0
1574255714868,5245903.0
1574255714917,5206759.0
1574255714967,5157134.0
1574255715016,5121121.0
1574255715067,5110227.0
1574255715115,5115150.0
1574255715161,5066286.0
1574255715215,5088093.0
1574255715261,5196481.0
1574255715307,5236782.0
1574255715360,5292117.0
1574255715412,5307875.0
1574255715463,5337167.0
1574255715512,5342291.0
1574255715561,5291125.0
1574255715612,5340105.0
1574255715661,5364916.0
1574255715707,5383466.0
1574255715755,5332226.0
1574255715805,5310774.0
1574255715852,5336165.0
1574255715907,5288880.0
1574255715954,5286058.0
1574255716007,5341712.0
1574255716050,5358549.0
1574255716106,5363740.0
1574255716151,5341954.0
1574255716203,5308231.0
1574255716255,5302895.0
1574255716303,5277092.0
1574255716354,5406988.0
1574255716404,5426773.0
1574255716449,5364396.0
1574255716502,5336261.0
1574255716553,5336356.0
1574255716602,5335730.0
1574255716652,5299756.0
1574255716701,5293976.0
1574255716747,5274674.0
1574255716800,5305140.0
1574255716851,5342000.0
1574255716899,5348695.0
1574255716948,5315581.0
1574255717001,5279317.0
1574255717044,5229683.0
1574255717097,5297405.0
1574255717144,5387897.0
1574255717197,5290701.0
1574255717245,5261651.0
1574255717295,5234316.0
1574255717344,5235114.0
1574255717394,5177959.0
1574255717445,5094546.0
1574255717488,5115158.0
1574255717543,5227016.0
1574255717593,5184904.0
1574255717642,5187630.0
1574255717692,5160419.0
1574255717737,5118384.0
1574255717791,5074098.0
1574255717840,5103187.0
1574255717884,5232784.0
1574255717940,5251730.0
1574255717985,5174308.0
1574255718039,5141308.0
1574255718085,5148080.0
1574255718138,5147483.0
1574255718185,5097975.0
1574255718236,5061865.0
1574255718293,5114918.0
1574255718331,5160208.0
1574255718392,5165793.0
1574255718435,5162932.0
1574255718485,5132188.0
1574255718535,5095192.0
1574255718584,5062135.0
1574255718627,5131773.0
1574255718683,5210823.0
1574255718732,5147810.0
1574255718782,5106980.0
1574255718826,5081707.0
1574255718876,5082892.0
1574255718930,5054746.0
1574255718975,4983604.0
1574255719030,5017606.0
1574255719080,5037092.0
1574255719132,5039297.0
1574255719179,5058706.0
1574255719232,5082825.0
1574255719277,5083922.0
1574255719332,5032960.0
1574255719377,5080551.0
1574255719431,5110247.0
1574255719476,5054159.0
1574255719527,4991561.0
1574255719575,4978364.0
1574255719624,5019493.0
1574255719672,4965814.0
1574255719719,4923444.0
1574255719774,4918985.0
1574255719822,4937882.0
1574255719866,4947476.0
1574255719921,4954825.0
1574255719966,4960690.0
1574255720021,4953967.0
1574255720066,4909131.0
1574255720121,4951753.0
1574255720173,4995145.0
1574255720219,4896359.0
1574255720269,4836043.0
1574255720318,4801743.0
1574255720372,4846878.0
1574255720416,4840636.0
1574255720467,4762705.0
1574255720512,4776066.0
1574255720567,4784203.0
1574255720615,4757109.0
1574255720665,4767203.0
1574255720710,4774727.0
1574255720763,4808610.0
1574255720813,4797687.0
1574255720863,4814959.0
1574255720907,4878896.0
1574255720962,4888498.0
1574255721009,4812483.0
1574255721061,4788461.0
1574255721107,4830669.0
1574255721161,4901800.0
1574255721208,4873734.0
1574255721260,4859853.0
1574255721308,4931774.0
1574255721359,4965506.0
1574255721406,4987881.0
1574255721452,5007185.0
1574255721505,5013136.0
1574255721553,5016315.0
1574255721604,5006124.0
1574255721652,5047417.0
1574255721707,5122151.0
1574255721750,5041397.0
1574255721805,5010903.0
1574255721854,4975813.0
1574255721904,4981217.0
1574255721951,4985713.0
1574255722005,4936842.0
1574255722048,4929078.0
1574255722103,4990405.0
1574255722151,4972980.0
1574255722201,4967356.0
1574255722248,4963435.0
1574255722301,4985108.0
1574255722350,4983037.0
1574255722399,4991079.0
1574255722450,5013185.0
1574255722498,4926969.0
1574255722549,4832912.0
1574255722597,4775785.0
1574255722646,4760230.0
1574255722696,4748036.0
1574255722747,4760076.0
1574255722795,4725420.0
1574255722844,4773936.0
1574255722895,4833769.0
1574255722945,4814583.0
1574255722995,4806493.0
1574255723044,4815681.0
1574255723095,4842150.0
1574255723144,4858437.0
1574255723192,4952994.0
1574255723244,5092563.0
1574255723287,5127324.0
1574255723343,5082833.0
1574255723390,5057887.0
1574255723443,5055498.0
1574255723491,5064147.0
1574255723540,5015621.0
1574255723592,5032815.0
1574255723640,5149756.0
1574255723691,5111836.0
1574255723738,5107742.0
1574255723789,5099083.0
1574255723839,5099083.0
1574255723888,5091512.0
1574255723937,5091667.0
1574255723987,5176206.0
1574255724035,5190269.0
1574255724087,5122710.0
1574255724131,5066065.0
1574255724185,5036686.0
1574255724232,5044093.0
1574255724286,4992812.0
1574255724330,5027354.0
1574255724384,5130136.0
1574255724434,5124327.0
1574255724483,5122692.0
1574255724534,5142977.0
1574255724582,5163656.0
1574255724635,5139768.0
1574255724675,5102559.0
1574255724724,5100094.0
1574255724780,5070427.0
1574255724831,5057743.0
1574255724880,4981997.0
1574255724929,5009814.0
1574255724977,5061855.0
1574255725027,4999064.0
1574255725076,5026872.0
1574255725128,5139807.0
1574255725171,5148737.0
1574255725227,5159533.0
1574255725269,5148119.0
1574255725325,5162672.0
1574255725371,5167276.0
1574255725421,5185328.0
1574255725471,5284758.0
1574255725523,5366997.0
1574255725571,5377129.0
1574255725621,5398725.0
1574255725672,5401662.0
1574255725716,5441123.0
1574255725771,5422563.0
1574255725820,5401411.0
1574255725870,5415369.0
1574255725919,5410783.0
1574255725969,5483735.0
1574255726020,5553712.0
1574255726069,5566427.0
1574255726116,5578361.0
1574255726168,5574536.0
1574255726216,5519173.0
1574255726268,5543974.0
1574255726314,5617456.0
1574255726367,5614596.0
1574255726410,5540796.0
1574255726464,5551305.0
1574255726511,5556506.0
1574255726564,5593291.0
1574255726611,5509550.0
1574255726664,5547115.0
1574255726712,5589130.0
1574255726756,5771481.0
1574255726813,5728302.0
1574255726861,5742403.0
1574255726912,5778167.0
1574255726960,5692314.0
1574255727013,5644247.0
1574255727059,5587429.0
1574255727110,5609205.0
1574255727159,5597322.0
1574255727209,5567991.0
1574255727254,5521225.0
1574255727308,5505881.0
1574255727357,5528372.0
1574255727408,5490673.0
1574255727451,5518547.0
1574255727509,5498250.0
1574255727553,5497583.0
1574255727601,5487339.0
1574255727651,5509861.0
1574255727698,5513118.0
1574255727750,5539283.0
1574255727800,5603588.0
1574255727849,5582352.0
1574255727898,5458799.0
1574255727952,5439193.0
1574255728001,5508528.0
1574255728051,5466918.0
1574255728101,5389372.0
1574255728150,5382465.0
1574255728199,5271407.0
1574255728249,5136298.0
1574255728299,5146000.0
1574255728349,5220467.0
1574255728394,5279288.0
1574255728448,5232477.0
1574255728491,5213344.0
1574255728547,5171699.0
1574255728593,5080825.0
1574255728648,5040446.0
1574255728695,5029095.0
1574255728744,5073487.0
1574255728795,5061603.0
1574255728844,5039485.0
1574255728894,5111389.0
1574255728943,5194733.0
1574255728992,5198850.0
1574255729042,5211422.0
1574255729092,5247955.0
1574255729141,5281978.0
1574255729191,5310427.0
1574255729233,5288728.0
1574255729291,5413073.0
1574255729338,5467188.0
1574255729390,5490606.0
1574255729437,5511580.0
1574255729491,5547424.0
1574255729533,5558144.0
1574255729589,5505950.0
1574255729635,5473363.0
1574255729688,5558312.0
1574255729737,5529163.0
1574255729791,5580509.0
1574255729837,5609433.0
1574255729884,5602275.0
1574255729934,5596180.0
1574255729986,5530565.0
1574255730033,5589317.0
1574255730085,5543218.0
1574255730132,5530282.0
1574255730177,5499426.0
1574255730232,5506527.0
1574255730282,5492992.0
1574255730332,5425137.0
1574255730374,5422356.0
1574255730430,5465063.0
1574255730477,5448927.0
1574255730526,5407034.0
1574255730577,5372775.0
1574255730629,5384126.0
1574255730674,5371091.0
1574255730723,5521462.0
1574255730775,5663514.0
1574255730827,5704649.0
1574255730874,5740674.0
1574255730926,5731514.0
1574255730975,5774199.0
1574255731026,5766828.0
1574255731074,5728859.0
1574255731124,5696497.0
1574255731174,5732691.0
1574255731224,5758947.0
1574255731272,5773498.0
1574255731322,5794608.0
1574255731372,5774165.0
1574255731421,5756505.0
1574255731471,5734806.0
1574255731519,5753746.0
1574255731570,5824912.0
1574255731618,5790155.0
1574255731670,5891907.0
1574255731714,5918014.0
1574255731769,5929004.0
1574255731815,5899097.0
1574255731867,5879944.0
1574255731915,5780996.0
1574255731968,5827163.0
1574255732017,5859161.0
1574255732069,5917031.0
1574255732115,5914599.0
1574255732164,5894983.0
1574255732214,5879808.0
1574255732265,5882500.0
1574255732313,5879220.0
1574255732364,5980350.0
1574255732413,5940843.0
1574255732463,6081674.0
1574255732513,6110315.0
1574255732563,6100354.0
1574255732607,6106583.0
1574255732655,6103361.0
1574255732705,5988073.0
1574255732756,5957816.0
1574255732807,5938480.0
1574255732855,6030612.0
1574255732904,6044237.0
1574255732956,5999414.0
1574255733008,5971734.0
1574255733057,5919880.0
1574255733103,5891161.0
1574255733156,5959850.0
1574255733207,5855723.0
1574255733255,5838266.0
1574255733306,5839827.0
1574255733355,5868422.0
1574255733405,5886344.0
1574255733454,5897244.0
1574255733505,5766521.0
1574255733553,5861457.0
1574255733602,5845536.0
1574255733653,5899121.0
1574255733698,5895716.0
1574255733749,5875342.0
1574255733799,5814861.0
1574255733847,5792280.0
1574255733895,5882827.0
1574255733952,5966782.0
1574255734000,5861378.0
1574255734051,5838740.0
1574255734097,5863436.0
1574255734148,5878146.0
1574255734198,5834296.0
1574255734249,5741895.0
1574255734297,5845660.0
1574255734347,5868875.0
1574255734396,5891669.0
1574255734447,5896848.0
1574255734495,5881786.0
1574255734546,5853429.0
1574255734594,5802942.0
1574255734641,5770796.0
1574255734690,5839351.0
1574255734739,5786378.0
1574255734789,5747831.0
1574255734839,5712656.0
1574255734889,5696611.0
1574255734938,5709127.0
1574255734988,5628757.0
1574255735037,5578699.0
1574255735088,5662644.0
1574255735138,5698159.0
1574255735185,5748453.0
1574255735237,5778541.0
1574255735284,5769756.0
1574255735334,5728847.0
1574255735385,5674132.0
1574255735434,5682251.0
1574255735483,5630226.0
1574255735532,5591952.0
1574255735582,5598283.0
1574255735632,5598260.0
1574255735686,5602625.0
1574255735730,5553643.0
1574255735786,5528066.0
1574255735833,5651145.0
1574255735883,5648373.0
1574255735933,5664339.0
1574255735979,5706164.0
1574255736036,5712520.0
1574255736080,5674821.0
1574255736133,5617968.0
1574255736183,5631177.0
1574255736224,5716906.0
1574255736277,5715821.0
1574255736323,5693570.0
1574255736379,5715618.0
1574255736424,5721644.0
1574255736478,5694699.0
1574255736528,5602818.0
1574255736576,5671826.0
1574255736628,5706855.0
1574255736676,5729198.0
1574255736724,5791770.0
1574255736770,5780542.0
1574255736826,5737441.0
1574255736874,5695695.0
1574255736922,5705305.0
1574255736974,5825873.0
1574255737020,5795401.0
1574255737074,5734308.0
1574255737120,5747911.0
1574255737172,5785835.0
1574255737222,5765290.0
1574255737271,5726201.0
1574255737323,5682080.0
1574255737370,5733493.0
1574255737421,5782680.0
1574255737470,5850420.0
1574255737519,5832545.0
1574255737569,5826472.0
1574255737619,5765573.0
1574255737669,5863493.0
1574255737717,5957985.0
1574255737763,5947357.0
1574255737810,5929153.0
1574255737862,5912689.0
1574255737912,5920808.0
1574255737964,5886366.0
1574255738011,5808855.0
1574255738066,5793818.0
1574255738114,5888944.0
1574255738160,5901076.0
1574255738209,5908516.0
1574255738262,5884013.0
1574255738311,5844778.0
1574255738361,5797390.0
1574255738411,5836637.0
1574255738461,5911966.0
1574255738511,5902557.0
1574255738560,5807510.0
1574255738610,5813199.0
1574255738659,5809048.0
1574255738709,5809952.0
1574255738752,5736525.0
1574255738805,5739113.0
1574255738852,5909422.0
1574255738905,5815302.0
1574255738953,5847978.0
1574255739009,5837836.0
1574255739056,5789137.0
1574255739108,5749030.0
1574255739154,5711118.0
1574255739206,5795978.0
1574255739254,5841613.0
1574255739301,5851302.0
1574255739353,5789013.0
1574255739401,5798871.0
1574255739452,5821610.0
1574255739500,5747774.0
1574255739552,5710789.0
1574255739602,5850782.0
1574255739651,5803700.0
1574255739701,5831594.0
1574255739750,5826415.0
1574255739800,5789147.0
1574255739850,5748453.0
1574255739900,5706548.0
1574255739949,5747606.0
1574255739997,5783267.0
1574255740044,5742618.0
1574255740097,5693941.0
1574255740148,5678642.0
1574255740191,5689419.0
1574255740243,5600828.0
1574255740290,5548905.0
1574255740341,5548635.0
1574255740388,5614114.0
1574255740444,5640165.0
1574255740490,5670016.0
1574255740542,5637473.0
1574255740589,5596350.0
1574255740642,5554807.0
1574255740686,5633166.0
1574255740736,5717189.0
1574255740787,5659207.0
1574255740840,5645173.0
1574255740891,5624968.0
1574255740940,5625929.0
1574255740989,5592348.0
1574255741040,5531367.0
1574255741083,5505544.0
1574255741138,5555451.0
1574255741183,5578711.0
1574255741237,5619858.0
1574255741284,5615786.0
1574255741336,5585111.0
1574255741383,5554151.0
1574255741430,5565901.0
1574255741482,5605928.0
1574255741534,5574968.0
1574255741584,5529910.0
1574255741633,5510473.0
1574255741683,5464080.0
1574255741728,5457544.0
1574255741782,5399312.0
1574255741825,5385167.0
1574255741881,5427354.0
1574255741931,5464407.0
1574255741980,5495424.0
1574255742031,5488503.0
1574255742079,5443535.0
1574255742128,5388129.0
1574255742178,5354628.0
1574255742225,5368931.0
1574255742278,5332215.0
1574255742324,5355259.0
1574255742376,5306130.0
1574255742427,5256923.0
1574255742475,5202513.0
1574255742525,5185257.0
1574255742575,5181651.0
1574255742625,5225148.0
1574255742674,5208573.0
1574255742723,5219699.0
1574255742773,5175907.0
1574255742823,5129128.0
1574255742872,5072843.0
1574255742922,4989826.0
1574255742971,4994596.0
1574255743021,4918635.0
1574255743070,4909184.0
1574255743119,4897989.0
1574255743169,4883878.0
1574255743219,4816408.0
1574255743266,4776403.0
1574255743314,4839554.0
1574255743371,4894575.0
1574255743416,4894212.0
1574255743471,4943319.0
1574255743516,4990390.0
1574255743571,5006403.0
1574255743615,4974945.0
1574255743666,5001211.0
1574255743708,5040855.0
1574255743765,5023928.0
1574255743809,4973962.0
1574255743856,4924346.0
1574255743909,4920163.0
1574255743959,4908448.0
1574255744008,4891861.0
1574255744058,4935484.0
1574255744107,4968897.0
1574255744161,4990403.0
1574255744207,5022594.0
1574255744260,5022921.0
1574255744309,5036751.0
1574255744359,5057645.0
1574255744409,5109544.0
1574255744457,5197559.0
1574255744511,5199697.0
1574255744556,5189101.0
1574255744607,5161740.0
1574255744655,5146112.0
1574255744706,5118205.0
1574255744750,5098181.0
1574255744806,5163786.0
1574255744853,5192053.0
1574255744905,5197990.0
1574255744954,5208187.0
1574255745003,5144484.0
1574255745047,5102941.0
1574255745103,5088377.0
1574255745146,5160506.0
1574255745201,5289159.0
1574255745247,5268658.0
1574255745301,5242370.0
1574255745348,5252636.0
1574255745399,5282533.0
1574255745451,5271881.0
1574255745499,5230305.0
1574255745551,5213118.0
1574255745591,5280713.0
1574255745651,5281458.0
1574255745696,5284941.0
1574255745743,5241986.0
1574255745796,5214837.0
1574255745845,5198273.0
1574255745890,5177658.0
1574255745942,5313763.0
1574255745990,5391431.0
1574255746040,5385370.0
1574255746094,5361184.0
1574255746142,5344936.0
1574255746187,5318432.0
1574255746242,5284014.0
1574255746288,5332419.0
1574255746341,5402353.0
1574255746385,5418162.0
1574255746440,5447673.0
1574255746489,5453994.0
1574255746540,5413355.0
1574255746588,5386185.0
1574255746639,5396825.0
1574255746689,5465730.0
1574255746738,5555644.0
1574255746788,5591476.0
1574255746837,5605339.0
1574255746887,5613661.0
1574255746936,5634716.0
1574255746988,5631028.0
1574255747037,5605950.0
1574255747086,5586807.0
1574255747135,5671779.0
1574255747183,5680621.0
1574255747235,5669168.0
1574255747285,5654751.0
1574255747334,5629626.0
1574255747384,5607511.0
1574255747434,5615888.0
1574255747484,5690697.0
1574255747532,5771824.0
1574255747582,5771576.0
1574255747627,5720525.0
1574255747682,5730724.0
1574255747728,5795921.0
1574255747781,5859116.0
1574255747830,5875523.0
1574255747875,5761298.0
1574255747931,5748859.0
1574255747979,5808595.0
1574255748031,5929831.0
1574255748077,5944553.0
1574255748128,5973668.0
1574255748176,5967833.0
1574255748228,5850296.0
1574255748276,5887746.0
1574255748328,5869813.0
1574255748375,5913764.0
1574255748427,5949064.0
1574255748475,5926178.0
1574255748525,5920570.0
1574255748573,5811027.0
1574255748624,5812169.0
1574255748673,5835609.0
1574255748722,5846462.0
1574255748767,5884625.0
1574255748822,5899946.0
1574255748871,5869970.0
1574255748920,5866928.0
1574255748971,5835450.0
1574255749020,5861310.0
1574255749069,5870740.0
1574255749119,5822526.0
1574255749170,5849843.0
1574255749218,5870017.0
1574255749269,5911344.0
1574255749318,5859399.0
1574255749368,5779514.0
1574255749417,5865697.0
1574255749466,5858086.0
1574255749515,5929016.0
1574255749566,5986547.0
1574255749614,5984841.0
1574255749667,5954616.0
1574255749710,5948509.0
1574255749765,5905521.0
1574255749808,5973747.0
1574255749863,5945559.0
1574255749910,5919869.0
1574255749963,5924868.0
1574255750011,6008618.0
1574255750062,6009195.0
1574255750110,5824357.0
1574255750161,5831946.0
1574255750212,5890381.0
1574255750260,5874889.0
1574255750313,5926914.0
1574255750360,5918264.0
1574255750411,5909207.0
1574255750454,5909603.0
1574255750505,5838153.0
1574255750553,5889499.0
1574255750607,5888954.0
1574255750654,5857930.0
1574255750705,5816917.0
1574255750752,5824357.0
1574255750807,5828451.0
1574255750856,5725104.0
1574255750902,5728859.0
1574255750952,5805328.0
1574255751001,5795537.0
1574255751052,5805226.0
1574255751101,5824144.0
1574255751152,5797548.0
1574255751205,5795638.0
1574255751254,5744225.0
1574255751303,5860677.0
1574255751355,5853665.0
1574255751402,5795728.0
1574255751455,5819133.0
1574255751503,5904786.0
1574255751550,5957306.0
1574255751600,5974641.0
1574255751650,5833358.0
1574255751700,5892778.0
1574255751744,5882376.0
1574255751799,5904355.0
1574255751849,5955260.0
1574255751899,5947481.0
1574255751948,5947255.0
1574255751995,5898487.0
1574255752049,5941353.0
1574255752090,6023578.0
1574255752148,5990144.0
1574255752189,5956640.0
1574255752248,5920841.0
1574255752289,5941873.0
1574255752344,5947617.0
1574255752391,5864691.0
1574255752443,5951055.0
1574255752494,6010563.0
1574255752542,6032579.0
1574255752592,6035722.0
1574255752642,6011964.0
1574255752691,5975082.0
1574255752736,5949663.0
1574255752791,5914170.0
1574255752840,5950364.0
1574255752891,5981222.0
1574255752939,6100319.0
1574255752989,6230532.0
1574255753039,6261672.0
1574255753089,6303158.0
1574255753138,6330827.0
1574255753189,6183111.0
1574255753231,6138142.0
1574255753288,6113198.0
1574255753331,6215810.0
1574255753387,6302106.0
1574255753433,6299753.0
1574255753487,6328452.0
1574255753533,6324246.0
1574255753580,6163141.0
1574255753632,6129661.0
1574255753683,6111581.0
1574255753732,6170808.0
1574255753783,6174583.0
1574255753832,6072764.0
1574255753882,6011434.0
1574255753925,5959082.0
1574255753974,5845412.0
1574255754026,5796892.0
1574255754078,5745434.0
1574255754130,5759569.0
1574255754180,5677037.0
1574255754229,5589938.0
1574255754272,5541126.0
1574255754322,5513254.0
1574255754373,5488751.0
1574255754428,5394088.0
1574255754471,5505147.0
1574255754528,5478349.0
1574255754573,5449595.0
1574255754629,5435822.0
1574255754673,5371294.0
1574255754724,5337610.0
1574255754775,5384376.0
1574255754823,5389397.0
1574255754870,5436310.0
1574255754923,5486309.0
1574255754972,5534795.0
1574255755021,5547843.0
1574255755072,5456719.0
1574255755121,5524482.0
1574255755170,5474549.0
1574255755216,5463198.0
1574255755270,5420818.0
1574255755317,5407443.0
1574255755371,5421937.0
1574255755417,5385348.0
1574255755467,5299403.0
1574255755513,5303677.0
1574255755567,5344676.0
1574255755612,5377716.0
1574255755666,5399131.0
1574255755714,5425895.0
1574255755767,5425828.0
1574255755814,5378767.0
1574255755867,5466103.0
1574255755914,5494597.0
1574255755965,5472650.0
1574255756014,5431426.0
1574255756065,5417833.0
1574255756107,5446633.0
1574255756160,5448905.0
1574255756209,5375364.0
1574255756258,5361806.0
1574255756308,5438673.0
1574255756357,5493727.0
1574255756404,5569292.0
1574255756459,5602060.0
1574255756510,5569834.0
1574255756556,5576697.0
1574255756610,5518468.0
1574255756653,5580757.0
1574255756709,5582126.0
1574255756756,5552128.0
1574255756808,5550703.0
1574255756859,5665787.0
1574255756908,5707950.0
1574255756957,5728644.0
1574255757007,5618003.0
1574255757049,5581911.0
1574255757099,5636299.0
1574255757148,5660846.0
1574255757198,5648656.0
1574255757254,5630949.0
1574255757303,5632487.0
1574255757352,5577648.0
1574255757399,5702977.0
1574255757452,5744733.0
1574255757502,5750286.0
1574255757552,5836084.0
1574255757599,5916036.0
1574255757651,5924120.0
1574255757696,5963436.0
1574255757746,5930780.0
1574255757796,5762813.0
1574255757848,5792698.0
1574255757896,5863864.0
1574255757948,5993715.0
1574255757999,6081324.0
1574255758046,6149369.0
1574255758096,6149550.0
1574255758147,5974721.0
1574255758195,5984715.0
1574255758247,5973227.0
1574255758294,6117506.0
1574255758345,6108086.0
1574255758393,6088775.0
1574255758443,6108993.0
1574255758492,6108698.0
1574255758537,5926200.0
1574255758593,5904377.0
1574255758643,6027422.0
1574255758688,6144857.0
1574255758737,6152332.0
1574255758792,6134739.0
1574255758840,6086367.0
1574255758891,5976573.0
1574255758934,6036987.0
1574255758991,5969021.0
1574255759039,5952400.0
1574255759090,5925918.0
1574255759139,5959025.0
1574255759189,5961695.0
1574255759240,5905611.0
1574255759289,5938334.0
1574255759337,5895300.0
1574255759387,5837452.0
1574255759436,5940335.0
1574255759487,5971328.0
1574255759534,5982872.0
1574255759585,5955905.0
1574255759633,5889464.0
1574255759679,5902071.0
1574255759727,5979593.0
1574255759784,5957534.0
1574255759826,6062927.0
1574255759876,6175195.0
1574255759926,6162373.0
1574255759975,6166387.0
1574255760027,6136332.0
1574255760075,5938039.0
1574255760124,5951981.0
1574255760179,6038255.0
1574255760230,6126858.0
1574255760280,6070265.0
1574255760330,6042109.0
1574255760378,5998657.0
1574255760429,5964125.0
1574255760477,5937836.0
1574255760527,5980395.0
1574255760576,5989386.0
1574255760627,5960055.0
1574255760675,6024641.0
1574255760727,6149595.0
1574255760774,6094236.0
1574255760826,5934037.0
1574255760873,6009728.0
1574255760924,5947855.0
1574255760973,5985913.0
1574255761021,5950589.0
1574255761075,5861286.0
1574255761121,5820355.0
1574255761172,5791737.0
1574255761217,5781211.0
1574255761266,5802049.0
1574255761317,5734320.0
1574255761367,5652400.0
1574255761416,5571328.0
1574255761469,5525172.0
1574255761519,5481222.0
1574255761568,5449675.0
1574255761618,5270570.0
1574255761668,5309149.0
1574255761716,5200420.0
1574255761766,5053009.0
1574255761816,4999448.0
1574255761862,5012213.0
1574255761915,5015220.0
1574255761966,4978576.0
1574255762014,4878258.0
1574255762066,4784205.0
1574255762113,4751867.0
1574255762160,4665368.0
1574255762208,4648860.0
1574255762257,4632746.0
1574255762314,4651845.0
1574255762362,4566068.0
1574255762412,4506628.0
1574255762463,4497050.0
1574255762511,4543906.0
1574255762563,4565266.0
1574255762610,4617856.0
1574255762659,4615493.0
1574255762709,4635121.0
1574255762753,4664746.0
1574255762809,4560213.0
1574255762858,4695976.0
1574255762907,4683629.0
1574255762956,4772549.0
1574255763008,4898690.0
1574255763056,4939497.0
1574255763108,5102500.0
1574255763154,5341578.0
1574255763205,5426868.0
1574255763254,5567483.0
1574255763300,5592482.0
1574255763354,5652817.0
1574255763400,5721939.0
1574255763452,5704242.0
1574255763500,5759014.0
1574255763551,5763470.0
1574255763600,5783629.0
1574255763651,5700703.0
1574255763701,5688198.0
1574255763746,5628111.0
1574255763796,5660359.0
1574255763849,5744597.0
1574255763899,5775579.0
1574255763949,5826123.0
1574255763998,5850049.0
1574255764048,5877806.0
1574255764097,5890289.0
1574255764148,5857930.0
1574255764196,5699143.0
1574255764247,5496712.0
1574255764296,5338695.0
1574255764347,5404456.0
1574255764396,5316760.0
1574255764447,5275702.0
1574255764495,5220445.0
1574255764542,5183845.0
1574255764593,5096350.0
1574255764641,4990673.0
1574255764693,4988107.0
1574255764741,5051654.0
1574255764791,5095208.0
1574255764842,5209557.0
1574255764891,5257374.0
1574255764942,5196824.0
1574255764991,5166634.0
1574255765034,5232373.0
1574255765086,5245005.0
1574255765140,5243410.0
1574255765190,5330769.0
1574255765239,5363004.0
1574255765289,5291962.0
1574255765338,5179367.0
1574255765382,5272933.0
1574255765437,5244269.0
1574255765487,5300963.0
1574255765537,5348859.0
1574255765583,5373860.0
1574255765635,5390549.0
1574255765682,5316872.0
1574255765729,5303405.0
1574255765780,5315143.0
1574255765830,5298273.0
1574255765881,5270818.0
1574255765929,5270536.0
1574255765981,5288492.0
1574255766033,5221678.0
1574255766083,5162089.0
1574255766127,5218263.0
1574255766182,5273216.0
1574255766231,5356109.0
1574255766281,5370355.0
1574255766331,5385880.0
1574255766375,5395252.0
1574255766429,5424538.0
1574255766479,5433528.0
1574255766529,5540697.0
1574255766578,5570275.0
1574255766628,5632205.0
1574255766677,5602377.0
1574255766725,5572209.0
1574255766776,5535008.0
1574255766822,5459624.0
1574255766875,5489214.0
1574255766923,5507092.0
1574255766975,5522549.0
1574255767023,5553631.0
1574255767076,5540402.0
1574255767123,5498747.0
1574255767174,5482827.0
1574255767224,5524697.0
1574255767273,5651675.0
1574255767323,5638865.0
1574255767372,5638243.0
1574255767423,5599234.0
1574255767471,5620378.0
1574255767521,5625827.0
1574255767572,5537145.0
1574255767621,5519191.0
1574255767666,5632465.0
1574255767720,5617993.0
1574255767770,5646293.0
1574255767819,5656108.0
1574255767869,5648906.0
1574255767919,5627749.0
1574255767967,5628824.0
1574255768017,5572888.0
1574255768064,5498418.0
1574255768116,5459748.0
1574255768165,5372141.0
1574255768216,5354378.0
1574255768266,5377716.0
1574255768315,5337384.0
1574255768365,5303903.0
1574255768415,5409794.0
1574255768464,5415968.0
1574255768515,5406153.0
1574255768564,5426913.0
1574255768613,5424040.0
1574255768663,5425375.0
1574255768713,5411965.0
1574255768756,5462168.0
1574255768807,5574312.0
1574255768862,5605373.0
1574255768907,5620276.0
1574255768960,5623499.0
1574255769007,5627784.0
1574255769060,5626597.0
1574255769106,5575657.0
1574255769159,5546837.0
1574255769210,5696554.0
1574255769258,5682330.0
1574255769310,5713357.0
1574255769357,5712520.0
1574255769413,5680148.0
1574255769455,5649934.0
1574255769510,5604910.0
1574255769555,5603689.0
1574255769607,5607476.0
1574255769654,5656165.0
1574255769705,5878326.0
1574255769750,5931255.0
1574255769805,5952333.0
1574255769854,5924969.0
1574255769903,5759366.0
1574255769952,5677049.0
1574255769998,5804446.0
1574255770047,5770321.0
1574255770099,5810145.0
1574255770147,5826799.0
1574255770197,5780260.0
1574255770245,5785417.0
1574255770301,5759534.0
1574255770345,5836332.0
1574255770400,5940142.0
1574255770445,5923476.0
1574255770499,5935191.0
1574255770550,5941963.0
1574255770598,5960472.0
1574255770651,5937836.0
1574255770697,5860711.0
1574255770750,5811525.0
1574255770796,5880565.0
1574255770847,5882069.0
1574255770892,5905826.0
1574255770944,5906436.0
1574255770991,5882940.0
1574255771042,5862586.0
1574255771088,5874698.0
1574255771146,5996621.0
1574255771194,5966793.0
1574255771244,5975929.0
1574255771294,5985596.0
1574255771343,5960960.0
1574255771392,5965391.0
1574255771442,5914961.0
1574255771488,5842811.0
1574255771542,5936581.0
1574255771591,5939431.0
1574255771640,5922797.0
1574255771685,5987112.0
1574255771740,5964544.0
1574255771785,5939600.0
1574255771839,5882963.0
1574255771888,5967065.0
1574255771938,6000251.0
1574255771988,5900036.0
1574255772037,5907137.0
1574255772089,5899788.0
1574255772137,5937982.0
1574255772188,5929096.0
1574255772236,5856085.0
1574255772285,5783777.0
1574255772335,5819700.0
1574255772387,5813345.0
1574255772435,5830497.0
1574255772484,5852082.0
1574255772534,5819282.0
1574255772584,5820084.0
1574255772627,5815775.0
1574255772683,5906334.0
1574255772733,5882160.0
1574255772778,5835847.0
1574255772826,5840097.0
1574255772882,5871441.0
1574255772925,5875297.0
1574255772981,5815696.0
1574255773034,5795988.0
1574255773082,5902762.0
1574255773128,5912543.0
1574255773181,5944712.0
1574255773228,5930396.0
1574255773279,5922606.0
1574255773329,5914012.0
1574255773377,5872176.0
1574255773429,5790516.0
1574255773477,5756572.0
1574255773527,5727038.0
1574255773575,5666939.0
1574255773626,5693116.0
1574255773675,5710167.0
1574255773726,5623273.0
1574255773774,5557306.0
1574255773825,5638253.0
1574255773874,5642721.0
1574255773924,5613118.0
1574255773970,5655395.0
1574255774024,5621349.0
1574255774074,5576744.0
1574255774123,5560880.0
1574255774171,5603823.0
1574255774222,5605384.0
1574255774270,5526993.0
1574255774321,5490381.0
1574255774372,5493918.0
1574255774420,5534183.0
1574255774473,5523612.0
1574255774520,5410269.0
1574255774571,5459953.0
1574255774620,5524561.0
1574255774669,5644767.0
1574255774718,5678043.0
1574255774767,5682035.0
1574255774817,5691613.0
1574255774868,5686501.0
1574255774916,5649775.0
1574255774968,5736513.0
1574255775011,5747356.0
1574255775070,5789137.0
1574255775113,5746700.0
1574255775165,5721474.0
1574255775212,5725761.0
1574255775264,5668829.0
1574255775308,5614904.0
1574255775363,5710541.0
1574255775409,5744156.0
1574255775463,5826777.0
1574255775509,5889214.0
1574255775563,5889125.0
1574255775611,5889204.0
1574255775661,5854017.0
1574255775710,5837440.0
1574255775755,5923431.0
1574255775810,5960643.0
1574255775855,5981584.0
1574255775910,5910586.0
1574255775952,5896689.0
1574255776009,5867257.0
1574255776055,5802140.0
1574255776106,5813120.0
1574255776154,5885846.0
1574255776204,5932724.0
1574255776252,5931188.0
1574255776308,5910495.0
1574255776357,5908947.0
1574255776408,5911763.0
1574255776457,5892788.0
1574255776507,5974934.0
1574255776554,5986830.0
1574255776603,6001517.0
1574255776656,5971848.0
1574255776707,5979717.0
1574255776751,5957896.0
1574255776807,5922312.0
1574255776851,5903473.0
1574255776906,6015481.0
1574255776950,5999211.0
1574255777005,6024754.0
1574255777051,6018726.0
1574255777105,5984613.0
1574255777151,5975060.0
1574255777204,5913051.0
1574255777250,5996871.0
1574255777303,6032477.0
1574255777351,6066501.0
1574255777402,6041681.0
1574255777450,6042585.0
1574255777502,6059784.0
1574255777550,6009658.0
1574255777601,5977116.0
1574255777645,5999301.0
1574255777694,6077807.0
1574255777745,6107759.0
1574255777794,6147197.0
1574255777851,6139420.0
1574255777896,6114249.0
1574255777950,6094823.0
1574255777995,6125545.0
1574255778050,6185506.0
1574255778099,6163559.0
1574255778150,6199562.0
1574255778198,6176835.0
1574255778247,6179401.0
1574255778298,6159398.0
1574255778347,6071023.0
1574255778396,6070479.0
1574255778446,6135393.0
1574255778490,6153575.0
1574255778548,6196758.0
1574255778589,6138447.0
1574255778648,6134660.0
1574255778691,6111435.0
1574255778746,6086377.0
1574255778794,6176325.0
1574255778843,6153768.0
1574255778892,6164679.0
1574255778943,6137553.0
1574255778992,6120074.0
1574255779042,6095095.0
1574255779093,5999301.0
1574255779141,5992675.0
1574255779187,6066704.0
1574255779241,6055566.0
1574255779291,6028021.0
1574255779341,6071373.0
1574255779390,6046870.0
1574255779439,6014283.0
1574255779489,5970332.0
1574255779532,5981933.0
1574255779589,5961388.0
1574255779635,5838514.0
1574255779689,5724086.0
1574255779732,5773137.0
1574255779782,5817335.0
1574255779831,5855758.0
1574255779886,5840471.0
1574255779934,5749538.0
1574255779988,5822435.0
1574255780033,5816602.0
1574255780088,5806650.0
1574255780133,5808369.0
1574255780185,5795163.0
1574255780234,5762972.0
1574255780283,5768151.0
1574255780332,5716341.0
1574255780383,5625805.0
1574255780428,5575454.0
1574255780482,5579276.0
1574255780532,5584930.0
1574255780581,5545480.0
1574255780626,5500625.0
1574255780674,5469529.0
1574255780731,5480712.0
1574255780779,5496836.0
1574255780829,5521982.0
1574255780878,5501053.0
1574255780930,5547526.0
1574255780978,5585405.0
1574255781030,5646622.0
1574255781073,5693637.0
1574255781129,5701654.0
1574255781172,5642642.0
1574255781224,5644925.0
1574255781276,5692393.0
1574255781323,5688525.0
1574255781377,5576935.0
1574255781426,5582114.0
1574255781477,5682295.0
1574255781526,5697233.0
1574255781574,5742019.0
1574255781621,5706583.0
1574255781674,5680408.0
1574255781719,5657081.0
1574255781767,5675680.0
1574255781824,5755589.0
1574255781872,5731640.0
1574255781923,5739906.0
1574255781971,5761672.0
1574255782022,5767720.0
1574255782074,5748453.0
1574255782122,5639159.0
1574255782171,5636864.0
1574255782218,5700047.0
1574255782269,5695130.0
1574255782318,5694484.0
1574255782370,5706628.0
1574255782413,5665483.0
1574255782469,5657545.0
1574255782515,5671407.0
1574255782568,5807262.0
1574255782615,5847084.0
1574255782667,5835901.0
1574255782717,5809422.0
1574255782762,5766274.0
1574255782817,5777310.0
1574255782868,5744327.0
1574255782914,5700477.0
1574255782966,5813174.0
1574255783008,5845682.0
1574255783064,5857511.0
1574255783114,5869259.0
1574255783163,5830192.0
1574255783213,5806990.0
1574255783263,5806878.0
1574255783312,5827252.0
1574255783363,5892335.0
1574255783411,5924551.0
1574255783461,5943523.0
1574255783511,5920107.0
1574255783560,5948363.0
1574255783610,5914430.0
1574255783658,5873036.0
1574255783709,5966963.0
1574255783756,5977287.0
1574255783810,6004345.0
1574255783858,6027444.0
1574255783909,5974698.0
1574255783955,5960630.0
1574255784009,5933019.0
1574255784058,5946871.0
1574255784107,6040336.0
1574255784155,6041941.0
1574255784206,6045242.0
1574255784255,6018364.0
1574255784302,5998951.0
1574255784355,6021193.0
1574255784406,5932092.0
1574255784454,5961762.0
1574255784505,6023667.0
1574255784553,5975105.0
1574255784603,6005894.0
1574255784652,6003937.0
1574255784703,5961864.0
1574255784746,5958822.0
1574255784802,6016331.0
1574255784851,6033676.0
1574255784897,6011863.0
1574255784951,6063333.0
1574255784994,6012338.0
1574255785050,5990550.0
1574255785098,5980680.0
1574255785149,5923951.0
1574255785199,5870220.0
1574255785250,5833935.0
1574255785299,5934522.0
1574255785348,5953304.0
1574255785397,5965188.0
1574255785447,5976076.0
1574255785496,5973160.0
1574255785546,5837677.0
1574255785596,5852015.0
1574255785647,5774165.0
1574255785695,5773826.0
1574255785747,5766534.0
1574255785795,5785065.0
1574255785845,5764362.0
1574255785895,5731539.0
1574255785944,5648239.0
1574255785993,5583823.0
1574255786043,5611467.0
1574255786093,5702060.0
1574255786141,5760822.0
1574255786192,5811004.0
1574255786238,5799980.0
1574255786292,5737022.0
1574255786336,5686773.0
1574255786391,5664069.0
1574255786438,5653089.0
1574255786490,5658471.0
1574255786541,5610880.0
1574255786589,5622141.0
1574255786638,5649290.0
1574255786690,5543669.0
1574255786738,5485935.0
1574255786789,5522956.0
1574255786833,5564204.0
1574255786887,5532251.0
1574255786937,5360213.0
1574255786987,5524833.0
1574255787037,5449618.0
1574255787087,5368173.0
1574255787135,5295264.0
1574255787188,5268760.0
1574255787234,5323294.0
1574255787286,5315628.0
1574255787334,5300963.0
1574255787385,5265086.0
1574255787434,5205950.0
1574255787477,5191001.0
1574255787532,5222786.0
1574255787577,5208821.0
1574255787633,5216170.0
1574255787682,5280938.0
1574255787732,5360822.0
1574255787778,5290538.0
1574255787826,5179570.0
1574255787878,5153292.0
1574255787927,5082814.0
1574255787976,5059896.0
1574255788025,5072288.0
1574255788075,5082262.0
1574255788125,5099154.0
1574255788178,5037756.0
1574255788224,5014916.0
1574255788271,5063208.0
1574255788322,5073499.0
1574255788376,5093105.0
1574255788427,5147513.0
1574255788476,5170196.0
1574255788527,5185099.0
1574255788574,5174176.0
1574255788621,5214634.0
1574255788669,5209986.0
1574255788726,5183969.0
1574255788769,5146225.0
1574255788824,5142109.0
1574255788873,5173182.0
1574255788920,5068092.0
1574255788972,5119439.0
1574255789023,5144756.0
1574255789071,5166770.0
1574255789123,5188266.0
1574255789171,5192935.0
1574255789220,5170344.0
1574255789270,5169688.0
1574255789320,5132046.0
1574255789370,5168851.0
1574255789415,5179288.0
1574255789469,5128293.0
1574255789518,5064543.0
1574255789569,5087258.0
1574255789618,5127387.0
1574255789668,5068692.0
1574255789717,4999797.0
1574255789767,5021338.0
1574255789816,5045298.0
1574255789867,5030893.0
1574255789915,5064645.0
1574255789967,5058438.0
1574255790014,5010393.0
1574255790068,4952252.0
1574255790113,4988706.0
1574255790159,5060528.0
1574255790213,5022594.0
1574255790262,4973791.0
1574255790313,4961637.0
1574255790360,5002185.0
1574255790412,4953721.0
1574255790460,4877998.0
1574255790511,4947163.0
1574255790561,5026222.0
1574255790611,5024788.0
1574255790661,5016364.0
1574255790706,4975408.0
1574255790755,4904242.0
1574255790810,4875838.0
1574255790860,4933109.0
1574255790903,5042799.0
1574255790959,5085167.0
1574255791005,5068330.0
1574255791059,5058889.0
1574255791109,5038910.0
1574255791157,5020909.0
1574255791206,4970140.0
1574255791256,5007567.0
1574255791303,5147050.0
1574255791356,5151303.0
1574255791403,5117212.0
1574255791454,5084149.0
1574255791503,5049469.0
1574255791554,5034715.0
1574255791601,5065799.0
1574255791653,5139397.0
1574255791702,5160620.0
1574255791749,5125601.0
1574255791801,5087112.0
1574255791852,5069472.0
1574255791902,5055146.0
1574255791948,4993139.0
1574255792001,5054728.0
1574255792051,5149561.0
1574255792101,5110416.0
1574255792151,5057385.0
1574255792200,5038061.0
1574255792250,5061796.0
1574255792299,5072798.0
1574255792350,5116883.0
1574255792399,5200262.0
1574255792450,5217257.0
1574255792498,5201584.0
1574255792547,5146565.0
1574255792598,5137586.0
1574255792643,5136422.0
1574255792698,5075996.0
1574255792742,5105056.0
1574255792795,5200896.0
1574255792845,5218850.0
1574255792889,5217607.0
1574255792947,5240051.0
1574255792991,5254706.0
1574255793042,5280938.0
1574255793090,5298080.0
1574255793143,5346950.0
1574255793193,5404151.0
1574255793236,5457747.0
1574255793286,5386615.0
1574255793343,5321860.0
1574255793391,5317699.0
1574255793442,5281446.0
1574255793492,5219246.0
1574255793542,5240651.0
1574255793591,5225691.0
1574255793641,5200804.0
1574255793687,5211739.0
1574255793740,5205656.0
1574255793791,5221644.0
1574255793840,5188888.0
1574255793887,5264520.0
1574255793935,5274335.0
1574255793986,5279232.0
1574255794034,5259546.0
1574255794091,5217968.0
1574255794137,5206446.0
1574255794186,5158731.0
1574255794236,5071790.0
1574255794288,5093524.0
1574255794336,5085675.0
1574255794390,5069858.0
1574255794434,5103823.0
1574255794485,5118433.0
1574255794530,5096281.0
1574255794584,5027388.0
1574255794627,4994675.0
1574255794682,5062440.0
1574255794731,5052456.0
1574255794782,5095094.0
1574255794826,5109477.0
1574255794882,5082205.0
1574255794926,5061321.0
1574255794981,4977818.0
1574255795027,5019257.0
1574255795081,5051030.0
1574255795125,5050103.0
1574255795179,5045762.0
1574255795231,5039203.0
1574255795278,4990618.0
1574255795326,4962665.0
1574255795378,4937689.0
1574255795430,4996882.0
1574255795478,5018794.0
1574255795531,5037813.0
1574255795573,5068546.0
1574255795628,5129695.0
1574255795672,5135268.0
1574255795726,5191860.0
1574255795771,5212326.0
1574255795822,5104581.0
1574255795870,5110416.0
1574255795921,5130802.0
1574255795969,5157861.0
1574255796020,5144630.0
1574255796067,5113492.0
1574255796116,5090629.0
1574255796168,5105202.0
1574255796219,5121066.0
1574255796268,5119337.0
1574255796318,5104808.0
1574255796367,5015109.0
1574255796417,4991760.0
1574255796467,4996226.0
1574255796516,5000793.0
1574255796565,4948419.0
1574255796613,4905654.0
1574255796665,4873939.0
1574255796712,4920049.0
1574255796770,4968354.0
1574255796818,5087169.0
1574255796867,5114012.0
1574255796918,4995636.0
1574255796971,4938808.0
1574255797017,4859217.0
1574255797069,4815437.0
1574255797116,4879514.0
1574255797166,4973318.0
1574255797215,5033561.0
1574255797265,5051438.0
1574255797314,4932352.0
1574255797365,4916929.0
1574255797413,4941828.0
1574255797464,5001766.0
1574255797513,5082465.0
1574255797563,5140447.0
1574255797613,5157329.0
1574255797663,5121722.0
1574255797710,4975364.0
1574255797758,4947390.0
1574255797812,4924188.0
1574255797861,4972231.0
1574255797906,5019225.0
1574255797954,5027649.0
1574255798005,5015765.0
1574255798056,4965075.0
1574255798107,4856968.0
1574255798155,4901461.0
1574255798205,4946281.0
1574255798258,5035257.0
1574255798307,5242065.0
1574255798354,5385947.0
1574255798407,5461898.0
1574255798457,5499889.0
1574255798508,5302784.0
1574255798556,5296847.0
1574255798607,5406096.0
1574255798656,5422661.0
1574255798705,5440731.0
1574255798750,5408280.0
1574255798805,5372198.0
1574255798854,5362541.0
1574255798900,5217517.0
1574255798950,5208494.0
1574255799000,5252998.0
1574255799049,5352500.0
1574255799099,5479887.0
1574255799151,5532962.0
1574255799202,5587315.0
1574255799251,5385303.0
1574255799296,5348488.0
1574255799349,5331232.0
1574255799401,5473011.0
1574255799449,5516930.0
1574255799500,5517517.0
1574255799551,5502998.0
1574255799599,5545784.0
1574255799646,5426427.0
1574255799699,5390130.0
1574255799749,5471451.0
1574255799798,5541873.0
1574255799848,5631888.0
1574255799898,5629909.0
1574255799948,5595989.0
1574255799996,5467404.0
1574255800048,5525059.0
1574255800096,5495694.0
1574255800147,5444699.0
1574255800195,5449234.0
1574255800245,5435936.0
1574255800290,5425511.0
1574255800347,5442269.0
1574255800393,5432466.0
1574255800439,5440481.0
1574255800487,5449053.0
1574255800541,5445660.0
1574255800590,5412575.0
1574255800641,5501246.0
1574255800687,5539689.0
1574255800742,5539793.0
1574255800787,5573034.0
1574255800843,5589046.0
1574255800892,5571870.0
1574255800937,5566894.0
1574255800991,5573420.0
1574255801040,5612824.0
1574255801090,5623430.0
1574255801138,5694902.0
1574255801190,5737417.0
1574255801238,5767019.0
1574255801289,5790108.0
1574255801338,5802309.0
1574255801388,5831537.0
1574255801432,5840436.0
1574255801488,5859354.0
1574255801537,5844768.0
1574255801588,5863027.0
1574255801636,5940165.0
1574255801687,5974981.0
1574255801735,6000908.0
1574255801786,6032601.0
1574255801833,6055667.0
1574255801886,6064532.0
1574255801928,6046949.0
1574255801986,6067868.0
1574255802028,6077332.0
1574255802087,6067098.0
1574255802130,6100240.0
1574255802183,6085473.0
1574255802227,6037124.0
1574255802283,5993908.0
1574255802332,5954750.0
1574255802382,5905544.0
1574255802430,5876020.0
1574255802481,5873420.0
1574255802532,5718930.0
1574255802580,5737768.0
1574255802630,5824753.0
1574255802680,5914599.0
1574255802730,6005906.0
1574255802779,6070729.0
1574255802829,6097357.0
1574255802872,5962181.0
1574255802929,5872119.0
1574255802978,5874505.0
1574255803028,5954515.0
1574255803078,6047548.0
1574255803128,6042630.0
1574255803175,6044643.0
1574255803227,6062124.0
1574255803274,5856877.0
1574255803326,5804084.0
1574255803375,5852365.0
1574255803426,5859399.0
1574255803471,5887441.0
1574255803526,5867032.0
1574255803572,5832149.0
1574255803624,5832216.0
1574255803671,5805442.0
1574255803718,5813187.0
1574255803773,5750184.0
1574255803823,5740007.0
1574255803871,5716284.0
1574255803921,5706526.0
1574255803967,5704661.0
1574255804016,5635744.0
1574255804068,5581572.0
1574255804116,5594563.0
1574255804167,5607803.0
1574255804216,5620524.0
1574255804271,5624289.0
1574255804319,5635122.0
1574255804369,5635132.0
1574255804419,5649381.0
1574255804469,5662327.0
1574255804518,5631425.0
1574255804569,5625161.0
1574255804618,5613706.0
1574255804668,5577150.0
1574255804716,5580826.0
1574255804764,5504266.0
1574255804816,5437531.0
1574255804866,5407443.0
1574255804910,5360993.0
1574255804967,5397560.0
1574255805014,5411049.0
1574255805068,5433506.0
1574255805114,5420909.0
1574255805168,5351482.0
1574255805215,5239680.0
1574255805266,5116759.0
1574255805312,5060280.0
1574255805364,5041172.0
1574255805417,5029808.0
1574255805464,5033370.0
1574255805512,4990425.0
1574255805563,4984285.0
1574255805612,4944337.0
1574255805662,4934251.0
1574255805712,4974482.0
1574255805760,4992144.0
1574255805811,5030462.0
1574255805863,5051087.0
1574255805912,5067201.0
1574255805962,5194349.0
1574255806011,5238763.0
1574255806056,5351596.0
1574255806107,5431369.0
1574255806156,5444270.0
1574255806206,5449346.0
1574255806260,5422096.0
1574255806310,5325013.0
1574255806359,5309456.0
1574255806409,5305870.0
1574255806455,5352500.0
1574255806508,5418648.0
1574255806556,5423000.0
1574255806608,5422990.0
1574255806654,5359036.0
1574255806707,5386422.0
1574255806753,5397526.0
1574255806805,5329367.0
1574255806853,5311106.0
1574255806907,5313062.0
1574255806953,5322504.0
1574255807005,5308233.0
1574255807054,5204175.0
1574255807104,5194144.0
1574255807153,5234907.0
1574255807203,5309025.0
1574255807252,5337350.0
1574255807303,5376574.0
1574255807349,5393976.0
1574255807402,5385211.0
1574255807452,5346440.0
1574255807502,5377659.0
1574255807551,5386886.0
1574255807601,5381504.0
1574255807650,5350838.0
1574255807695,5379401.0
1574255807749,5367054.0
1574255807798,5296961.0
1574255807849,5267821.0
1574255807894,5257453.0
1574255807948,5294915.0
1574255807992,5324720.0
1574255808050,5381650.0
1574255808095,5390809.0
1574255808148,5354638.0
1574255808194,5309070.0
1574255808247,5368173.0
1574255808294,5377637.0
1574255808346,5383574.0
1574255808394,5361682.0
1574255808446,5356391.0
1574255808493,5320592.0
1574255808546,5247492.0
1574255808591,5203902.0
1574255808644,5163446.0
1574255808693,5210426.0
1574255808743,5250625.0
1574255808792,5255011.0
1574255808842,5186354.0
1574255808892,5185089.0
1574255808942,5153960.0
1574255808991,5260111.0
1574255809042,5315933.0
1574255809093,5323294.0
1574255809137,5357159.0
1574255809191,5310122.0
1574255809235,5286999.0
1574255809290,5253146.0
1574255809334,5214870.0
1574255809389,5250499.0
1574255809435,5331651.0
1574255809489,5329265.0
1574255809538,5336557.0
1574255809588,5250318.0
1574255809636,5234342.0
1574255809686,5237869.0
1574255809734,5250850.0
1574255809786,5446294.0
1574255809836,5457509.0
1574255809882,5424233.0
1574255809935,5397243.0
1574255809986,5441850.0
1574255810035,5394574.0
1574255810086,5319631.0
1574255810135,5432714.0
1574255810185,5467359.0
1574255810233,5478259.0
1574255810283,5438435.0
1574255810333,5386648.0
1574255810383,5363683.0
1574255810431,5366997.0
1574255810477,5356344.0
1574255810527,5445378.0
1574255810576,5518659.0
1574255810628,5519800.0
1574255810677,5476585.0
1574255810728,5510178.0
1574255810778,5531966.0
1574255810830,5493603.0
1574255810875,5493636.0
1574255810930,5671395.0
1574255810977,5664294.0
1574255811030,5695841.0
1574255811077,5726665.0
1574255811125,5697785.0
1574255811177,5705035.0
1574255811224,5673691.0
1574255811275,5768059.0
1574255811323,5785404.0
1574255811377,5746011.0
1574255811427,5728552.0
1574255811477,5715415.0
1574255811527,5787158.0
1574255811575,5756379.0
1574255811626,5682838.0
1574255811675,5719405.0
1574255811726,5743083.0
1574255811775,5720490.0
1574255811825,5735450.0
1574255811873,5740188.0
1574255811925,5752795.0
1574255811973,5694350.0
1574255812023,5706910.0
1574255812072,5619439.0
1574255812118,5512620.0
1574255812172,5454854.0
1574255812221,5450455.0
1574255812272,5479639.0
1574255812316,5457997.0
1574255812371,5415369.0
1574255812420,5392483.0
1574255812466,5424278.0
1574255812520,5391782.0
1574255812569,5421214.0
1574255812620,5437078.0
1574255812670,5444924.0
1574255812718,5412937.0
1574255812769,5485856.0
1574255812818,5502683.0
1574255812868,5444439.0
1574255812917,5394236.0
1574255812969,5324121.0
1574255813016,5330102.0
1574255813067,5320389.0
1574255813117,5286773.0
1574255813167,5186931.0
1574255813215,5142912.0
1574255813266,5092167.0
1574255813314,5079513.0
1574255813366,5116645.0
1574255813413,5151642.0
1574255813465,5152873.0
1574255813514,5196462.0
1574255813562,5352309.0
1574255813612,5377513.0
1574255813662,5310472.0
1574255813711,5338955.0
1574255813759,5342789.0
1574255813812,5378960.0
1574255813861,5255407.0
1574255813911,5210439.0
1574255813961,5202206.0
1574255814011,5242540.0
1574255814059,5378710.0
1574255814110,5417833.0
1574255814159,5432159.0
1574255814209,5378066.0
1574255814259,5306256.0
1574255814308,5257396.0
1574255814357,5267076.0
1574255814408,5250657.0
1574255814457,5258144.0
1574255814508,5216093.0
1574255814556,5136806.0
1574255814607,4996632.0
1574255814656,4926303.0
1574255814707,4974866.0
1574255814748,4991081.0
1574255814807,5000387.0
1574255814849,4999923.0
1574255814903,5066430.0
1574255814954,5133007.0
1574255815001,5163786.0
1574255815053,5117064.0
1574255815100,5185483.0
1574255815152,5155067.0
1574255815200,5275692.0
1574255815252,5434103.0
1574255815299,5483721.0
1574255815351,5496011.0
1574255815400,5487169.0
1574255815451,5331425.0
1574255815501,5338311.0
1574255815549,5352535.0
1574255815600,5435144.0
1574255815650,5629062.0
1574255815699,5720943.0
1574255815749,5753315.0
1574255815794,5539714.0
1574255815849,5623927.0
1574255815897,5622097.0
1574255815949,5588841.0
1574255815997,5631821.0
1574255816048,5559897.0
1574255816099,5511151.0
1574255816148,5385236.0
1574255816196,5353778.0
1574255816246,5416035.0
1574255816291,5377987.0
1574255816343,5316522.0
1574255816391,5221044.0
1574255816441,5135687.0
1574255816490,5133968.0
1574255816543,5148588.0
1574255816594,5307861.0
1574255816641,5434839.0
1574255816693,5502659.0
1574255816741,5521202.0
1574255816792,5446542.0
1574255816841,5451394.0
1574255816892,5389578.0
1574255816940,5353224.0
1574255816987,5441804.0
1574255817041,5508370.0
1574255817091,5466668.0
1574255817142,5505024.0
1574255817191,5477512.0
1574255817240,5449301.0
1574255817290,5424459.0
1574255817335,5568975.0
1574255817389,5623940.0
1574255817439,5651065.0
1574255817489,5802546.0
1574255817538,5816488.0
1574255817584,5800964.0
1574255817637,5774392.0
1574255817685,5678258.0
1574255817737,5648386.0
1574255817784,5721159.0
1574255817836,5736106.0
1574255817882,5842732.0
1574255817936,5888434.0
1574255817983,5878995.0
1574255818035,5855951.0
1574255818082,5781414.0
1574255818128,5866148.0
1574255818182,5873068.0
1574255818227,5897356.0
1574255818282,5898453.0
1574255818329,5855656.0
1574255818382,5846383.0
1574255818432,5788909.0
1574255818483,5768592.0
1574255818528,5803993.0
1574255818582,5725840.0
1574255818632,5739633.0
1574255818681,5789793.0
1574255818731,5802479.0
1574255818780,5804604.0
1574255818831,5746915.0
1574255818881,5851064.0
1574255818931,5910914.0
1574255818979,5796736.0
1574255819031,5887372.0
1574255819079,5848758.0
1574255819128,5924449.0
1574255819180,5912858.0
1574255819230,5746350.0
1574255819279,5756661.0
1574255819328,5772515.0
1574255819378,5736897.0
1574255819427,5794088.0
1574255819478,5789939.0
1574255819525,5793038.0
1574255819578,5780317.0
1574255819624,5710959.0
1574255819677,5721904.0
1574255819724,5628190.0
1574255819776,5617042.0
1574255819829,5663967.0
1574255819875,5742256.0
1574255819924,5787621.0
1574255819975,5660891.0
1574255820023,5568863.0
1574255820074,5614486.0
1574255820120,5418863.0
1574255820168,5714657.0
1574255820218,5789984.0
1574255820266,5961321.0
1574255820319,5977943.0
1574255820369,5740233.0
1574255820418,5809298.0
1574255820468,5755272.0
1574255820522,5702219.0
1574255820570,5750590.0
1574255820621,5726801.0
1574255820670,5704569.0
1574255820720,5610959.0
1574255820766,5426507.0
1574255820820,5482782.0
1574255820864,5441036.0
1574255820919,5605532.0
1574255820965,5701733.0
1574255821019,5771180.0
1574255821065,5767472.0
1574255821119,5570864.0
1574255821169,5483109.0
1574255821217,5443285.0
1574255821269,5300408.0
1574255821317,5307962.0
1574255821369,5375658.0
1574255821411,5361422.0
1574255821466,5219325.0
1574255821512,5116702.0
1574255821566,5198396.0
1574255821609,5179060.0
1574255821665,5103406.0
1574255821714,5149742.0
1574255821766,5069021.0
1574255821813,4963254.0
1574255821863,4881651.0
1574255821913,4927297.0
1574255821964,4907024.0
1574255822012,4827115.0
1574255822063,4760246.0
1574255822107,4716182.0
1574255822162,4654569.0
1574255822209,4602965.0
1574255822262,4580055.0
1574255822311,4691805.0
1574255822361,4705078.0
1574255822406,4625330.0
1574255822460,4600137.0
1574255822505,4516510.0
1574255822560,4486580.0
1574255822605,4447774.0
1574255822659,4557318.0
1574255822706,4625058.0
1574255822754,4672503.0
1574255822805,4660664.0
1574255822858,4565345.0
1574255822911,4471994.0
1574255822958,4422820.0
1574255823009,4360472.0
1574255823058,4438050.0
1574255823109,4527026.0
1574255823156,4468557.0
1574255823208,4360720.0
1574255823255,4327873.0
1574255823306,4317437.0
1574255823355,4339768.0
1574255823406,4424051.0
1574255823455,4587530.0
1574255823505,4673928.0
1574255823554,4722604.0
1574255823604,4726200.0
1574255823654,4682520.0
1574255823703,4706470.0
1574255823749,4672514.0
1574255823804,4628914.0
1574255823854,4762857.0
1574255823904,4842506.0
1574255823951,4822357.0
1574255824005,4816849.0
1574255824053,4854265.0
1574255824106,4921654.0
1574255824152,4975918.0
1574255824202,5124504.0
1574255824251,5274528.0
1574255824302,5328869.0
1574255824345,5344530.0
1574255824402,5313684.0
1574255824448,5341815.0
1574255824501,5329672.0
1574255824552,5247221.0
1574255824600,5241691.0
1574255824652,5270479.0
1574255824700,5235009.0
1574255824746,5219766.0
1574255824799,5198929.0
1574255824851,5201584.0
1574255824898,5225589.0
1574255824951,5219655.0
1574255824998,5275511.0
1574255825041,5274493.0
1574255825092,5279095.0
1574255825148,5273520.0
1574255825197,5247504.0
1574255825243,5174731.0
1574255825296,5159241.0
1574255825346,5142267.0
1574255825388,5175929.0
1574255825447,5135043.0
1574255825495,5093636.0
1574255825546,5105282.0
1574255825594,5127228.0
1574255825645,5157182.0
1574255825687,5129660.0
1574255825744,5264373.0
1574255825793,5249572.0
1574255825843,5189453.0
1574255825888,5170468.0
1574255825936,5126188.0
1574255825989,5121655.0
1574255826037,5025962.0
1574255826089,4945513.0
1574255826137,4951165.0
1574255826190,4921803.0
1574255826241,4889927.0
1574255826288,4888797.0
1574255826342,4883086.0
1574255826389,4856616.0
1574255826434,4780734.0
1574255826488,4903168.0
1574255826536,4938672.0
1574255826586,4861659.0
1574255826633,4812066.0
1574255826689,4811897.0
1574255826740,4776561.0
1574255826792,4709376.0
1574255826839,4630361.0
1574255826890,4632724.0
1574255826938,4715266.0
1574255826989,4778711.0
1574255827039,4806018.0
1574255827089,4858290.0
1574255827139,4807363.0
1574255827190,4804412.0
1574255827236,4948136.0
1574255827290,5128122.0
1574255827338,5149990.0
1574255827389,5181346.0
1574255827437,5196192.0
1574255827488,5186580.0
1574255827537,5161975.0
1574255827588,5098307.0
1574255827629,5080984.0
1574255827686,5134770.0
1574255827734,5176563.0
1574255827788,5246260.0
1574255827834,5250251.0
1574255827886,5247741.0
1574255827930,5246102.0
1574255827985,5316963.0
1574255828030,5431921.0
1574255828084,5453947.0
1574255828127,5511456.0
1574255828184,5487746.0
1574255828230,5478269.0
1574255828282,5477298.0
1574255828330,5443388.0
1574255828383,5421543.0
1574255828431,5514894.0
1574255828481,5501405.0
1574255828530,5523669.0
1574255828579,5532771.0
1574255828630,5524234.0
1574255828679,5529004.0
1574255828730,5429875.0
1574255828779,5551427.0
1574255828829,5547436.0
1574255828878,5567867.0
1574255828929,5551179.0
1574255828978,5517257.0
1574255829028,5531639.0
1574255829073,5492335.0
1574255829128,5440493.0
1574255829178,5510790.0
1574255829228,5518569.0
1574255829277,5517947.0
1574255829327,5505509.0
1574255829372,5470423.0
1574255829426,5444575.0
1574255829468,5434116.0
1574255829526,5530837.0
1574255829569,5603620.0
1574255829627,5465142.0
1574255829672,5434252.0
1574255829717,5412610.0
1574255829773,5426066.0
1574255829819,5413843.0
1574255829871,5312079.0
1574255829918,5363886.0
1574255829971,5441284.0
1574255830021,5410992.0
1574255830071,5413050.0
1574255830122,5396463.0
1574255830171,5343319.0
1574255830220,5300161.0
1574255830270,5305996.0
1574255830315,5383641.0
1574255830364,5330826.0
1574255830415,5243014.0
1574255830467,5151483.0
1574255830515,5134681.0
1574255830565,5111682.0
1574255830618,5038084.0
1574255830670,5043659.0
1574255830718,5080372.0
1574255830763,5033165.0
1574255830815,5034715.0
1574255830867,5022457.0
1574255830918,5014135.0
1574255830969,5030395.0
1574255831017,5011128.0
1574255831067,5053643.0
1574255831113,5100895.0
1574255831166,5087802.0
1574255831212,4989838.0
1574255831267,4935212.0
1574255831313,4928666.0
1574255831361,4894212.0
1574255831412,4864294.0
1574255831461,4903677.0
1574255831511,5064001.0
1574255831561,5068365.0
1574255831611,5066861.0
1574255831659,5019428.0
1574255831713,4990900.0
1574255831758,4935121.0
1574255831811,4890028.0
1574255831862,4966826.0
1574255831911,5044711.0
1574255831961,5065266.0
1574255832010,5027783.0
1574255832061,4956367.0
1574255832112,4977716.0
1574255832161,4902784.0
1574255832210,4835202.0
1574255832260,4904027.0
1574255832309,4993273.0
1574255832354,5043681.0
1574255832410,5046995.0
1574255832457,5017687.0
1574255832509,4934737.0
1574255832556,4896111.0
1574255832608,4888638.0
1574255832656,5099347.0
1574255832709,5201676.0
1574255832751,5244812.0
1574255832808,5280170.0
1574255832856,5373362.0
1574255832907,5473271.0
1574255832956,5458742.0
1574255833008,5343693.0
1574255833056,5337620.0
1574255833106,5451020.0
1574255833158,5453427.0
1574255833208,5470185.0
1574255833256,5445209.0
1574255833306,5449833.0
1574255833358,5418240.0
1574255833405,5401595.0
1574255833454,5411988.0
1574255833504,5487349.0
1574255833552,5517460.0
1574255833604,5662632.0
1574255833652,5726529.0
1574255833699,5761615.0
1574255833752,5735710.0
1574255833802,5604356.0
1574255833852,5627048.0
1574255833902,5664735.0
1574255833951,5651992.0
1574255834001,5724369.0
1574255834050,5714283.0
1574255834096,5722741.0
1574255834151,5657906.0
1574255834196,5588061.0
1574255834250,5690414.0
1574255834298,5767143.0
1574255834349,5776134.0
1574255834395,5784636.0
1574255834450,5754796.0
1574255834492,5789102.0
1574255834548,5781075.0
1574255834595,5717268.0
1574255834647,5819926.0
1574255834693,5768523.0
1574255834742,5738028.0
1574255834794,5872627.0
1574255834846,5891193.0
1574255834895,5881301.0
1574255834946,5856526.0
1574255834995,5782465.0
1574255835047,5847661.0
1574255835094,5812679.0
1574255835146,5825590.0
1574255835193,5832634.0
1574255835245,5828156.0
1574255835298,5853756.0
1574255835337,5806990.0
1574255835386,5693931.0
1574255835438,5850049.0
1574255835488,5783619.0
1574255835542,5789023.0
1574255835591,5835394.0
1574255835642,5789610.0
1574255835690,5729265.0
1574255835741,5677309.0
1574255835791,5810155.0
1574255835836,5873103.0
1574255835891,5836038.0
1574255835934,5805543.0
1574255835990,5786569.0
1574255836036,5766353.0
1574255836089,5697097.0
1574255836133,5620083.0
1574255836183,5605871.0
1574255836234,5675194.0
1574255836284,5682759.0
1574255836335,5716386.0
1574255836384,5655261.0
1574255836438,5600749.0
1574255836487,5579999.0
1574255836536,5612214.0
1574255836585,5671259.0
1574255836635,5615053.0
1574255836685,5588876.0
1574255836734,5510111.0
1574255836782,5420932.0
1574255836834,5379435.0
1574255836884,5295264.0
1574255836934,5278925.0
1574255836983,5338424.0
1574255837032,5331458.0
1574255837083,5270412.0
1574255837133,5233572.0
1574255837183,5235573.0
1574255837232,5243241.0
1574255837275,5190290.0
1574255837331,5245129.0
1574255837382,5250216.0
1574255837431,5238085.0
1574255837476,5180712.0
1574255837531,5147085.0
1574255837576,5171768.0
1574255837631,5124866.0
1574255837677,5049900.0
1574255837729,5073792.0
1574255837776,5015210.0
1574255837829,4936829.0
1574255837877,4910596.0
1574255837928,4915707.0
1574255837977,4904252.0
1574255838027,4879264.0
1574255838077,4978202.0
1574255838128,4959036.0
1574255838176,4845671.0
1574255838227,4756254.0
1574255838276,4736184.0
1574255838326,4749482.0
1574255838373,4718579.0
1574255838426,4698250.0
1574255838475,4753292.0
1574255838526,4690775.0
1574255838574,4617278.0
1574255838627,4597831.0
1574255838673,4597142.0
1574255838726,4610472.0
1574255838774,4610574.0
1574255838818,4769450.0
1574255838866,4902580.0
1574255838917,4905463.0
1574255838967,4862360.0
1574255839021,4797921.0
1574255839072,4843952.0
1574255839116,4840324.0
1574255839171,4738842.0
1574255839216,4759228.0
1574255839271,4793671.0
1574255839316,4721824.0
1574255839370,4697593.0
1574255839421,4657871.0
1574255839470,4632555.0
1574255839519,4589553.0
1574255839569,4614881.0
1574255839621,4700737.0
1574255839669,4641249.0
1574255839719,4578755.0
1574255839769,4559861.0
1574255839816,4595592.0
1574255839868,4582972.0
1574255839918,4529241.0
1574255839967,4509669.0
1574255840017,4557169.0
1574255840068,4541283.0
1574255840119,4525070.0
1574255840167,4504196.0
1574255840216,4525114.0
1574255840267,4522628.0
1574255840316,4661829.0
1574255840366,4799481.0
1574255840414,4847831.0
1574255840466,4840945.0
1574255840515,4857228.0
1574255840566,4845116.0
1574255840610,4812745.0
1574255840666,4794416.0
1574255840709,5006051.0
1574255840763,4992211.0
1574255840814,4962541.0
1574255840862,4978360.0
1574255840913,4945852.0
1574255840959,4867380.0
1574255841013,4833980.0
1574255841059,4881468.0
1574255841112,5024233.0
1574255841162,5025273.0
1574255841212,4973137.0
1574255841262,4921644.0
1574255841311,4950284.0
1574255841362,4895908.0
1574255841411,4838298.0
1574255841460,4850669.0
1574255841510,4955700.0
1574255841554,4959851.0
1574255841606,4994948.0
1574255841656,4988040.0
1574255841705,4979898.0
1574255841755,4984817.0
1574255841809,4948973.0
1574255841858,5041974.0
1574255841904,5095468.0
1574255841958,5101167.0
1574255842009,5071678.0
1574255842057,5022514.0
1574255842108,5018286.0
1574255842158,4984590.0
1574255842209,4960585.0
1574255842256,5032724.0
1574255842308,5027208.0
1574255842356,5013006.0
1574255842405,4965436.0
1574255842455,4923690.0
1574255842505,4924911.0
1574255842554,4890934.0
1574255842602,4983527.0
1574255842654,4968466.0
1574255842702,4892755.0
1574255842749,4839781.0
1574255842801,4822005.0
1574255842853,4824901.0
1574255842901,4768635.0
1574255842952,4771384.0
1574255843000,4806775.0
1574255843052,4824571.0
1574255843102,4811264.0
1574255843152,4868624.0
1574255843201,4876970.0
1574255843250,4907893.0
1574255843301,4876584.0
1574255843351,4875511.0
1574255843400,4880633.0
1574255843450,4838062.0
1574255843500,4829186.0
1574255843550,4907329.0
1574255843599,4932488.0
1574255843650,4893828.0
1574255843698,4776019.0
1574255843745,4813819.0
1574255843798,4871734.0
1574255843849,4821892.0
1574255843898,4781628.0
1574255843947,4757544.0
1574255843998,4751823.0
1574255844047,4750104.0
1574255844096,4812292.0
1574255844142,4821101.0
1574255844197,4732928.0
1574255844245,4643850.0
1574255844295,4626438.0
1574255844342,4659634.0
1574255844394,4659817.0
1574255844445,4598972.0
1574255844494,4670661.0
1574255844542,4712315.0
1574255844593,4686138.0
1574255844641,4676687.0
1574255844693,4664350.0
1574255844741,4663820.0
1574255844792,4686297.0
1574255844842,4742460.0
1574255844892,4822481.0
1574255844942,4837191.0
1574255844991,4808131.0
1574255845041,4820638.0
1574255845091,4846360.0
1574255845141,4820559.0
1574255845191,4763005.0
1574255845240,4826754.0
1574255845289,4909533.0
1574255845340,4879083.0
1574255845386,4861897.0
1574255845439,4889996.0
1574255845490,4864463.0
1574255845538,4846157.0
1574255845582,4850521.0
1574255845638,5032815.0
1574255845684,5120920.0
1574255845733,5165492.0
1574255845782,5156876.0
1574255845838,5184873.0
1574255845883,5181074.0
1574255845937,5062631.0
1574255845983,5060055.0
1574255846036,5142438.0
1574255846083,5149889.0
1574255846135,5152999.0
1574255846183,5176494.0
1574255846234,5161140.0
1574255846289,5165165.0
1574255846327,5136140.0
1574255846384,5252886.0
1574255846433,5200613.0
1574255846484,5198114.0
1574255846532,5279774.0
1574255846582,5385811.0
1574255846629,5440516.0
1574255846682,5309092.0
1574255846730,5204943.0
1574255846781,5206005.0
1574255846828,5239950.0
1574255846880,5287846.0
1574255846924,5447153.0
1574255846980,5504786.0
1574255847026,5513423.0
1574255847080,5353157.0
1574255847126,5427817.0
1574255847178,5378948.0
1574255847224,5395874.0
1574255847278,5487362.0
1574255847324,5548363.0
1574255847377,5521497.0
1574255847427,5461388.0
1574255847477,5340017.0
1574255847528,5287090.0
1574255847577,5286003.0
1574255847630,5325612.0
1574255847676,5378293.0
1574255847730,5418569.0
1574255847775,5464057.0
1574255847826,5404005.0
1574255847874,5321203.0
1574255847925,5306018.0
1574255847967,5268614.0
1574255848019,5312654.0
1574255848067,5306164.0
1574255848118,5285087.0
1574255848166,5209646.0
1574255848217,5148737.0
1574255848266,5184940.0
1574255848316,5224200.0
1574255848365,5178508.0
1574255848422,5115810.0
1574255848470,5081967.0
1574255848522,5110302.0
1574255848570,5110891.0
1574255848620,5159511.0
1574255848665,5269981.0
1574255848720,5245186.0
1574255848766,5166149.0
1574255848821,5159409.0
1574255848864,5182307.0
1574255848920,5166205.0
1574255848965,5070331.0
1574255849019,5108843.0
1574255849070,5221111.0
1574255849117,5222209.0
1574255849171,5196405.0
1574255849217,5173690.0
1574255849271,5192742.0
1574255849316,5192403.0
1574255849366,5185666.0
1574255849416,5346960.0
1574255849465,5407047.0
1574255849515,5389486.0
1574255849562,5384840.0
1574255849615,5415810.0
1574255849665,5418309.0
1574255849715,5372176.0
1574255849764,5297763.0
1574255849814,5448927.0
1574255849865,5362722.0
1574255849913,5363210.0
1574255849963,5382816.0
1574255850013,5390403.0
1574255850062,5385845.0
1574255850110,5359071.0
1574255850162,5335653.0
1574255850210,5403361.0
1574255850261,5396542.0
1574255850309,5365526.0
1574255850360,5372062.0
1574255850407,5414046.0
1574255850460,5372706.0
1574255850507,5294835.0
1574255850558,5278892.0
1574255850608,5304966.0
1574255850658,5310620.0
1574255850708,5359195.0
1574255850753,5389758.0
1574255850809,5366306.0
1574255850853,5365493.0
1574255850907,5311185.0
1574255850957,5353654.0
1574255851007,5347267.0
1574255851057,5448984.0
1574255851108,5631256.0
1574255851156,5638944.0
1574255851206,5602659.0
1574255851255,5538616.0
1574255851306,5498148.0
1574255851354,5433278.0
1574255851405,5437769.0
1574255851453,5507126.0
1574255851505,5518411.0
1574255851553,5479230.0
1574255851604,5440221.0
1574255851653,5371326.0
1574255851699,5485415.0
1574255851749,5504412.0
1574255851802,5467505.0
1574255851850,5503835.0
1574255851903,5495094.0
1574255851947,5485754.0
1574255852002,5437350.0
1574255852049,5362665.0
1574255852096,5342845.0
1574255852145,5358459.0
1574255852200,5381605.0
1574255852248,5428169.0
1574255852299,5392030.0
1574255852350,5373125.0
1574255852393,5327648.0
1574255852450,5388932.0
1574255852497,5403270.0
1574255852548,5377615.0
1574255852597,5404887.0
1574255852647,5378948.0
1574255852696,5301528.0
1574255852748,5223600.0
1574255852796,5262553.0
1574255852847,5220616.0
1574255852895,5129648.0
1574255852946,5142562.0
1574255852989,5102886.0
1574255853045,5064419.0
1574255853090,5135020.0
1574255853142,5085269.0
1574255853190,5067223.0
1574255853241,5039215.0
1574255853292,4964520.0
1574255853345,4951190.0
1574255853387,4899482.0
1574255853443,4883053.0
1574255853487,4869032.0
1574255853542,4897332.0
1574255853590,4832046.0
1574255853642,4834885.0
1574255853690,4754874.0
1574255853741,4759545.0
1574255853790,4747142.0
1574255853839,4793545.0
1574255853889,4795717.0
1574255853940,4903925.0
1574255853991,4958843.0
1574255854033,4954083.0
1574255854085,4870162.0
1574255854132,4839068.0
1574255854186,4856448.0
1574255854232,4867472.0
1574255854288,4851687.0
1574255854331,4839226.0
1574255854387,4914757.0
1574255854437,4894947.0
1574255854488,5015245.0
1574255854537,5128903.0
1574255854587,5214520.0
1574255854634,5237270.0
1574255854682,5140786.0
1574255854732,5309104.0
1574255854786,5390165.0
1574255854828,5352704.0
1574255854885,5415946.0
1574255854928,5565482.0
1574255854984,5593445.0
1574255855029,5426856.0
1574255855085,5404027.0
1574255855131,5486163.0
1574255855184,5481742.0
1574255855230,5511354.0
1574255855282,5574483.0
1574255855332,5546678.0
1574255855382,5527580.0
1574255855432,5472696.0
1574255855481,5579582.0
1574255855531,5624064.0
1574255855580,5633607.0
1574255855630,5606176.0
1574255855680,5590505.0
1574255855730,5629141.0
1574255855779,5621554.0
1574255855830,5533482.0
1574255855878,5656955.0
1574255855931,5671960.0
1574255855974,5708086.0
1574255856029,5724279.0
1574255856079,5688096.0
1574255856130,5656809.0
1574255856178,5590324.0
1574255856228,5635699.0
1574255856278,5773691.0
1574255856328,5752840.0
1574255856378,5710665.0
1574255856428,5758415.0
1574255856477,5758720.0
1574255856523,5748317.0
1574255856573,5707928.0
1574255856623,5646984.0
1574255856672,5833088.0
1574255856722,5781154.0
1574255856772,5788401.0
1574255856822,5755621.0
1574255856871,5710575.0
1574255856922,5682308.0
1574255856971,5644982.0
1574255857021,5668240.0
1574255857071,5764498.0
1574255857120,5773952.0
1574255857171,5837147.0
1574255857219,5760134.0
1574255857272,5742122.0
1574255857318,5720582.0
1574255857367,5646090.0
1574255857418,5559228.0
1574255857467,5680418.0
1574255857522,5655791.0
1574255857571,5677649.0
1574255857621,5650625.0
1574255857670,5632861.0
1574255857716,5645988.0
1574255857770,5623035.0
1574255857820,5738875.0
1574255857869,5836422.0
1574255857919,5866772.0
1574255857969,5851790.0
1574255858019,5835721.0
1574255858069,5833256.0
1574255858113,5789895.0
1574255858161,5723782.0
1574255858211,5842948.0
1574255858265,5790583.0
1574255858312,5756550.0
1574255858364,5792438.0
1574255858411,5794031.0
1574255858467,5774675.0
1574255858510,5768829.0
1574255858560,5792822.0
1574255858610,5868501.0
1574255858659,5847493.0
1574255858714,5847334.0
1574255858765,5811874.0
1574255858815,5816194.0
1574255858864,5795061.0
1574255858913,5728824.0
1574255858964,5696757.0
1574255859012,5744384.0
1574255859057,5730147.0
1574255859108,5774754.0
1574255859157,5766658.0
1574255859208,5759636.0
1574255859257,5762407.0
1574255859311,5691454.0
1574255859354,5825082.0
1574255859404,5819574.0
1574255859454,5766851.0
1574255859505,5769790.0
1574255859560,5740483.0
1574255859610,5749538.0
1574255859659,5736332.0
1574255859709,5681322.0
1574255859754,5590572.0
1574255859805,5645490.0
1574255859855,5663006.0
1574255859909,5707398.0
1574255859956,5722288.0
1574255860009,5706989.0
1574255860051,5658855.0
1574255860108,5702875.0
1574255860153,5764282.0
1574255860207,5713989.0
1574255860253,5719450.0
1574255860308,5772785.0
1574255860356,5754085.0
1574255860405,5700636.0
1574255860455,5561457.0
1574255860498,5516568.0
1574255860547,5550218.0
1574255860600,5586728.0
1574255860649,5610077.0
1574255860700,5636931.0
1574255860749,5599900.0
1574255860802,5568286.0
1574255860852,5645502.0
1574255860903,5683821.0
1574255860952,5643377.0
1574255861002,5616579.0
1574255861050,5616353.0
1574255861097,5608584.0
1574255861151,5575409.0
1574255861201,5484048.0
1574255861251,5460823.0
1574255861301,5499664.0
1574255861350,5488469.0
1574255861398,5519169.0
1574255861450,5410631.0
1574255861498,5321248.0
1574255861549,5266375.0
1574255861593,5347108.0
1574255861648,5394913.0
1574255861695,5354910.0
1574255861748,5293897.0
1574255861798,5248012.0
1574255861848,5243060.0
1574255861897,5225760.0
1574255861947,5120727.0
1574255861998,5202310.0
1574255862047,5189510.0
1574255862097,5171882.0
1574255862147,5115402.0
1574255862195,5035245.0
1574255862246,5000295.0
1574255862296,4986343.0
1574255862341,5025477.0
1574255862394,5054537.0
1574255862445,5033799.0
1574255862494,5041204.0
1574255862546,5003270.0
1574255862593,4967606.0
1574255862645,4981256.0
1574255862693,4940436.0
1574255862738,4914090.0
1574255862793,4953790.0
1574255862843,4941882.0
1574255862892,4902930.0
1574255862943,4915063.0
1574255862992,4914803.0
1574255863042,4930147.0
1574255863091,4907950.0
1574255863135,5030509.0
1574255863191,5045694.0
1574255863240,5020852.0
1574255863290,4982499.0
1574255863338,4937439.0
1574255863391,4942291.0
1574255863433,4936139.0
1574255863489,4903960.0
1574255863536,4846429.0
1574255863589,4828846.0
1574255863635,4803395.0
1574255863687,4808730.0
1574255863736,4813525.0
1574255863788,4838152.0
1574255863835,4842934.0
1574255863888,4824007.0
1574255863933,4929637.0
1574255863987,4956899.0
1574255864036,4959591.0
1574255864086,4929840.0
1574255864130,4924097.0
1574255864179,4943398.0
1574255864231,4903891.0
1574255864280,4861592.0
1574255864331,4888027.0
1574255864382,4894179.0
1574255864433,4892550.0
1574255864486,4919722.0
1574255864533,4929999.0
1574255864583,4913694.0
1574255864633,4810008.0
1574255864684,4942833.0
1574255864732,4961377.0
1574255864781,4906120.0
1574255864832,4874526.0
1574255864879,4871090.0
1574255864927,4888683.0
1574255864976,4803947.0
1574255865031,4704343.0
1574255865077,4707260.0
1574255865131,4749267.0
1574255865182,4740390.0
1574255865229,4775330.0
1574255865281,4769019.0
1574255865330,4766419.0
1574255865382,4757577.0
1574255865424,4907272.0
1574255865482,5057714.0
1574255865528,5154661.0
1574255865579,5173792.0
1574255865629,5164984.0
1574255865678,5191657.0
1574255865728,5194924.0
1574255865777,5142800.0
1574255865828,5125725.0
1574255865877,5252398.0
1574255865927,5228678.0
1574255865976,5225951.0
1574255866027,5188673.0
1574255866075,5113480.0
1574255866126,5091691.0
1574255866176,5056820.0
1574255866221,5187496.0
1574255866270,5257339.0
1574255866322,5225793.0
1574255866370,5196145.0
1574255866421,5194235.0
1574255866472,5179491.0
1574255866525,5141012.0
1574255866572,5096858.0
1574255866617,5156152.0
1574255866672,5157341.0
1574255866722,5115572.0
1574255866772,5077569.0
1574255866819,5048588.0
1574255866872,5035190.0
1574255866919,5011579.0
1574255866972,5070299.0
1574255867021,5007849.0
1574255867070,4938231.0
1574255867122,4904921.0
1574255867170,4880948.0
1574255867220,4827715.0
1574255867269,4845106.0
1574255867318,4785924.0
1574255867368,4801292.0
1574255867420,4798352.0
1574255867467,4711377.0
1574255867518,4707384.0
1574255867568,4704885.0
1574255867617,4805168.0
1574255867667,4794857.0
1574255867717,4778042.0
1574255867767,4836274.0
1574255867816,4797978.0
1574255867868,4740412.0
1574255867916,4707305.0
1574255867967,4680960.0
1574255868015,4681051.0
1574255868066,4671553.0
1574255868115,4625952.0
1574255868161,4538863.0
1574255868214,4506288.0
1574255868264,4494360.0
1574255868313,4560686.0
1574255868361,4598623.0
1574255868413,4557895.0
1574255868458,4520931.0
1574255868512,4554774.0
1574255868559,4541781.0
1574255868612,4483878.0
1574255868660,4475125.0
1574255868711,4636275.0
1574255868761,4632848.0
1574255868810,4628258.0
1574255868861,4541385.0
1574255868906,4466724.0
1574255868960,4444676.0
1574255869010,4459930.0
1574255869060,4636184.0
1574255869109,4734329.0
1574255869161,4733346.0
1574255869209,4705903.0
1574255869258,4650997.0
1574255869309,4642133.0
1574255869357,4642549.0
1574255869408,4581865.0
1574255869457,4610234.0
1574255869508,4660494.0
1574255869556,4589509.0
1574255869604,4528768.0
1574255869656,4514915.0
1574255869701,4545184.0
1574255869752,4532114.0
1574255869803,4613073.0
1574255869855,4650430.0
1574255869902,4580994.0
1574255869955,4546903.0
1574255870002,4572367.0
1574255870050,4607725.0
1574255870102,4558967.0
1574255870154,4638785.0
1574255870202,4604627.0
1574255870253,4664803.0
1574255870301,4661014.0
1574255870352,4658438.0
1574255870401,4759070.0
1574255870452,4818206.0
1574255870501,4763062.0
1574255870551,4903948.0
1574255870597,4987203.0
1574255870645,5005474.0
1574255870697,5005531.0
1574255870746,4997120.0
1574255870797,4997560.0
1574255870847,4931254.0
1574255870901,4896158.0
1574255870951,4976902.0
1574255870999,4922130.0
1574255871050,4833787.0
1574255871099,4859759.0
1574255871143,4856039.0
1574255871199,4823781.0
1574255871245,4780101.0
1574255871295,4854729.0
1574255871344,4819630.0
1574255871394,4682859.0
1574255871448,4629739.0
1574255871497,4635914.0
1574255871543,4674222.0
1574255871597,4658448.0
1574255871643,4616498.0
1574255871696,4644687.0
1574255871743,4625974.0
1574255871795,4594722.0
1574255871844,4624188.0
1574255871894,4630995.0
1574255871942,4616238.0
1574255871993,4642958.0
1574255872043,4636647.0
1574255872094,4497401.0
1574255872146,4526630.0
1574255872194,4502013.0
1574255872244,4480768.0
1574255872293,4497129.0
1574255872342,4436579.0
1574255872392,4377081.0
1574255872440,4393862.0
1574255872490,4434499.0
1574255872542,4423373.0
1574255872588,4439712.0
1574255872641,4460777.0
1574255872690,4495106.0
1574255872740,4438944.0
1574255872785,4475487.0
1574255872840,4495197.0
1574255872884,4439893.0
1574255872939,4400544.0
1574255872985,4408346.0
1574255873038,4435992.0
1574255873084,4422062.0
1574255873139,4318025.0
1574255873185,4308605.0
1574255873237,4323644.0
1574255873283,4310936.0
1574255873337,4319156.0
1574255873387,4349118.0
1574255873432,4342074.0
1574255873489,4266057.0
1574255873538,4396633.0
1574255873589,4480282.0
1574255873635,4455814.0
1574255873690,4401889.0
1574255873735,4403732.0
1574255873790,4488762.0
1574255873834,4416012.0
1574255873886,4362936.0
1574255873928,4340650.0
1574255873986,4415425.0
1574255874034,4403382.0
1574255874086,4417832.0
1574255874133,4420547.0
1574255874184,4415695.0
1574255874232,4450432.0
1574255874283,4683639.0
1574255874331,4827375.0
1574255874382,4902897.0
1574255874427,4886377.0
1574255874481,4885518.0
1574255874529,4945422.0
1574255874581,4896044.0
1574255874629,4868477.0
1574255874681,4886003.0
1574255874730,4924277.0
1574255874780,4916091.0
1574255874826,4911093.0
1574255874880,4858030.0
1574255874924,4812586.0
1574255874980,4811511.0
1574255875024,4980226.0
1574255875079,5085155.0
1574255875124,5120672.0
1574255875175,5100917.0
1574255875224,5095015.0
1574255875279,5110517.0
1574255875324,5040018.0
1574255875378,4979299.0
1574255875427,5012258.0
1574255875478,5090832.0
1574255875526,5074787.0
1574255875572,4991160.0
1574255875628,4924515.0
1574255875676,4924537.0
1574255875725,4935088.0
1574255875776,5048092.0
1574255875826,5132454.0
1574255875869,5178914.0
1574255875922,5261490.0
1574255875971,5286593.0
1574255876022,5298939.0
1574255876071,5298667.0
1574255876125,5214124.0
1574255876174,5198612.0
1574255876225,5295762.0
1574255876267,5276529.0
1574255876321,5311693.0
1574255876368,5279784.0
1574255876420,5282996.0
1574255876467,5267630.0
1574255876523,5341964.0
1574255876572,5429786.0
1574255876623,5471327.0
1574255876671,5448882.0
1574255876722,5422559.0
1574255876771,5450737.0
1574255876822,5416137.0
1574255876870,5333686.0
1574255876922,5351834.0
1574255876969,5379388.0
1574255877021,5335777.0
1574255877070,5302355.0
1574255877121,5272334.0
1574255877165,5263492.0
1574255877221,5241396.0
1574255877267,5359036.0
1574255877321,5423364.0
1574255877365,5378338.0
1574255877421,5328495.0
1574255877466,5305339.0
1574255877521,5328101.0
1574255877565,5286298.0
1574255877620,5255046.0
1574255877669,5265312.0
1574255877715,5329152.0
1574255877766,5401211.0
1574255877819,5438990.0
1574255877869,5446960.0
1574255877919,5450997.0
1574255877969,5460189.0
1574255878019,5472176.0
1574255878068,5527986.0
1574255878118,5564623.0
1574255878171,5614441.0
1574255878217,5664916.0
1574255878268,5709377.0
1574255878317,5708426.0
1574255878367,5632928.0
1574255878416,5661027.0
1574255878468,5717144.0
1574255878515,5738865.0
1574255878567,5827953.0
1574255878615,5828327.0
1574255878666,5818512.0
1574255878714,5736842.0
1574255878765,5726360.0
1574255878814,5714600.0
1574255878866,5762383.0
1574255878914,5943751.0
1574255878965,6069428.0
1574255879009,6096770.0
1574255879065,6117325.0
1574255879111,6131752.0
1574255879165,5970852.0
1574255879208,5957014.0
1574255879264,5982025.0
1574255879307,6132500.0
1574255879364,6116408.0
1574255879411,6087712.0
1574255879461,6062010.0
1574255879510,5983721.0
1574255879562,6039769.0
1574255879611,6000546.0
1574255879661,6014669.0
1574255879707,6010394.0
1574255879755,5993524.0
1574255879812,5929864.0
1574255879860,5818185.0
1574255879911,5743433.0
1574255879952,5723566.0
1574255880024,5728247.0
1574255880055,5708257.0
1574255880102,5705894.0
1574255880153,5601381.0
1574255880209,5491295.0
1574255880258,5509274.0
1574255880304,5483030.0
1574255880358,5376993.0
1574255880408,5395445.0
1574255880450,5313694.0
1574255880503,5168184.0
1574255880549,5026710.0
1574255880601,4945342.0
1574255880651,4900352.0
1574255880702,4761490.0
1574255880750,4710156.0
1574255880804,4684092.0
1574255880850,4651698.0
1574255880906,4588208.0
1574255880952,4550465.0
1574255881006,4588954.0
1574255881048,4772650.0
1574255881104,4817257.0
1574255881150,4789497.0
1574255881203,4790662.0
1574255881248,4781616.0
1574255881302,4765854.0
1574255881349,4670715.0
1574255881403,4622333.0
1574255881450,4689938.0
1574255881500,4688140.0
1574255881549,4573826.0
1574255881600,4497852.0
1574255881650,4472378.0
1574255881700,4528902.0
1574255881750,4613469.0
1574255881799,4749730.0
1574255881848,4866499.0
1574255881899,4911896.0
1574255881949,4873339.0
1574255881999,4802037.0
1574255882049,4792980.0
1574255882098,4801369.0
1574255882151,4742924.0
1574255882198,4735483.0
1574255882249,4830090.0
1574255882298,4779694.0
1574255882348,4702128.0
1574255882397,4660630.0
1574255882448,4651211.0
1574255882497,4652897.0
1574255882548,4687869.0
1574255882596,4782000.0
1574255882647,4861862.0
1574255882696,4895343.0
1574255882747,4878372.0
1574255882794,4878394.0
1574255882841,4925374.0
1574255882890,4870422.0
1574255882948,4836998.0
1574255882988,4889904.0
1574255883046,4938073.0
1574255883091,4918816.0
1574255883144,4891623.0
1574255883191,4839214.0
1574255883245,4854909.0
1574255883291,4849572.0
1574255883344,4970049.0
1574255883391,5069891.0
1574255883443,5141069.0
1574255883491,5164271.0
1574255883541,5140301.0
1574255883590,5160801.0
1574255883641,5112836.0
1574255883691,5036592.0
1574255883741,5098215.0
1574255883791,5116363.0
1574255883840,5107159.0
1574255883890,5123644.0
1574255883940,5100261.0
1574255883991,5032974.0
1574255884040,4973939.0
1574255884089,5084682.0
1574255884135,5157453.0
1574255884191,5185631.0
1574255884239,5237983.0
1574255884289,5254977.0
1574255884338,5291940.0
1574255884382,5208019.0
1574255884436,5129287.0
1574255884488,5187642.0
1574255884536,5297300.0
1574255884587,5267336.0
1574255884635,5287271.0
1574255884687,5217086.0
1574255884732,5130532.0
1574255884786,5093863.0
1574255884830,5227026.0
1574255884886,5301404.0
1574255884932,5346746.0
1574255884986,5408969.0
1574255885030,5397481.0
1574255885081,5379842.0
1574255885135,5342256.0
1574255885185,5287893.0
1574255885233,5339633.0
1574255885284,5479300.0
1574255885332,5427319.0
1574255885384,5383946.0
1574255885430,5281865.0
1574255885478,5184058.0
1574255885529,5144439.0
1574255885578,5275420.0
1574255885628,5400929.0
1574255885678,5431708.0
1574255885728,5383143.0
1574255885781,5325726.0
1574255885831,5323906.0
1574255885881,5254763.0
1574255885931,5171689.0
1574255885974,5211694.0
1574255886024,5252579.0
1574255886076,5060823.0
1574255886126,4885528.0
1574255886176,4822186.0
1574255886226,4776697.0
1574255886280,4726698.0
1574255886328,4832963.0
1574255886377,4884579.0
1574255886428,4726810.0
1574255886477,4534714.0
1574255886529,4461173.0
1574255886572,4462315.0
1574255886628,4466543.0
1574255886672,4429852.0
1574255886727,4446722.0
1574255886775,4506028.0
1574255886828,4455462.0
1574255886873,4421961.0
1574255886927,4431095.0
1574255886973,4464316.0
1574255887026,4498001.0
1574255887077,4561342.0
1574255887125,4677930.0
1574255887174,4749539.0
1574255887224,4748011.0
1574255887273,4675082.0
1574255887324,4667969.0
1574255887374,4658901.0
1574255887425,4611002.0
1574255887473,4600104.0
1574255887525,4664712.0
1574255887572,4603178.0
1574255887622,4668602.0
1574255887672,4656910.0
1574255887723,4636907.0
1574255887771,4697333.0
1574255887824,4767798.0
1574255887872,4841916.0
1574255887921,4911546.0
1574255887967,4862270.0
1574255888021,4807838.0
1574255888070,4831979.0
1574255888121,4789237.0
1574255888171,4748667.0
1574255888216,4853540.0
1574255888271,4782770.0
1574255888320,4668184.0
1574255888371,4664892.0
1574255888415,4631163.0
1574255888464,4601799.0
1574255888513,4594427.0
1574255888569,4704241.0
1574255888615,4735550.0
1574255888669,4641217.0
1574255888716,4562757.0
1574255888769,4525137.0
1574255888820,4473916.0
1574255888868,4355439.0
1574255888920,4262361.0
1574255888967,4210765.0
1574255889018,4139180.0
1574255889066,4123034.0
1574255889116,4112597.0
1574255889167,4114734.0
1574255889216,4038253.0
1574255889262,4104309.0
1574255889314,4086568.0
1574255889364,4040502.0
1574255889413,4019348.0
1574255889460,4012676.0
1574255889513,3954297.0
1574255889564,3911025.0
1574255889612,3920467.0
1574255889664,3847931.0
1574255889707,3815255.0
1574255889764,3804513.0
1574255889812,3878777.0
1574255889864,3931253.0
1574255889912,3912405.0
1574255889962,3872016.0
1574255890012,3966520.0
1574255890063,3955642.0
1574255890111,3916680.0
1574255890162,3908809.0
1574255890204,3839711.0
1574255890254,3729072.0
1574255890417,3651527.0
1574255890420,3681401.0
1574255890421,3627499.0
1574255890498,3568782.0
1574255890516,3577081.0
1574255890555,3511046.0
1574255890609,3491915.0
1574255890656,3455453.0
1574255890706,3491862.0
1574255890756,3557172.0
1574255890806,3549691.0
1574255890855,3501927.0
1574255890909,3511637.0
1574255890957,3444289.0
1574255891008,3376975.0
1574255891058,3358051.0
1574255891104,3398048.0
1574255891153,3463438.0
1574255891204,3464175.0
1574255891253,3426031.0
1574255891307,3360314.0
1574255891355,3377028.0
1574255891406,3397042.0
1574255891456,3475228.0
1574255891505,3645291.0
1574255891554,3699358.0
1574255891606,3659950.0
1574255891655,3602102.0
1574255891705,3585139.0
1574255891754,3556713.0
1574255891802,3493077.0
1574255891853,3538023.0
1574255891905,3668384.0
1574255891953,3650415.0
1574255892005,3557857.0
1574255892052,3531843.0
1574255892102,3575862.0
1574255892152,3629454.0
1574255892196,3793536.0
1574255892252,3921808.0
1574255892298,3995639.0
1574255892351,3911745.0
1574255892396,3837521.0
1574255892451,3798989.0
1574255892497,3763732.0
1574255892550,3751535.0
1574255892599,3807865.0
1574255892649,3781747.0
1574255892700,3680851.0
1574255892749,3607184.0
1574255892800,3620437.0
1574255892849,3652321.0
1574255892899,3666781.0
1574255892949,3673569.0
1574255892999,3626073.0
1574255893047,3557833.0
1574255893094,3523807.0
1574255893148,3508264.0
1574255893198,3505040.0
1574255893248,3471611.0
1574255893297,3495720.0
1574255893346,3480888.0
1574255893397,3448588.0
1574255893447,3423232.0
1574255893497,3457377.0
1574255893547,3515979.0
1574255893596,3555482.0
1574255893647,3653266.0
1574255893695,3654523.0
1574255893745,3558881.0
1574255893794,3539177.0
1574255893845,3583768.0
1574255893894,3598071.0
1574255893946,3592697.0
1574255893994,3652512.0
1574255894042,3775150.0
1574255894092,3774439.0
1574255894137,3769532.0
1574255894192,3810320.0
1574255894238,3862054.0
1574255894292,3911734.0
1574255894340,4018612.0
1574255894387,4093362.0
1574255894440,4120825.0
1574255894492,4072358.0
1574255894542,4039054.0
1574255894590,4030705.0
1574255894640,4034564.0
1574255894691,3993864.0
1574255894741,4052083.0
1574255894790,4109417.0
1574255894840,4113466.0
1574255894890,4308721.0
1574255894939,4285429.0
1574255894989,4253078.0
1574255895038,4261530.0
1574255895082,4273605.0
1574255895138,4337692.0
1574255895181,4306874.0
1574255895231,4278649.0
1574255895282,4286894.0
1574255895330,4297029.0
1574255895381,4315379.0
1574255895430,4239207.0
1574255895480,4223784.0
1574255895531,4300773.0
1574255895588,4235765.0
1574255895632,4368926.0
1574255895685,4540602.0
1574255895735,4705233.0
1574255895781,4734429.0
1574255895834,4595762.0
1574255895881,4544339.0
1574255895934,4478967.0
1574255895986,4456151.0
1574255896034,4468599.0
1574255896082,4513115.0
1574255896128,4601571.0
1574255896184,4717196.0
1574255896229,4628297.0
1574255896281,4617955.0
1574255896329,4780598.0
1574255896380,4924326.0
1574255896432,4976227.0
1574255896480,4930499.0
1574255896531,4848987.0
1574255896581,4743298.0
1574255896631,4735963.0
1574255896681,4669594.0
1574255896731,4583903.0
1574255896780,4598718.0
1574255896830,4644864.0
1574255896880,4616681.0
1574255896925,4431540.0
1574255896980,4423064.0
1574255897023,4435122.0
1574255897072,4432166.0
1574255897122,4479888.0
1574255897172,4514466.0
1574255897223,4454696.0
1574255897278,4394309.0
1574255897321,4433804.0
1574255897378,4502452.0
1574255897427,4498411.0
1574255897477,4448800.0
1574255897527,4431333.0
1574255897577,4493045.0
1574255897624,4451644.0
1574255897676,4348485.0
1574255897726,4405587.0
1574255897776,4470274.0
1574255897824,4497917.0
1574255897875,4513601.0
1574255897924,4481934.0
1574255897974,4511138.0
1574255898025,4549012.0
1574255898074,4704824.0
1574255898124,4823267.0
1574255898174,4883575.0
1574255898225,4906867.0
1574255898273,4925523.0
1574255898328,4948721.0
1574255898373,4904890.0
1574255898423,4833903.0
1574255898472,4852904.0
1574255898522,4886436.0
1574255898573,4874959.0
1574255898622,4803744.0
1574255898670,4722753.0
1574255898722,4711960.0
1574255898771,4717966.0
1574255898822,4875070.0
1574255898872,4990677.0
1574255898921,5072217.0
1574255898971,5171561.0
1574255899020,5188742.0
1574255899067,5202413.0
1574255899120,5310608.0
1574255899166,5232940.0
1574255899220,5236299.0
1574255899264,5334828.0
1574255899320,5283053.0
1574255899365,5286377.0
1574255899419,5278598.0
1574255899467,5248938.0
1574255899519,5220286.0
1574255899563,5205485.0
1574255899619,5347175.0
1574255899663,5472345.0
1574255899715,5515030.0
1574255899766,5547231.0
1574255899812,5517212.0
1574255899863,5480578.0
1574255899919,5404728.0
1574255899964,5387666.0
1574255900018,5422650.0
1574255900064,5364916.0
1574255900117,5374606.0
1574255900166,5402229.0
1574255900218,5393219.0
1574255900267,5364102.0
1574255900312,5270107.0
1574255900366,5371881.0
1574255900417,5415946.0
1574255900467,5404468.0
1574255900517,5375319.0
1574255900569,5355849.0
1574255900617,5335539.0
1574255900669,5241374.0
1574255900715,5120501.0
1574255900765,5214216.0
1574255900810,5196430.0
1574255900865,5128009.0
1574255900914,5128417.0
1574255900970,5117618.0
1574255901014,5022809.0
1574255901065,4896621.0
1574255901114,4971656.0
1574255901166,4997808.0
1574255901214,4942551.0
1574255901258,4861196.0
1574255901307,4857283.0
1574255901360,4792425.0
1574255901408,4675669.0
1574255901460,4605147.0
1574255901507,4616996.0
1574255901563,4630202.0
1574255901612,4592776.0
1574255901663,4556808.0
1574255901711,4479128.0
1574255901757,4457193.0
1574255901812,4421067.0
1574255901861,4402907.0
1574255901909,4326337.0
1574255901961,4289928.0
1574255902005,4252558.0
1574255902056,4200102.0
1574255902110,4136161.0
1574255902155,4078236.0
1574255902206,4035415.0
1574255902253,4013208.0
1574255902308,3962280.0
1574255902359,3904828.0
1574255902405,3825544.0
1574255902458,3861105.0
1574255902508,3868806.0
1574255902557,3914565.0
1574255902606,3985527.0
1574255902657,3925985.0
1574255902709,3881660.0
1574255902752,3832870.0
1574255902807,3793103.0
1574255902857,3729365.0
1574255902908,3690932.0
1574255902956,3771733.0
1574255903008,3732577.0
1574255903050,3663638.0
1574255903101,3618986.0
1574255903149,3608571.0
1574255903200,3599453.0
1574255903252,3642859.0
1574255903302,3791758.0
1574255903351,3875053.0
1574255903402,3852948.0
1574255903454,3763234.0
1574255903505,3767076.0
1574255903554,3746566.0
1574255903604,3715929.0
1574255903653,3709125.0
1574255903705,3722170.0
1574255903748,3655661.0
1574255903804,3542408.0
1574255903853,3515595.0
1574255903903,3538925.0
1574255903952,3588624.0
1574255904003,3629218.0
1574255904051,3800458.0
1574255904102,3895507.0
1574255904151,3826287.0
1574255904202,3752513.0
1574255904253,3739461.0
1574255904297,3739217.0
1574255904345,3744770.0
1574255904400,3734804.0
1574255904448,3742791.0
1574255904495,3735088.0
1574255904547,3674327.0
1574255904595,3688454.0
1574255904650,3727297.0
1574255904698,3729838.0
1574255904745,3736817.0
1574255904799,3855516.0
1574255904848,3898802.0
1574255904898,3860028.0
1574255904949,3818040.0
1574255904998,3796884.0
1574255905049,3805332.0
1574255905097,3826874.0
1574255905148,3863602.0
1574255905194,3878200.0
1574255905248,3892343.0
1574255905297,3959944.0
1574255905346,4030957.0
1574255905396,4058642.0
1574255905445,4113792.0
1574255905490,4165343.0
1574255905545,4243840.0
1574255905595,4407438.0
1574255905645,4479215.0
1574255905694,4569758.0
1574255905746,4673759.0
1574255905791,4705905.0
1574255905846,4711938.0
1574255905889,4594692.0
1574255905946,4537604.0
1574255905988,4540993.0
1574255906044,4598373.0
1574255906091,4657340.0
1574255906142,4684934.0
1574255906186,4657048.0
1574255906243,4637133.0
1574255906286,4662022.0
1574255906342,4737206.0
1574255906387,4734010.0
1574255906440,4723238.0
1574255906488,4761124.0
1574255906541,4819974.0
1574255906588,4772173.0
1574255906641,4664129.0
1574255906689,4626856.0
1574255906735,4643817.0
1574255906789,4603574.0
1574255906840,4582895.0
1574255906889,4485642.0
1574255906939,4390987.0
1574255906989,4382145.0
1574255907034,4423921.0
1574255907089,4533510.0
1574255907138,4541832.0
1574255907184,4532150.0
1574255907238,4546757.0
1574255907287,4476027.0
1574255907336,4490447.0
1574255907387,4444407.0
1574255907436,4400398.0
1574255907487,4450297.0
1574255907536,4478275.0
1574255907586,4452201.0
1574255907635,4455850.0
1574255907687,4456968.0
1574255907734,4472092.0
1574255907785,4495071.0
1574255907828,4598861.0
1574255907885,4700696.0
1574255907928,4649388.0
1574255907987,4662257.0
1574255908028,4734606.0
1574255908085,4785729.0
1574255908129,4746073.0
1574255908176,4678054.0
1574255908230,4684749.0
1574255908279,4666268.0
1574255908329,4571906.0
1574255908377,4616376.0
1574255908429,4708280.0
1574255908478,4657861.0
1574255908529,4625277.0
1574255908579,4678792.0
1574255908629,4774948.0
1574255908682,4827507.0
1574255908733,4896164.0
1574255908780,4845251.0
1574255908831,4861265.0
1574255908873,4840041.0
1574255908929,4799378.0
1574255908974,4763170.0
1574255909030,4808405.0
1574255909079,4798220.0
1574255909129,4885676.0
1574255909172,4929468.0
1574255909229,4958982.0
1574255909271,4996683.0
1574255909322,4949036.0
1574255909377,4961702.0
1574255909428,5042062.0
1574255909477,5108406.0
1574255909527,5176466.0
1574255909577,5153985.0
1574255909627,5151095.0
1574255909677,5044518.0
1574255909723,4947332.0
1574255909777,4958880.0
1574255909826,5001155.0
1574255909871,5027661.0
1574255909926,5081715.0
1574255909974,5077670.0
1574255910026,5074377.0
1574255910069,5017297.0
1574255910126,5083960.0
1574255910172,5174867.0
1574255910225,5234893.0
1574255910270,5298677.0
1574255910325,5287464.0
1574255910371,5231252.0
1574255910423,5155949.0
1574255910472,5094286.0
1574255910523,5156278.0
1574255910571,5160092.0
1574255910623,5231398.0
1574255910673,5222458.0
1574255910722,5179172.0
1574255910771,5162489.0
1574255910821,5130203.0
1574255910871,5232977.0
1574255910921,5267661.0
1574255910970,5254137.0
1574255911017,5296278.0
1574255911070,5275272.0
1574255911119,5253357.0
1574255911172,5178961.0
1574255911219,5124703.0
1574255911270,5173703.0
1574255911319,5174684.0
1574255911369,5151500.0
1574255911419,5086474.0
1574255911468,5061798.0
1574255911518,5054785.0
1574255911569,5128374.0
1574255911616,5229943.0
1574255911668,5232812.0
1574255911712,5157762.0
1574255911767,5041377.0
1574255911811,5020708.0
1574255911867,4964110.0
1574255911913,4892438.0
1574255911966,4943603.0
1574255912012,4990984.0
1574255912066,4936187.0
1574255912112,4894740.0
1574255912165,4920602.0
1574255912212,4943006.0
1574255912264,4937478.0
1574255912314,5016951.0
1574255912364,5098619.0
1574255912415,5112086.0
1574255912464,5101145.0
1574255912513,5070071.0
1574255912564,5051664.0
1574255912612,4988507.0
1574255912663,4915622.0
1574255912712,4929426.0
1574255912760,4792785.0
1574255912812,4695541.0
1574255912861,4650617.0
1574255912911,4661270.0
1574255912962,4668418.0
1574255913011,4726316.0
1574255913061,4844308.0
1574255913109,4940946.0
1574255913160,4919407.0
1574255913210,4840598.0
1574255913260,4782161.0
1574255913309,4829860.0
1574255913360,4795782.0
1574255913404,4804719.0
1574255913453,4899614.0
1574255913506,4946994.0
1574255913554,4947466.0
1574255913605,4948573.0
1574255913655,4956846.0
1574255913708,4948998.0
1574255913752,4976400.0
1574255913808,5035184.0
1574255913854,5121227.0
1574255913908,5197405.0
1574255913955,5388245.0
1574255914007,5431820.0
1574255914053,5468422.0
1574255914107,5461323.0
1574255914157,5351411.0
1574255914203,5359089.0
1574255914253,5347616.0
1574255914302,5440276.0
1574255914353,5588811.0
1574255914400,5589081.0
1574255914455,5563585.0
1574255914504,5458086.0
1574255914554,5523265.0
1574255914604,5515656.0
1574255914653,5579757.0
1574255914705,5584119.0
1574255914753,5564800.0
1574255914805,5561514.0
1574255914849,5546026.0
1574255914903,5478139.0
1574255914952,5515406.0
1574255915003,5576791.0
1574255915051,5705646.0
1574255915103,5732770.0
1574255915151,5714856.0
1574255915202,5748859.0
1574255915251,5692009.0
1574255915302,5778925.0
1574255915351,5761320.0
1574255915402,5803824.0
1574255915450,5801337.0
1574255915500,5817981.0
1574255915550,5756097.0
1574255915600,5661750.0
1574255915649,5642721.0
1574255915699,5628700.0
1574255915749,5672480.0
1574255915795,5716691.0
1574255915850,5687259.0
1574255915893,5641025.0
1574255915951,5611818.0
1574255915993,5665198.0
1574255916048,5716171.0
1574255916096,5677116.0
1574255916144,5678214.0
1574255916196,5627229.0
1574255916247,5589408.0
1574255916297,5523238.0
1574255916347,5400047.0
1574255916393,5404220.0
1574255916440,5434217.0
1574255916490,5399753.0
1574255916540,5247514.0
1574255916596,5161750.0
1574255916645,5135924.0
1574255916695,5113888.0
1574255916741,5213232.0
1574255916793,5253723.0
1574255916845,5251325.0
1574255916893,5166963.0
1574255916945,5076823.0
1574255916993,5078146.0
1574255917045,5064317.0
1574255917093,5069234.0
1574255917144,5030881.0
1574255917193,5112417.0
1574255917245,5167563.0
1574255917292,5199041.0
1574255917343,5194235.0
1574255917392,5154807.0
1574255917443,5146124.0
1574255917487,5145027.0
1574255917538,5194349.0
1574255917587,5181842.0
1574255917637,5265956.0
1574255917686,5338672.0
1574255917737,5430700.0
1574255917786,5466737.0
1574255917837,5525274.0
1574255917886,5407985.0
1574255917938,5341612.0
1574255917985,5326008.0
1574255918037,5429345.0
1574255918085,5455169.0
1574255918136,5467178.0
1574255918185,5444372.0
1574255918237,5381209.0
1574255918284,5400139.0
1574255918337,5324720.0
1574255918383,5348079.0
1574255918433,5362633.0
1574255918482,5364362.0
1574255918532,5360631.0
1574255918581,5291668.0
1574255918632,5180700.0
1574255918682,5165267.0
1574255918732,5170897.0
1574255918782,5215697.0
1574255918835,5243410.0
1574255918882,5241862.0
1574255918934,5183120.0
1574255918980,5117584.0
1574255919033,5247831.0
1574255919085,5271395.0
1574255919134,5257443.0
1574255919186,5306741.0
1574255919227,5254456.0
1574255919282,5271281.0
1574255919329,5177287.0
1574255919382,5101687.0
1574255919428,5115131.0
1574255919484,5156469.0
1574255919526,5151857.0
1574255919578,5117844.0
1574255919631,5013717.0
1574255919676,4954752.0
