"1574266156782","3744062.0"
"1574266156837","3747577.0"
"1574266156880","3754504.0"
"1574266156930","3755448.0"
"1574266156979","3762637.0"
"1574266157026","3771329.0"
"1574266157078","3780234.0"
"1574266157128","3790510.0"
"1574266157175","3806029.0"
"1574266157224","3819008.0"
"1574266157273","3832161.0"
"1574266157318","3843878.0"
"1574266157366","3859208.0"
"1574266157422","3872367.0"
"1574266157461","3877656.0"
"1574266157516","3878696.0"
"1574266157559","3897522.0"
"1574266157612","3906578.0"
"1574266157662","3988057.0"
"1574266157704","4005859.0"
"1574266157751","3988175.0"
"1574266157801","3918935.0"
"1574266157850","3846834.0"
"1574266157900","3783820.0"
"1574266157946","3654601.0"
"1574266158000","3961577.0"
"1574266158044","4098639.0"
"1574266158092","3919171.0"
"1574266158143","3780636.0"
"1574266158191","3835312.0"
"1574266158244","3849394.0"
"1574266158289","4058920.0"
"1574266158338","3985448.0"
"1574266158380","3928454.0"
"1574266158437","3865291.0"
"1574266158480","3759792.0"
"1574266158531","3522007.0"
"1574266158586","3333705.0"
"1574266158621","3197645.0"
"1574266158678","3216936.0"
"1574266158720","3696304.0"
"1574266158774","3557597.0"
"1574266158818","3550488.0"
"1574266158866","3539021.0"
"1574266158913","3686690.0"
"1574266158961","3665917.0"
"1574266159010","3575296.0"
"1574266159058","3436651.0"
"1574266159107","3455258.0"
"1574266159160","3374323.0"
"1574266159203","3305595.0"
"1574266159253","3332248.0"
"1574266159299","3362336.0"
"1574266159348","3345525.0"
"1574266159398","3336590.0"
"1574266159448","3323129.0"
"1574266159498","3306524.0"
"1574266159544","3296217.0"
"1574266159594","3278730.0"
"1574266159643","3263362.0"
"1574266159688","3248932.0"
"1574266159739","3233194.0"
"1574266159787","3221798.0"
"1574266159838","3207346.0"
"1574266159880","3181773.0"
"1574266159934","3162016.0"
"1574266159980","3139801.0"
"1574266160028","3122927.0"
"1574266160079","3111328.0"
"1574266160257","3099018.0"
"1574266160257","3076226.0"
"1574266160257","3063365.0"
"1574266160303","3059575.0"
"1574266160376","3050219.0"
"1574266160376","3051891.0"
"1574266160415","3057123.0"
"1574266160461","3060482.0"
"1574266160513","3047084.0"
"1574266160559","3049803.0"
"1574266160614","3041426.0"
"1574266160660","3013881.0"
"1574266160710","2996175.0"
"1574266160756","2993533.0"
"1574266160803","2992367.0"
"1574266160850","2987899.0"
"1574266160900","2984305.0"
"1574266160950","2979451.0"
"1574266160997","2980705.0"
"1574266161045","2984897.0"
"1574266161095","2989594.0"
"1574266161142","2996859.0"
"1574266161190","2999745.0"
"1574266161241","3005756.0"
"1574266161288","3014465.0"
"1574266161341","3022819.0"
"1574266161388","3030306.0"
"1574266161440","3033876.0"
"1574266161480","3027019.0"
"1574266161530","3014883.0"
"1574266161579","3008737.0"
"1574266161658","3006142.0"
"1574266161683","3006325.0"
"1574266161778","3007459.0"
"1574266161778","3012370.0"
"1574266161841","3003733.0"
"1574266161869","2993519.0"
"1574266161919","3001376.0"
"1574266161963","3043537.0"
"1574266162013","3043797.0"
"1574266162062","3042182.0"
"1574266162109","3050756.0"
"1574266162324","3085968.0"
"1574266162326","3102713.0"
"1574266162326","3072735.0"
"1574266162327","3098632.0"
"1574266162375","3076258.0"
"1574266162448","3064580.0"
"1574266162459","3083682.0"
"1574266162499","3105275.0"
"1574266162547","3112248.0"
"1574266162596","3247678.0"
"1574266162646","3201135.0"
"1574266162693","3192145.0"
"1574266162746","3165381.0"
"1574266162789","3146861.0"
"1574266162842","3149005.0"
"1574266162886","3134805.0"
"1574266162936","3131408.0"
"1574266162984","3142479.0"
"1574266163032","3092453.0"
"1574266163080","3177691.0"
"1574266163129","3139098.0"
"1574266163178","3156886.0"
"1574266163225","3152440.0"
"1574266163275","3138958.0"
"1574266163323","3140280.0"
"1574266163370","3145671.0"
"1574266163420","3152961.0"
"1574266163468","3160494.0"
"1574266163517","3164034.0"
"1574266163565","3170637.0"
"1574266163613","3174515.0"
"1574266163663","3178101.0"
"1574266163710","3186297.0"
"1574266163759","3193437.0"
"1574266163807","3191562.0"
"1574266163855","3194020.0"
"1574266163902","3201521.0"
"1574266163950","3205187.0"
"1574266163998","3204146.0"
"1574266164050","3200757.0"
"1574266164097","3198126.0"
"1574266164282","3197155.0"
"1574266164282","3199835.0"
"1574266164282","3200568.0"
"1574266164305","3199583.0"
"1574266164383","3205447.0"
"1574266164393","3207984.0"
"1574266164440","3210538.0"
"1574266164485","3213659.0"
"1574266164538","3212909.0"
"1574266164582","3214541.0"
"1574266164629","3221697.0"
"1574266164679","3226394.0"
"1574266164724","3234935.0"
"1574266164776","3237892.0"
"1574266164826","3243668.0"
"1574266164870","3251368.0"
"1574266164921","3258042.0"
"1574266164966","3258412.0"
"1574266165015","3251210.0"
"1574266165066","3239105.0"
"1574266165122","3242225.0"
"1574266165167","3237719.0"
"1574266165215","3242573.0"
"1574266165260","3244684.0"
"1574266165308","3240610.0"
"1574266165355","3234021.0"
"1574266165406","3238245.0"
"1574266165453","3238278.0"
"1574266165501","3240988.0"
"1574266165550","3239940.0"
"1574266165598","3239602.0"
"1574266165650","3240799.0"
"1574266165695","3242154.0"
"1574266165746","3242266.0"
"1574266165792","3246843.0"
"1574266165844","3250958.0"
"1574266165887","3252156.0"
"1574266165941","3241713.0"
"1574266165985","3234393.0"
"1574266166035","3230514.0"
"1574266166082","3227717.0"
"1574266166130","3226693.0"
"1574266166179","3225660.0"
"1574266166228","3221278.0"
"1574266166276","3218110.0"
"1574266166323","3216952.0"
"1574266166372","3216000.0"
"1574266166421","3217787.0"
"1574266166469","3221792.0"
"1574266166518","3222603.0"
"1574266166567","3226487.0"
"1574266166614","3228214.0"
"1574266166663","3238215.0"
"1574266166710","3241486.0"
"1574266166760","3240106.0"
"1574266166810","3222871.0"
"1574266166857","3210372.0"
"1574266166904","3203462.0"
"1574266166953","3199095.0"
"1574266167001","3198236.0"
"1574266167050","3195005.0"
"1574266167098","3176903.0"
"1574266167148","3142487.0"
"1574266167195","3159897.0"
"1574266167247","3219868.0"
"1574266167292","3192309.0"
"1574266167438","3204571.0"
"1574266167438","3212397.0"
"1574266167440","3183916.0"
"1574266167566","3192586.0"
"1574266167566","3167800.0"
"1574266167590","3183254.0"
"1574266167638","3225140.0"
"1574266167679","3239279.0"
"1574266167730","3250610.0"
"1574266167776","3267720.0"
"1574266167824","3283868.0"
"1574266167870","3302119.0"
"1574266167921","3323696.0"
"1574266167971","3347102.0"
"1574266168018","3365243.0"
"1574266168066","3385860.0"
"1574266168115","3411779.0"
"1574266168162","3435381.0"
"1574266168212","3460010.0"
"1574266168261","3477749.0"
"1574266168312","3493770.0"
"1574266168357","3503945.0"
"1574266168404","3513597.0"
"1574266168459","3522787.0"
"1574266168506","3534585.0"
"1574266168559","3548353.0"
"1574266168596","3564476.0"
"1574266168652","3584485.0"
"1574266168699","3595298.0"
"1574266168750","3607907.0"
"1574266168793","3621808.0"
"1574266168846","3632668.0"
"1574266168890","3647798.0"
"1574266168941","3657949.0"
"1574266168984","3658650.0"
"1574266169037","3659605.0"
"1574266169082","3669178.0"
"1574266169129","3675160.0"
"1574266169177","3680583.0"
"1574266169225","3687895.0"
"1574266169277","3693074.0"
"1574266169324","3697273.0"
"1574266169373","3700427.0"
"1574266169421","3701640.0"
"1574266169471","3702113.0"
"1574266169519","3707528.0"
"1574266169567","3712034.0"
"1574266169615","3702026.0"
"1574266169663","3687643.0"
"1574266169712","3675255.0"
"1574266169760","3667035.0"
"1574266169808","3658390.0"
"1574266169859","3652780.0"
"1574266169905","3644472.0"
"1574266169955","3634811.0"
"1574266170002","3626221.0"
"1574266170051","3616505.0"
"1574266170098","3608261.0"
"1574266170148","3601523.0"
"1574266170197","3594628.0"
"1574266170244","3587441.0"
"1574266170294","3587165.0"
"1574266170347","3586338.0"
"1574266170392","3584989.0"
"1574266170440","3585038.0"
"1574266170486","3584233.0"
"1574266170537","3582547.0"
"1574266170581","3579513.0"
"1574266170631","3556587.0"
"1574266170680","3528990.0"
"1574266170727","3509948.0"
"1574266170777","3492352.0"
"1574266170956","3479395.0"
"1574266170956","3466589.0"
"1574266170956","3450254.0"
"1574266170995","3435847.0"
"1574266171053","3427777.0"
"1574266171092","3422063.0"
"1574266171126","3420330.0"
"1574266171254","3418477.0"
"1574266171255","3414609.0"
"1574266171274","3407997.0"
"1574266171384","3401912.0"
"1574266171384","3400163.0"
"1574266171439","3393741.0"
"1574266171458","3388129.0"
"1574266171506","3385348.0"
"1574266171556","3382810.0"
"1574266171604","3383291.0"
"1574266171648","3373661.0"
"1574266171698","3337992.0"
"1574266171745","3306170.0"
"1574266171797","3290235.0"
"1574266171848","3276633.0"
"1574266171889","3268051.0"
"1574266171941","3254851.0"
"1574266171988","3241760.0"
"1574266172038","3229435.0"
"1574266172088","3222769.0"
"1574266172145","3221436.0"
"1574266172185","3223785.0"
"1574266172231","3230782.0"
"1574266172282","3230862.0"
"1574266172327","3234259.0"
"1574266172378","3233438.0"
"1574266172427","3231264.0"
"1574266172480","3230673.0"
"1574266172520","3210040.0"
"1574266172574","3181734.0"
"1574266172615","3161291.0"
"1574266172664","3150754.0"
"1574266172720","3148871.0"
"1574266172767","3144545.0"
"1574266172811","3138641.0"
"1574266172860","3136828.0"
"1574266172907","3138389.0"
"1574266172960","3140526.0"
"1574266173003","3137672.0"
"1574266173053","3136820.0"
"1574266173101","3134726.0"
"1574266173149","3132306.0"
"1574266173198","3135418.0"
"1574266173246","3136593.0"
"1574266173296","3115481.0"
"1574266173344","3091744.0"
"1574266173396","3080033.0"
"1574266173441","3075974.0"
"1574266173493","3075445.0"
"1574266173544","3071648.0"
"1574266173590","3068938.0"
"1574266173639","3067865.0"
"1574266173681","3065059.0"
"1574266173737","3066888.0"
"1574266173777","3069433.0"
"1574266173827","3070466.0"
"1574266173879","3075453.0"
"1574266173922","3082168.0"
"1574266173972","3090797.0"
"1574266174020","3086362.0"
"1574266174068","3069513.0"
"1574266174120","3062562.0"
"1574266174258","3059795.0"
"1574266174260","3057046.0"
"1574266174278","3060150.0"
"1574266174376","3051450.0"
"1574266174379","3048708.0"
"1574266174412","3043978.0"
"1574266174460","3042151.0"
"1574266174509","3043348.0"
"1574266174559","3044106.0"
"1574266174602","3055374.0"
"1574266174655","3065234.0"
"1574266174698","3079757.0"
"1574266174750","3081530.0"
"1574266174795","3052806.0"
"1574266174936","3037035.0"
"1574266174936","3038738.0"
"1574266174957","3040881.0"
"1574266175062","3049770.0"
"1574266175063","3034144.0"
"1574266175092","3027673.0"
"1574266175133","3030227.0"
"1574266175180","3031623.0"
"1574266175229","3036044.0"
"1574266175278","3038919.0"
"1574266175326","3039282.0"
"1574266175375","3043451.0"
"1574266175427","3043197.0"
"1574266175476","3036942.0"
"1574266175518","3018548.0"
"1574266175572","3008973.0"
"1574266175624","3009720.0"
"1574266175664","3012644.0"
"1574266175714","3022409.0"
"1574266175762","3023504.0"
"1574266175810","3025789.0"
"1574266175859","3034089.0"
"1574266175907","3044886.0"
"1574266176041","3058889.0"
"1574266176041","3070348.0"
"1574266176063","3077298.0"
"1574266176180","3085842.0"
"1574266176180","3117127.0"
