"1572978223006","4200988.0"
"1572978223062","4156064.0"
"1572978223105","4153098.0"
"1572978223154","4123054.0"
"1572978223208","4101306.0"
"1572978223250","3996097.0"
"1572978223300","3839461.0"
"1572978223348","3672972.0"
"1572978223396","3552707.0"
"1572978223484","3484001.0"
"1572978223534","3421616.0"
"1572978223548","3352496.0"
"1572978223634","3288222.0"
"1572978223645","3221723.0"
"1572978223686","3166329.0"
"1572978223732","3113132.0"
"1572978223787","3076136.0"
"1572978223830","3038023.0"
"1572978223880","2997603.0"
"1572978223928","2948057.0"
"1572978223976","2920718.0"
"1572978224026","2858609.0"
"1572978224079","2792102.0"
"1572978224123","2747666.0"
"1572978224169","2718785.0"
"1572978224217","2703262.0"
"1572978224265","2694954.0"
"1572978224314","2656814.0"
"1572978224367","2646849.0"
"1572978224411","2627372.0"
"1572978224459","2621125.0"
"1572978224508","2630198.0"
"1572978224557","2624621.0"
"1572978224609","2629057.0"
"1572978224650","2611817.0"
"1572978224703","2605102.0"
"1572978224750","2580067.0"
"1572978224804","2533961.0"
"1572978224846","2505348.0"
"1572978224900","2491613.0"
"1572978224951","2488807.0"
"1572978224992","2491995.0"
"1572978225046","2493261.0"
"1572978225087","2504137.0"
"1572978225143","2507243.0"
"1572978225187","2514039.0"
"1572978225239","2508653.0"
"1572978225287","2517495.0"
"1572978225335","2510705.0"
"1572978225384","2512629.0"
"1572978225428","2440401.0"
"1572978225475","2391200.0"
"1572978225526","2378567.0"
"1572978225575","2378628.0"
"1572978225620","2359986.0"
"1572978225669","2341808.0"
"1572978225717","2343834.0"
"1572978225766","2350569.0"
"1572978225813","2350679.0"
"1572978225864","2349234.0"
"1572978225911","2349261.0"
"1572978225959","2351601.0"
"1572978226013","2361908.0"
"1572978226060","2383809.0"
"1572978226111","2410800.0"
"1572978226150","2442652.0"
"1572978226199","2460472.0"
"1572978226247","2482312.0"
"1572978226297","2504643.0"
"1572978226350","2508023.0"
"1572978226393","2494864.0"
"1572978226441","2475166.0"
"1572978226491","2459796.0"
"1572978226539","2450090.0"
"1572978226587","2443261.0"
"1572978226634","2450474.0"
"1572978226690","2454294.0"
"1572978226733","2463737.0"
"1572978226781","2460261.0"
"1572978226827","2436081.0"
"1572978226877","2435561.0"
"1572978226927","2451303.0"
"1572978226973","2493645.0"
"1572978227023","2549792.0"
"1572978227072","2604336.0"
"1572978227118","2662166.0"
"1572978227167","2725465.0"
"1572978227215","2785531.0"
"1572978227264","2840098.0"
"1572978227312","2889270.0"
"1572978227362","2938469.0"
"1572978227409","2985069.0"
"1572978227457","3027876.0"
"1572978227508","3071567.0"
"1572978227554","3125085.0"
"1572978227607","3177597.0"
"1572978227650","3227763.0"
"1572978227700","3277230.0"
"1572978227749","3321756.0"
"1572978227796","3364843.0"
"1572978227846","3406289.0"
"1572978227894","3441877.0"
"1572978227943","3473749.0"
"1572978227990","3506297.0"
"1572978228040","3538594.0"
"1572978228088","3573250.0"
"1572978228136","3605142.0"
"1572978228185","3631244.0"
"1572978228232","3655074.0"
"1572978228282","3683586.0"
"1572978228330","3706402.0"
"1572978228378","3728932.0"
"1572978228426","3746541.0"
"1572978228474","3768167.0"
"1572978228520","3785490.0"
"1572978228574","3805029.0"
"1572978228619","3822336.0"
"1572978228669","3838537.0"
"1572978228714","3852442.0"
"1572978228766","3867225.0"
"1572978228813","3871270.0"
"1572978228863","3871776.0"
"1572978228909","3877443.0"
"1572978228958","3887591.0"
"1572978229009","3897988.0"
"1572978229060","3913565.0"
"1572978229107","3921668.0"
"1572978229151","3928962.0"
"1572978229204","3939618.0"
"1572978229250","3945790.0"
"1572978229297","3946365.0"
"1572978229345","3951780.0"
"1572978229394","3962374.0"
"1572978229443","3974432.0"
"1572978229490","3976096.0"
"1572978229538","3981769.0"
"1572978229587","3992096.0"
"1572978229635","3991610.0"
"1572978229684","3998811.0"
"1572978229731","3992665.0"
"1572978229783","4001657.0"
"1572978229829","4006538.0"
"1572978229882","4012867.0"
"1572978229925","4025760.0"
"1572978229975","4016207.0"
"1572978230026","4046031.0"
"1572978230078","4011859.0"
"1572978230123","3980123.0"
"1572978230172","3942735.0"
"1572978230220","3878308.0"
"1572978230292","3816994.0"
"1572978230339","3855232.0"
"1572978230364","4150542.0"
"1572978230473","4412046.0"
"1572978230497","4393711.0"
"1572978230523","4344254.0"
"1572978230552","4301153.0"
"1572978230605","4293412.0"
"1572978230655","4296378.0"
"1572978230697","4309892.0"
"1572978230746","4333021.0"
"1572978230794","4353227.0"
"1572978230844","4380353.0"
"1572978230895","4401113.0"
"1572978230940","4418383.0"
"1572978230989","4412149.0"
"1572978231035","4395808.0"
"1572978231086","4384418.0"
"1572978231137","4381618.0"
"1572978231183","4388171.0"
"1572978231233","4392435.0"
"1572978231280","4382614.0"
"1572978231328","4355803.0"
"1572978231376","4324776.0"
"1572978231427","4317937.0"
"1572978231474","4301630.0"
"1572978231529","4297843.0"
"1572978231576","4314729.0"
"1572978231618","4288662.0"
"1572978231666","4279984.0"
"1572978231716","4279533.0"
"1572978231763","4246611.0"
"1572978231811","4219060.0"
"1572978231860","4228163.0"
"1572978231908","4244217.0"
"1572978231956","4255973.0"
"1572978232006","4275165.0"
"1572978232055","4283044.0"
"1572978232108","4286547.0"
"1572978232147","4271152.0"
"1572978232196","4257056.0"
"1572978232248","4249626.0"
"1572978232297","4225007.0"
"1572978232342","4194527.0"
"1572978232391","4176253.0"
"1572978232439","4185366.0"
"1572978232486","4242397.0"
"1572978232534","4257160.0"
"1572978232584","4240274.0"
"1572978232635","4216876.0"
"1572978232680","4197120.0"
"1572978232728","4139369.0"
"1572978232778","4087035.0"
"1572978232825","4071424.0"
"1572978232875","4346109.0"
"1572978232928","4674535.0"
"1572978232972","5102037.0"
"1572978233020","5354447.0"
"1572978233130","5253837.0"
"1572978233130","5009852.0"
"1572978233167","4937795.0"
"1572978233324","4889573.0"
"1572978233324","4890112.0"
"1572978233324","4902977.0"
"1572978233396","4886081.0"
"1572978233430","4847242.0"
"1572978233456","4834799.0"
"1572978233503","4832788.0"
"1572978233550","4837560.0"
"1572978233604","4840490.0"
"1572978233647","4829748.0"
"1572978233696","4826097.0"
"1572978233745","4820175.0"
"1572978233799","4824147.0"
"1572978233845","4830208.0"
"1572978233890","4823035.0"
"1572978233938","4814474.0"
"1572978233986","4809443.0"
"1572978234035","4821605.0"
"1572978234083","4843672.0"
"1572978234132","4863335.0"
"1572978234180","4853534.0"
"1572978234228","4806011.0"
"1572978234277","4759190.0"
"1572978234325","4741225.0"
"1572978234376","4737816.0"
"1572978234427","4724352.0"
"1572978234469","4699136.0"
"1572978234523","4656125.0"
"1572978234568","4601071.0"
"1572978234616","4566944.0"
"1572978234666","4710708.0"
"1572978234713","5857848.0"
"1572978234761","5726366.0"
"1572978234809","5516625.0"
"1572978234857","5209870.0"
"1572978234905","4932203.0"
"1572978234965","4832349.0"
"1572978235003","4804821.0"
"1572978235049","4747158.0"
"1572978235104","4689024.0"
"1572978235147","4662706.0"
"1572978235200","4655534.0"
"1572978235245","4651784.0"
"1572978235291","4633709.0"
"1572978235343","4609643.0"
"1572978235390","4598081.0"
"1572978235439","4589149.0"
"1572978235487","4582298.0"
"1572978235534","4583917.0"
"1572978235584","4581597.0"
"1572978235629","4572984.0"
"1572978235679","4586918.0"
"1572978235727","4619026.0"
"1572978235786","4627179.0"
"1572978235824","4629948.0"
"1572978235871","4569534.0"
"1572978235924","4502698.0"
"1572978235968","4483474.0"
"1572978236034","4476121.0"
"1572978236071","4470930.0"
"1572978236142","4464188.0"
"1572978236177","4451336.0"
"1572978236210","4442093.0"
"1572978236259","4443363.0"
"1572978236316","4446264.0"
"1572978236363","4448075.0"
"1572978236403","4452825.0"
"1572978236451","4454656.0"
"1572978236502","4457547.0"
"1572978236549","4462608.0"
"1572978236614","4478642.0"
"1572978236645","4506099.0"
"1572978236694","4544558.0"
"1572978236744","4567474.0"
"1572978236790","4541598.0"
"1572978236843","4490455.0"
"1572978236888","4478673.0"
"1572978236935","4459678.0"
"1572978236985","4408515.0"
"1572978237034","4346270.0"
"1572978237085","4273873.0"
"1572978237135","4195933.0"
"1572978237184","4078624.0"
"1572978237235","3965756.0"
"1572978237276","3860270.0"
"1572978237325","3777210.0"
"1572978237375","3677377.0"
"1572978237427","3594177.0"
"1572978237506","3503555.0"
"1572978237518","3413042.0"
"1572978237603","3332313.0"
"1572978237618","3222525.0"
"1572978237668","3163771.0"
"1572978237709","3183995.0"
"1572978237758","3211400.0"
"1572978237805","3270251.0"
"1572978237855","3247634.0"
"1572978237904","3139622.0"
"1572978237951","3027521.0"
"1572978238001","2919625.0"
"1572978238049","2878427.0"
"1572978238098","2852321.0"
"1572978238147","2778593.0"
"1572978238195","2716653.0"
"1572978238243","2649120.0"
"1572978238290","2366622.0"
"1572978238340","2138953.0"
"1572978238388","1723264.0"
"1572978238437","1667397.0"
"1572978238487","1485689.0"
"1572978238533","1639521.0"
"1572978238584","1692054.0"
"1572978238631","1722351.0"
"1572978238679","1747886.0"
"1572978238727","1782119.0"
"1572978238774","1703887.0"
"1572978238823","1673795.0"
"1572978238876","1690798.0"
"1572978238920","1684100.0"
"1572978238968","1694319.0"
"1572978239017","1679559.0"
"1572978239066","1669796.0"
"1572978239113","1667009.0"
"1572978239167","1639446.0"
"1572978239209","1612448.0"
"1572978239259","1608565.0"
"1572978239306","1605926.0"
"1572978239355","1598799.0"
"1572978239407","1595101.0"
"1572978239452","1682629.0"
"1572978239501","1737392.0"
"1572978239548","1760056.0"
"1572978239599","1754099.0"
"1572978239675","1762196.0"
"1572978239702","1770124.0"
"1572978239751","1763809.0"
"1572978239797","1774490.0"
"1572978239847","1791699.0"
"1572978239887","1830664.0"
"1572978239939","1847877.0"
"1572978239988","1871274.0"
"1572978240033","1939319.0"
"1572978240084","1923673.0"
"1572978240130","1894018.0"
"1572978240179","1883016.0"
"1572978240228","1867046.0"
"1572978240276","1849057.0"
"1572978240327","1847887.0"
"1572978240371","1863554.0"
"1572978240421","1868881.0"
"1572978240468","1843265.0"
"1572978240525","1813109.0"
"1572978240568","1851619.0"
"1572978240621","1855898.0"
"1572978240666","1898918.0"
"1572978240710","1949667.0"
"1572978240764","2053152.0"
"1572978240806","2114169.0"
"1572978240863","2168888.0"
"1572978240907","2173015.0"
"1572978240955","2162576.0"
"1572978241008","2164707.0"
"1572978241048","2214046.0"
"1572978241096","2220590.0"
"1572978241145","2178096.0"
"1572978241193","2125789.0"
"1572978241243","2074008.0"
"1572978241290","2035065.0"
"1572978241339","2036998.0"
"1572978241389","2041041.0"
"1572978241436","2059280.0"
"1572978241488","2112530.0"
"1572978241532","2137337.0"
"1572978241584","2171032.0"
"1572978241630","2148142.0"
"1572978241685","2135722.0"
"1572978241727","2129154.0"
"1572978241774","2084333.0"
"1572978241828","2033777.0"
"1572978241876","1957571.0"
"1572978241926","1924575.0"
"1572978241966","1898556.0"
"1572978242023","1862580.0"
"1572978242072","1831074.0"
"1572978242118","1839949.0"
"1572978242169","1930691.0"
"1572978242209","2310593.0"
"1572978242265","2633831.0"
"1572978242310","2912808.0"
"1572978242361","3055268.0"
"1572978242404","3133687.0"
"1572978242450","2963933.0"
"1572978242500","2853461.0"
"1572978242547","2786127.0"
"1572978242595","2715883.0"
"1572978242645","2720930.0"
"1572978242690","3015740.0"
"1572978242741","3282423.0"
"1572978242790","3397101.0"
"1572978242845","3370729.0"
"1572978242894","3270095.0"
"1572978242942","3390752.0"
"1572978242987","3479165.0"
"1572978243036","3551823.0"
"1572978243089","3609307.0"
"1572978243128","3592478.0"
"1572978243183","3401102.0"
"1572978243232","3370934.0"
"1572978243278","3409682.0"
"1572978243326","3516430.0"
"1572978243371","3652689.0"
"1572978243422","3716569.0"
"1572978243469","3703732.0"
"1572978243515","3666348.0"
"1572978243564","3680142.0"
"1572978243612","3627261.0"
"1572978243660","3579948.0"
"1572978243708","3664146.0"
"1572978243757","3652626.0"
"1572978243807","3560352.0"
"1572978243854","3547367.0"
"1572978243907","3516127.0"
"1572978243949","3508339.0"
"1572978244006","3445782.0"
"1572978244053","3406163.0"
"1572978244096","3330757.0"
"1572978244148","3223810.0"
"1572978244194","3057588.0"
"1572978244245","2952978.0"
"1572978244296","2885426.0"
"1572978244344","2786062.0"
"1572978244391","2711978.0"
"1572978244437","2648921.0"
"1572978244491","2604288.0"
"1572978244531","2538814.0"
"1572978244590","2496184.0"
"1572978244632","2458016.0"
"1572978244675","2426006.0"
"1572978244725","2392852.0"
"1572978244772","2331753.0"
"1572978244822","2282469.0"
"1572978244871","2233996.0"
"1572978244916","2185630.0"
"1572978244965","2152476.0"
"1572978245014","2128384.0"
"1572978245062","2120472.0"
"1572978245112","2104348.0"
"1572978245165","2088033.0"
"1572978245215","2075274.0"
"1572978245258","2053987.0"
"1572978245309","2012466.0"
"1572978245352","1959371.0"
"1572978245408","1938627.0"
"1572978245455","1949746.0"
"1572978245501","1937911.0"
"1572978245551","1928645.0"
"1572978245594","1895147.0"
"1572978245645","1877558.0"
"1572978245695","1864135.0"
"1572978245743","1847243.0"
"1572978245787","1843047.0"
"1572978245838","1842259.0"
"1572978245885","1818863.0"
"1572978245933","1812929.0"
"1572978245981","1801675.0"
"1572978246029","1805984.0"
"1572978246079","1808495.0"
"1572978246127","1844051.0"
"1572978246174","1838549.0"
"1572978246223","1840816.0"
"1572978246271","1873867.0"
"1572978246325","1906858.0"
"1572978246374","1927308.0"
"1572978246415","1939002.0"
"1572978246470","1908043.0"
"1572978246515","1901226.0"
"1572978246566","1915107.0"
"1572978246611","1914294.0"
"1572978246661","1936763.0"
"1572978246714","1938527.0"
"1572978246753","2039883.0"
"1572978246806","2198942.0"
"1572978246857","2288621.0"
"1572978246899","2352944.0"
"1572978246954","2315877.0"
"1572978246995","2326769.0"
"1572978247052","2324286.0"
"1572978247094","2325926.0"
"1572978247141","2407017.0"
"1572978247189","2489406.0"
"1572978247237","2539550.0"
"1572978247287","2738176.0"
"1572978247333","2945403.0"
"1572978247384","3154499.0"
"1572978247431","3236709.0"
"1572978247479","3327924.0"
"1572978247528","3284536.0"
"1572978247577","3200828.0"
"1572978247630","3103018.0"
"1572978247676","3016651.0"
"1572978247727","2950190.0"
"1572978247777","2888301.0"
"1572978247823","2891956.0"
"1572978247873","2876718.0"
"1572978247914","2895154.0"
"1572978247962","2923755.0"
"1572978248018","2944353.0"
"1572978248064","2928404.0"
"1572978248108","3005222.0"
"1572978248157","2972023.0"
"1572978248206","2950725.0"
"1572978248255","2895853.0"
"1572978248304","2872114.0"
"1572978248350","2919015.0"
"1572978248398","2938825.0"
"1572978248448","2951694.0"
"1572978248495","3015984.0"
"1572978248544","3058421.0"
"1572978248592","3059019.0"
"1572978248645","3101895.0"
"1572978248691","3117915.0"
"1572978248737","3139145.0"
"1572978248786","3175503.0"
"1572978248838","3218222.0"
"1572978248887","3245854.0"
"1572978248937","3232280.0"
"1572978248987","3268457.0"
"1572978249034","3274030.0"
"1572978249077","3311173.0"
"1572978249129","3321055.0"
"1572978249175","3272124.0"
"1572978249226","3279835.0"
"1572978249277","3305238.0"
"1572978249316","3345861.0"
"1572978249366","3203590.0"
"1572978249415","3124465.0"
"1572978249464","3103794.0"
"1572978249511","3020184.0"
"1572978249560","2896662.0"
"1572978249620","2749748.0"
"1572978249656","2596691.0"
"1572978249706","2555904.0"
"1572978249753","2510061.0"
"1572978249806","2492068.0"
"1572978249858","2442290.0"
"1572978249897","2435555.0"
"1572978249954","2400629.0"
"1572978249997","2395536.0"
"1572978250045","2403153.0"
"1572978250092","2396403.0"
"1572978250139","2353277.0"
"1572978250190","2306730.0"
"1572978250238","2250504.0"
"1572978250286","2225255.0"
"1572978250342","2225095.0"
"1572978250385","2261170.0"
"1572978250437","2267335.0"
"1572978250483","2311655.0"
"1572978250535","2297116.0"
"1572978250580","2304032.0"
"1572978250629","2266256.0"
"1572978250679","2209024.0"
"1572978250722","2191776.0"
"1572978250768","2144308.0"
"1572978250817","2095752.0"
"1572978250865","2065808.0"
"1572978250914","2049511.0"
"1572978250964","2076121.0"
"1572978251011","2065745.0"
"1572978251061","2062896.0"
"1572978251108","2067712.0"
"1572978251156","2060657.0"
"1572978251205","2046055.0"
"1572978251251","2069124.0"
"1572978251303","2074329.0"
"1572978251350","2092157.0"
"1572978251400","2051785.0"
"1572978251445","1986427.0"
"1572978251500","1948117.0"
"1572978251545","1950019.0"
"1572978251591","1970541.0"
"1572978251640","2044643.0"
"1572978251695","2140891.0"
"1572978251742","2185774.0"
"1572978251784","2185608.0"
"1572978251831","2193503.0"
"1572978251879","2207099.0"
"1572978251935","2219316.0"
"1572978251984","2331887.0"
"1572978252030","2422056.0"
"1572978252080","2428848.0"
"1572978252127","2403807.0"
"1572978252177","2374631.0"
"1572978252220","2319175.0"
"1572978252272","2344126.0"
"1572978252322","2316470.0"
"1572978252369","2284663.0"
"1572978252419","2251158.0"
"1572978252461","2264092.0"
"1572978252515","2280106.0"
"1572978252563","2316346.0"
"1572978252603","2339669.0"
"1572978252653","2298193.0"
"1572978252704","2291352.0"
"1572978252749","2273340.0"
"1572978252801","2214656.0"
"1572978252846","2207258.0"
"1572978252895","2246670.0"
"1572978252944","2246718.0"
"1572978252991","2240552.0"
"1572978253041","2212658.0"
"1572978253088","2207051.0"
"1572978253141","2217291.0"
"1572978253188","2219272.0"
"1572978253241","2248978.0"
"1572978253281","2303557.0"
"1572978253337","2281415.0"
"1572978253385","2243271.0"
"1572978253432","2216730.0"
"1572978253474","2254785.0"
"1572978253521","2298296.0"
"1572978253578","2298648.0"
"1572978253625","2304662.0"
"1572978253672","2296068.0"
"1572978253722","2308437.0"
"1572978253764","2291758.0"
"1572978253810","2275346.0"
"1572978253863","2245371.0"
"1572978253908","2228882.0"
"1572978253958","2224542.0"
"1572978254006","2225974.0"
"1572978254054","2249488.0"
"1572978254104","2249900.0"
"1572978254150","2266380.0"
"1572978254200","2307208.0"
"1572978254248","2303057.0"
"1572978254295","2319095.0"
"1572978254344","2310966.0"
"1572978254400","2309471.0"
"1572978254444","2292579.0"
"1572978254494","2269318.0"
"1572978254545","2244727.0"
"1572978254585","2228807.0"
"1572978254641","2215958.0"
"1572978254684","2210133.0"
"1572978254735","2201122.0"
"1572978254785","2194344.0"
"1572978254832","2170973.0"
"1572978254882","2099063.0"
"1572978254925","2174764.0"
"1572978254978","2369548.0"
"1572978255028","2649878.0"
"1572978255074","2890512.0"
"1572978255115","2942348.0"
"1572978255167","3018207.0"
"1572978255215","3139945.0"
"1572978255266","3271373.0"
"1572978255311","3357470.0"
"1572978255359","3371802.0"
"1572978255408","3360585.0"
"1572978255456","3288344.0"
"1572978255508","3293635.0"
"1572978255553","3389620.0"
"1572978255603","3465951.0"
"1572978255649","3480039.0"
"1572978255699","3448543.0"
"1572978255747","3452395.0"
"1572978255796","3382686.0"
"1572978255850","3334320.0"
"1572978255896","3282366.0"
"1572978255947","3237359.0"
"1572978255987","3165112.0"
"1572978256044","3109286.0"
"1572978256086","3063996.0"
"1572978256134","3041566.0"
"1572978256188","3012484.0"
"1572978256229","2969975.0"
"1572978256286","2932610.0"
"1572978256326","2877161.0"
"1572978256375","2813602.0"
"1572978256430","2775962.0"
"1572978256471","2742826.0"
"1572978256520","2869288.0"
"1572978256569","3069062.0"
"1572978256617","3219592.0"
"1572978256665","3310973.0"
"1572978256712","3177807.0"
"1572978256763","3097624.0"
"1572978256811","3059699.0"
"1572978256859","3053389.0"
"1572978256908","3066642.0"
"1572978256956","3062217.0"
"1572978257009","3053633.0"
"1572978257057","3081705.0"
"1572978257102","3111982.0"
"1572978257149","3126643.0"
"1572978257205","3175771.0"
"1572978257248","3243587.0"
"1572978257300","3380888.0"
"1572978257346","3499150.0"
"1572978257395","3554027.0"
"1572978257447","3600607.0"
"1572978257495","3635295.0"
"1572978257543","3669172.0"
"1572978257585","3673187.0"
"1572978257633","3685388.0"
"1572978257686","3718932.0"
"1572978257734","3740881.0"
"1572978257779","3746549.0"
"1572978257828","3745722.0"
"1572978257875","3728499.0"
"1572978257925","3718322.0"
"1572978257972","3705094.0"
"1572978258023","3686215.0"
"1572978258070","3656433.0"
"1572978258118","3604736.0"
"1572978258167","3569379.0"
"1572978258221","3469033.0"
"1572978258266","3383964.0"
"1572978258316","3337049.0"
"1572978258367","3301489.0"
"1572978258407","3320244.0"
"1572978258455","3245001.0"
"1572978258509","3230077.0"
"1572978258557","3204532.0"
"1572978258601","3216400.0"
"1572978258648","3191651.0"
"1572978258704","3253168.0"
"1572978258750","3173262.0"
"1572978258794","3110172.0"
"1572978258844","3067219.0"
"1572978258891","3097201.0"
"1572978258945","3101271.0"
"1572978258988","3128659.0"
"1572978259036","3077627.0"
"1572978259085","3045290.0"
"1572978259132","3103609.0"
"1572978259182","3067983.0"
"1572978259230","3144320.0"
"1572978259277","3183028.0"
"1572978259326","3194528.0"
"1572978259374","3150260.0"
"1572978259426","3049496.0"
"1572978259471","2982200.0"
"1572978259527","2996906.0"
"1572978259570","2962257.0"
"1572978259616","2939044.0"
"1572978259671","2908336.0"
"1572978259717","2910880.0"
"1572978259766","2893106.0"
"1572978259811","2878606.0"
"1572978259864","2837869.0"
"1572978259912","2770220.0"
"1572978259961","2686699.0"
"1572978260005","2641145.0"
"1572978260058","2614414.0"
"1572978260099","2587483.0"
"1572978260150","2562157.0"
"1572978260203","2525876.0"
"1572978260244","2493179.0"
"1572978260291","2458055.0"
"1572978260339","2426160.0"
"1572978260389","2397295.0"
"1572978260438","2352841.0"
"1572978260487","2309156.0"
"1572978260534","2315887.0"
"1572978260584","2325544.0"
"1572978260632","2400635.0"
"1572978260688","2499537.0"
"1572978260731","2541468.0"
"1572978260783","2524194.0"
"1572978260829","2503814.0"
"1572978260874","2488921.0"
"1572978260925","2477287.0"
"1572978260971","2466190.0"
"1572978261025","2429513.0"
"1572978261072","2383676.0"
"1572978261122","2369684.0"
"1572978261168","2346439.0"
"1572978261210","2315962.0"
"1572978261261","2337623.0"
"1572978261308","2292423.0"
"1572978261357","2253511.0"
"1572978261407","2197940.0"
"1572978261453","2241733.0"
"1572978261504","2296905.0"
"1572978261550","2328742.0"
"1572978261598","2327753.0"
"1572978261648","2421036.0"
"1572978261702","2500595.0"
"1572978261751","2580933.0"
"1572978261793","2623410.0"
"1572978261847","2679944.0"
"1572978261896","2658598.0"
"1572978261945","2640881.0"
"1572978261993","2589756.0"
"1572978262034","2563590.0"
"1572978262086","2513842.0"
"1572978262134","2489364.0"
"1572978262187","2476637.0"
"1572978262235","2444665.0"
"1572978262276","2412040.0"
"1572978262325","2404134.0"
"1572978262374","2376196.0"
"1572978262424","2398856.0"
"1572978262471","2409207.0"
"1572978262519","2531000.0"
"1572978262568","2581459.0"
"1572978262615","2634307.0"
"1572978262665","2553758.0"
"1572978262714","2485859.0"
"1572978262769","2442032.0"
"1572978262807","2417182.0"
"1572978262856","2397019.0"
"1572978262906","2416759.0"
"1572978262955","2409778.0"
"1572978263004","2384453.0"
"1572978263050","2350671.0"
"1572978263099","2309934.0"
"1572978263147","2255526.0"
"1572978263196","2215289.0"
"1572978263252","2195827.0"
"1572978263294","2163785.0"
"1572978263345","2140231.0"
"1572978263395","2117865.0"
"1572978263435","2091987.0"
"1572978263491","2064684.0"
"1572978263534","2045921.0"
"1572978263583","2026061.0"
"1572978263631","1983837.0"
"1572978263679","1962477.0"
"1572978263727","1945740.0"
"1572978263776","1926178.0"
"1572978263822","1894989.0"
"1572978263873","1862330.0"
"1572978263919","1837633.0"
"1572978263971","1817283.0"
"1572978264015","1799925.0"
"1572978264068","1779334.0"
"1572978264115","1754640.0"
"1572978264162","1732457.0"
"1572978264211","1718999.0"
"1572978264263","1743445.0"
"1572978264311","1779537.0"
"1572978264355","1794962.0"
"1572978264412","1810373.0"
"1572978264459","1833138.0"
"1572978264506","1869281.0"
"1572978264549","1885023.0"
"1572978264598","1888396.0"
"1572978264647","1921594.0"
"1572978264695","1927361.0"
"1572978264743","1972167.0"
"1572978264791","2013663.0"
"1572978264839","2076227.0"
"1572978264888","2155227.0"
"1572978264935","2250077.0"
"1572978264991","2334061.0"
"1572978265039","2243360.0"
"1572978265085","2177627.0"
"1572978265129","2175110.0"
"1572978265184","2158086.0"
"1572978265234","2129180.0"
"1572978265278","2124306.0"
"1572978265324","2101000.0"
"1572978265371","2077484.0"
"1572978265420","2128298.0"
"1572978265469","2175144.0"
"1572978265517","2134932.0"
"1572978265562","2087893.0"
"1572978265621","2075375.0"
"1572978265664","2075389.0"
"1572978265716","2070966.0"
"1572978265761","2073333.0"
"1572978265805","2062982.0"
"1572978265860","2052890.0"
"1572978265909","2039927.0"
"1572978265951","2059245.0"
"1572978265999","2069599.0"
"1572978266047","2071986.0"
"1572978266097","2064690.0"
"1572978266145","2053707.0"
"1572978266192","2074760.0"
"1572978266242","2094224.0"
"1572978266289","2093994.0"
"1572978266338","2085499.0"
"1572978266393","2073939.0"
"1572978266441","2064408.0"
"1572978266487","2061277.0"
"1572978266537","2053926.0"
"1572978266585","2053410.0"
"1572978266637","2060954.0"
"1572978266680","2081156.0"
"1572978266729","2156525.0"
"1572978266772","2222461.0"
"1572978266824","2269927.0"
"1572978266876","2307397.0"
"1572978266919","2331530.0"
"1572978266971","2312775.0"
"1572978267022","2357178.0"
"1572978267067","2484096.0"
"1572978267117","2502091.0"
"1572978267159","2481168.0"
"1572978267209","2439523.0"
"1572978267258","2399240.0"
"1572978267305","2360254.0"
"1572978267354","2297339.0"
"1572978267404","2222189.0"
"1572978267450","2160264.0"
"1572978267500","2112274.0"
"1572978267548","2069376.0"
"1572978267597","2027294.0"
"1572978267645","1988280.0"
"1572978267698","1942440.0"
"1572978267742","1911094.0"
"1572978267789","1898057.0"
"1572978267840","1882739.0"
"1572978267888","1875602.0"
"1572978267936","1880376.0"
"1572978267989","1882309.0"
"1572978268037","1867284.0"
"1572978268080","1845290.0"
"1572978268134","1830141.0"
"1572978268176","1817014.0"
"1572978268231","1812071.0"
"1572978268279","1808004.0"
"1572978268328","1796398.0"
"1572978268376","1784624.0"
"1572978268420","1774577.0"
"1572978268467","1766800.0"
"1572978268515","1758354.0"
"1572978268564","1750087.0"
"1572978268611","1740814.0"
"1572978268659","1730629.0"
"1572978268708","1705583.0"
"1572978268757","1683114.0"
"1572978268805","1670989.0"
"1572978268852","1662888.0"
"1572978268901","1655974.0"
"1572978268956","1645889.0"
"1572978269002","1636368.0"
"1572978269051","1628160.0"
"1572978269095","1621418.0"
"1572978269143","1615156.0"
"1572978269198","1611406.0"
"1572978269242","1609845.0"
"1572978269294","1607111.0"
"1572978269343","1598092.0"
"1572978269390","1576998.0"
"1572978269437","1559578.0"
"1572978269489","1545201.0"
"1572978269536","1539681.0"
"1572978269585","1540228.0"
"1572978269628","1536325.0"
"1572978269682","1531538.0"
"1572978269723","1531219.0"
"1572978269779","1532862.0"
"1572978269822","1536394.0"
"1572978269866","1541792.0"
"1572978269917","1544917.0"
"1572978269966","1547467.0"
"1572978270013","1540429.0"
"1572978270064","1528610.0"
"1572978270110","1520668.0"
"1572978270159","1519524.0"
"1572978270207","1523366.0"
"1572978270255","1523598.0"
"1572978270304","1523112.0"
"1572978270358","1521574.0"
"1572978270404","1522608.0"
"1572978270450","1525965.0"
"1572978270503","1529715.0"
"1572978270545","1532383.0"
"1572978270594","1534309.0"
"1572978270645","1531662.0"
"1572978270696","1521495.0"
"1572978270745","1514317.0"
"1572978270794","1512303.0"
"1572978270842","1510800.0"
"1572978270885","1508154.0"
"1572978270931","1501062.0"
"1572978270988","1492417.0"
"1572978271032","1488780.0"
"1572978271077","1490165.0"
"1572978271125","1490488.0"
"1572978271174","1488591.0"
"1572978271226","1485230.0"
"1572978271270","1477471.0"
"1572978271318","1467030.0"
"1572978271367","1459756.0"
"1572978271415","1455656.0"
"1572978271464","1452466.0"
"1572978271518","1450630.0"
"1572978271568","1446840.0"
"1572978271610","1441794.0"
"1572978271665","1436103.0"
"1572978271708","1432921.0"
"1572978271761","1434607.0"
"1572978271809","1441176.0"
"1572978271851","1443244.0"
"1572978271906","1443002.0"
"1572978271946","1438445.0"
"1572978272002","1436277.0"
"1572978272049","1433575.0"
"1572978272093","1433837.0"
"1572978272149","1437448.0"
"1572978272195","1438090.0"
"1572978272243","1437019.0"
"1572978272290","1437724.0"
"1572978272334","1440288.0"
"1572978272387","1437777.0"
"1572978272430","1441613.0"
"1572978272480","1446609.0"
"1572978272528","1444748.0"
"1572978272576","1439882.0"
"1572978272627","1432387.0"
"1572978272672","1422203.0"
"1572978272722","1415468.0"
"1572978272769","1411305.0"
"1572978272816","1412727.0"
"1572978272869","1422925.0"
"1572978272914","1428567.0"
"1572978272966","1426505.0"
"1572978273010","1442456.0"
"1572978273066","1466585.0"
"1572978273107","1475959.0"
"1572978273163","1477694.0"
"1572978273206","1479444.0"
"1572978273257","1482930.0"
"1572978273309","1485724.0"
"1572978273348","1477113.0"
"1572978273404","1464911.0"
"1572978273447","1464391.0"
"1572978273500","1467148.0"
"1572978273543","1467331.0"
"1572978273591","1442637.0"
"1572978273641","1431442.0"
"1572978273688","1431273.0"
"1572978273736","1441613.0"
"1572978273787","1480425.0"
"1572978273832","1524825.0"
"1572978273883","1542802.0"
"1572978273929","1558786.0"
"1572978273985","1571553.0"
"1572978274032","1596013.0"
"1572978274081","1622950.0"
"1572978274127","1643365.0"
"1572978274170","1655040.0"
"1572978274227","1663512.0"
"1572978274267","1662746.0"
"1572978274323","1661281.0"
"1572978274369","1670985.0"
"1572978274417","1673102.0"
"1572978274469","1686885.0"
"1572978274513","1713802.0"
"1572978274558","1736368.0"
"1572978274607","1750503.0"
"1572978274659","1756810.0"
"1572978274707","1765632.0"
"1572978274753","1769004.0"
"1572978274799","1778332.0"
"1572978274846","1796711.0"
"1572978274896","1799706.0"
"1572978274946","1797497.0"
"1572978274992","1799403.0"
"1572978275042","1803020.0"
"1572978275089","1805352.0"
"1572978275139","1811340.0"
"1572978275188","1809261.0"
"1572978275242","1805366.0"
"1572978275285","1804456.0"
"1572978275335","1796851.0"
"1572978275387","1788285.0"
"1572978275426","1784273.0"
"1572978275475","1777318.0"
"1572978275526","1770105.0"
"1572978275572","1762842.0"
"1572978275623","1759254.0"
"1572978275671","1759061.0"
"1572978275725","1758677.0"
"1572978275771","1754008.0"
"1572978275814","1748384.0"
"1572978275867","1739337.0"
"1572978275915","1735848.0"
"1572978275968","1747655.0"
"1572978276009","1755351.0"
"1572978276056","1762015.0"
"1572978276106","1764892.0"
"1572978276153","1766649.0"
"1572978276203","1771956.0"
"1572978276251","1773244.0"
"1572978276297","1776900.0"
"1572978276347","1786445.0"
"1572978276395","1789399.0"
"1572978276446","1777235.0"
"1572978276491","1749014.0"
"1572978276546","1728266.0"
"1572978276589","1717914.0"
"1572978276639","1709907.0"
"1572978276690","1705484.0"
"1572978276737","1696975.0"
"1572978276786","1688764.0"
"1572978276835","1682935.0"
"1572978276884","1680574.0"
"1572978276934","1681147.0"
"1572978276981","1672218.0"
"1572978277030","1658140.0"
"1572978277069","1650582.0"
"1572978277128","1637130.0"
"1572978277171","1619986.0"
"1572978277217","1606144.0"
"1572978277265","1599715.0"
"1572978277313","1594819.0"
"1572978277364","1591125.0"
"1572978277409","1585607.0"
"1572978277458","1578695.0"
"1572978277506","1578922.0"
"1572978277555","1579215.0"
"1572978277604","1581702.0"
"1572978277651","1584225.0"
"1572978277708","1587453.0"
"1572978277754","1581249.0"
"1572978277800","1568725.0"
"1572978277852","1559604.0"
"1572978277892","1554803.0"
"1572978277946","1553974.0"
"1572978277994","1553812.0"
"1572978278039","1550132.0"
"1572978278087","1543594.0"
"1572978278134","1537178.0"
"1572978278183","1533104.0"
"1572978278233","1530949.0"
"1572978278287","1532759.0"
"1572978278335","1531198.0"
"1572978278381","1521852.0"
"1572978278432","1505249.0"
"1572978278473","1491139.0"
"1572978278523","1481813.0"
"1572978278570","1472961.0"
"1572978278618","1462046.0"
"1572978278667","1458822.0"
"1572978278716","1457668.0"
"1572978278764","1458696.0"
"1572978278812","1463346.0"
"1572978278860","1474714.0"
"1572978278910","1493697.0"
"1572978278955","1518654.0"
"1572978279005","1530307.0"
"1572978279054","1523917.0"
"1572978279103","1514611.0"
"1572978279157","1508910.0"
"1572978279205","1507399.0"
"1572978279252","1511913.0"
"1572978279293","1514938.0"
"1572978279348","1516070.0"
"1572978279396","1515940.0"
"1572978279440","1519589.0"
"1572978279495","1522438.0"
"1572978279535","1521928.0"
"1572978279590","1519806.0"
"1572978279636","1514772.0"
"1572978279683","1499771.0"
"1572978279730","1487668.0"
"1572978279776","1475959.0"
"1572978279827","1467099.0"
"1572978279875","1462751.0"
"1572978279924","1460758.0"
"1572978279973","1461252.0"
"1572978280020","1462269.0"
"1572978280069","1465500.0"
"1572978280123","1467243.0"
"1572978280172","1467944.0"
"1572978280216","1464734.0"
"1572978280268","1449543.0"
"1572978280316","1431478.0"
"1572978280358","1407158.0"
"1572978280414","1396725.0"
"1572978280455","1452546.0"
"1572978280510","1513799.0"
"1572978280558","1516639.0"
"1572978280601","1519406.0"
"1572978280657","1509493.0"
"1572978280704","1500444.0"
"1572978280753","1497648.0"
"1572978280797","1495732.0"
"1572978280850","1491521.0"
"1572978280897","1483018.0"
"1572978280941","1479998.0"
"1572978280988","1480614.0"
"1572978281037","1478525.0"
"1572978281086","1476020.0"
"1572978281133","1474560.0"
"1572978281183","1469273.0"
"1572978281230","1468895.0"
"1572978281278","1467558.0"
"1572978281327","1467379.0"
"1572978281377","1468359.0"
"1572978281430","1470014.0"
"1572978281472","1463031.0"
"1572978281520","1452125.0"
"1572978281575","1441666.0"
"1572978281616","1437956.0"
"1572978281673","1430576.0"
"1572978281722","1441645.0"
"1572978281767","1464578.0"
"1572978281815","1466353.0"
"1572978281857","1460831.0"
"1572978281914","1464464.0"
"1572978281959","1465717.0"
"1572978282008","1467576.0"
"1572978282058","1471059.0"
"1572978282100","1469391.0"
"1572978282154","1468218.0"
"1572978282196","1470888.0"
"1572978282250","1474350.0"
"1572978282299","1480569.0"
"1572978282346","1493967.0"
"1572978282396","1502665.0"
"1572978282437","1506141.0"
"1572978282493","1505003.0"
"1572978282537","1498951.0"
"1572978282585","1489794.0"
"1572978282635","1482577.0"
"1572978282678","1476047.0"
"1572978282733","1460534.0"
"1572978282777","1452452.0"
"1572978282824","1445447.0"
"1572978282872","1440887.0"
"1572978282923","1436456.0"
"1572978282969","1422033.0"
"1572978283016","1406281.0"
"1572978283066","1400055.0"
"1572978283114","1402839.0"
"1572978283164","1406949.0"
"1572978283216","1413264.0"
"1572978283258","1426761.0"
"1572978283314","1462235.0"
"1572978283361","1547897.0"
"1572978283405","1605798.0"
"1572978283459","1844108.0"
"1572978283500","2134820.0"
"1572978283553","2364066.0"
"1572978283599","2451919.0"
"1572978283646","2437898.0"
"1572978283701","2402257.0"
"1572978283746","2320270.0"
"1572978283797","2216675.0"
"1572978283838","2142208.0"
"1572978283893","2087942.0"
"1572978283942","2019760.0"
"1572978283985","1983534.0"
"1572978284031","1939561.0"
"1572978284082","1910406.0"
"1572978284129","1897977.0"
"1572978284178","1898109.0"
"1572978284225","1913502.0"
"1572978284274","1923147.0"
"1572978284324","1914412.0"
"1572978284371","1916117.0"
"1572978284419","1940305.0"
"1572978284474","1936640.0"
"1572978284522","1917474.0"
"1572978284569","1917870.0"
"1572978284618","1920977.0"
"1572978284661","1903183.0"
"1572978284717","1922308.0"
"1572978284762","1958777.0"
"1572978284813","1947349.0"
"1572978284855","1942757.0"
"1572978284907","1941107.0"
"1572978284958","1944789.0"
"1572978285000","1939354.0"
"1572978285055","1929977.0"
"1572978285096","1922744.0"
"1572978285145","1920298.0"
"1572978285193","1930770.0"
"1572978285245","2010463.0"
"1572978285289","2076737.0"
"1572978285339","2103690.0"
"1572978285386","2092533.0"
"1572978285435","2207016.0"
"1572978285484","2187345.0"
"1572978285531","2160601.0"
"1572978285581","2120011.0"
"1572978285628","2103263.0"
"1572978285683","2121860.0"
"1572978285724","2234370.0"
"1572978285781","2425717.0"
"1572978285822","2558980.0"
"1572978285876","2602774.0"
"1572978285925","2704024.0"
"1572978285965","2844038.0"
"1572978286015","2940137.0"
"1572978286065","3018707.0"
"1572978286111","3109467.0"
"1572978286163","3172317.0"
"1572978286208","3094729.0"
"1572978286256","3061536.0"
"1572978286306","3116271.0"
"1572978286353","3190060.0"
"1572978286405","3137617.0"
"1572978286449","3004619.0"
"1572978286498","2927896.0"
"1572978286546","2871844.0"
"1572978286595","2850608.0"
"1572978286646","2826292.0"
"1572978286698","2805711.0"
"1572978286747","2775929.0"
"1572978286787","2732283.0"
"1572978286841","2691297.0"
"1572978286884","2656621.0"
"1572978286941","2624843.0"
"1572978286984","2606130.0"
"1572978287035","2593288.0"
"1572978287085","2586987.0"
"1572978287124","2633183.0"
"1572978287182","2701255.0"
"1572978287225","2817091.0"
"1572978287278","2878246.0"
"1572978287327","2942004.0"
"1572978287369","2992032.0"
"1572978287422","2991981.0"
"1572978287466","2911849.0"
"1572978287512","2876121.0"
"1572978287567","2961371.0"
"1572978287609","3077603.0"
"1572978287659","3196653.0"
"1572978287707","3251029.0"
"1572978287755","3277460.0"
"1572978287806","3302818.0"
"1572978287851","3344274.0"
"1572978287907","3501423.0"
"1572978287947","3602931.0"
"1572978288004","3657616.0"
"1572978288048","3687564.0"
"1572978288093","3754764.0"
"1572978288146","3808067.0"
"1572978288190","3845528.0"
"1572978288245","3818288.0"
"1572978288288","3864582.0"
"1572978288342","3878658.0"
"1572978288385","3841113.0"
"1572978288430","3744505.0"
"1572978288480","3665653.0"
"1572978288529","3674752.0"
"1572978288577","3774063.0"
"1572978288626","3861613.0"
"1572978288670","3940193.0"
"1572978288722","3943818.0"
"1572978288769","3922389.0"
"1572978288818","3899150.0"
"1572978288867","3856069.0"
"1572978288915","3794757.0"
"1572978288966","3748305.0"
"1572978289011","3672840.0"
"1572978289061","3635390.0"
"1572978289108","3578073.0"
"1572978289164","3515960.0"
"1572978289205","3454553.0"
"1572978289257","3355546.0"
"1572978289305","3341622.0"
"1572978289348","3273902.0"
"1572978289406","3240486.0"
"1572978289445","3182439.0"
"1572978289499","3125770.0"
"1572978289549","3073564.0"
"1572978289591","3096555.0"
"1572978289651","3199483.0"
"1572978289688","3240886.0"
"1572978289744","3309135.0"
"1572978289786","3220226.0"
"1572978289833","3362580.0"
"1572978289886","3330139.0"
"1572978289930","3435270.0"
"1572978289978","3419026.0"
"1572978290025","3442295.0"
"1572978290075","3453033.0"
"1572978290124","3564389.0"
"1572978290171","3661685.0"
"1572978290220","3691635.0"
"1572978290269","3721683.0"
"1572978290316","3796469.0"
"1572978290367","3862190.0"
"1572978290413","3871128.0"
"1572978290463","3875785.0"
"1572978290510","3800990.0"
"1572978290566","3739280.0"
"1572978290609","3605006.0"
"1572978290664","3496021.0"
"1572978290710","3431125.0"
"1572978290757","3361347.0"
"1572978290805","3410927.0"
"1572978290849","3481977.0"
"1572978290904","3503550.0"
"1572978290953","3411504.0"
"1572978291001","3473239.0"
"1572978291047","3520225.0"
"1572978291091","3560756.0"
"1572978291142","3548344.0"
"1572978291187","3464588.0"
"1572978291236","3352697.0"
"1572978291286","3259426.0"
"1572978291333","3233068.0"
"1572978291383","3242869.0"
"1572978291430","3277238.0"
"1572978291478","3377007.0"
"1572978291528","3410151.0"
"1572978291574","3246080.0"
"1572978291627","3126889.0"
"1572978291670","3029666.0"
"1572978291727","2993578.0"
"1572978291770","2943077.0"
"1572978291815","2902899.0"
"1572978291871","2862273.0"
"1572978291920","2779820.0"
"1572978291963","2796145.0"
"1572978292014","2768867.0"
"1572978292067","2748318.0"
"1572978292108","2706659.0"
"1572978292161","2677924.0"
"1572978292207","2612228.0"
"1572978292256","2634794.0"
"1572978292309","2750478.0"
"1572978292357","2968084.0"
"1572978292397","3054264.0"
"1572978292446","3097092.0"
"1572978292493","3150496.0"
"1572978292543","3254369.0"
"1572978292590","3350400.0"
"1572978292639","3349816.0"
"1572978292688","3285881.0"
"1572978292735","3289561.0"
"1572978292784","3392355.0"
"1572978292831","3390179.0"
"1572978292888","3409751.0"
"1572978292932","3413841.0"
"1572978292975","3414127.0"
"1572978293031","3397924.0"
"1572978293076","3367814.0"
"1572978293125","3320746.0"
"1572978293172","3279104.0"
"1572978293223","3228826.0"
"1572978293273","3228858.0"
"1572978293319","3204733.0"
"1572978293367","3174629.0"
"1572978293410","3134571.0"
"1572978293468","3089265.0"
"1572978293510","3071620.0"
"1572978293561","3030946.0"
"1572978293606","2980191.0"
"1572978293655","2962635.0"
"1572978293704","2970148.0"
"1572978293753","3004060.0"
"1572978293804","3003867.0"
"1572978293848","3051688.0"
"1572978293896","3011933.0"
"1572978293945","2971028.0"
"1572978293994","2972765.0"
"1572978294042","3001547.0"
"1572978294091","3031300.0"
"1572978294138","3090970.0"
"1572978294186","3193858.0"
"1572978294241","3225057.0"
"1572978294288","3229171.0"
"1572978294334","3070516.0"
"1572978294386","2938524.0"
"1572978294432","2923593.0"
"1572978294475","2996786.0"
"1572978294532","3007020.0"
"1572978294572","3086839.0"
"1572978294623","3358171.0"
"1572978294676","3390490.0"
"1572978294722","3331764.0"
"1572978294773","3330795.0"
"1572978294813","3416265.0"
"1572978294871","3615522.0"
"1572978294915","3684354.0"
"1572978294963","3822075.0"
"1572978295014","3974265.0"
"1572978295057","3980273.0"
"1572978295105","3987653.0"
"1572978295154","4090741.0"
"1572978295202","4175914.0"
"1572978295248","4211234.0"
"1572978295295","4288558.0"
"1572978295344","4430608.0"
"1572978295393","4440082.0"
"1572978295440","4508548.0"
"1572978295492","4625688.0"
"1572978295537","4702947.0"
"1572978295593","4747719.0"
"1572978295634","4668251.0"
"1572978295683","4767250.0"
"1572978295734","4685271.0"
"1572978295779","4511804.0"
"1572978295828","4349557.0"
"1572978295875","4469707.0"
"1572978295924","4403346.0"
"1572978295974","4436305.0"
"1572978296024","4387069.0"
"1572978296069","4577204.0"
"1572978296118","4547748.0"
"1572978296165","4454479.0"
"1572978296214","4356823.0"
"1572978296268","4374450.0"
"1572978296313","4370769.0"
"1572978296360","4427040.0"
"1572978296408","4439275.0"
"1572978296456","4339634.0"
"1572978296508","4265417.0"
"1572978296555","4206386.0"
"1572978296605","4224550.0"
"1572978296651","4234752.0"
"1572978296700","4276859.0"
"1572978296748","4343259.0"
"1572978296798","4394640.0"
"1572978296845","4315164.0"
"1572978296894","4223559.0"
"1572978296942","4180026.0"
"1572978296990","4173681.0"
"1572978297039","4188621.0"
"1572978297088","4208178.0"
"1572978297134","4122924.0"
"1572978297184","4046210.0"
"1572978297232","4155341.0"
"1572978297281","4066592.0"
"1572978297329","4041569.0"
"1572978297378","4061446.0"
"1572978297426","3984755.0"
"1572978297475","3930374.0"
"1572978297523","3914617.0"
"1572978297570","3979042.0"
"1572978297621","4013507.0"
"1572978297676","3872487.0"
"1572978297717","3946426.0"
"1572978297772","3956492.0"
"1572978297811","3909536.0"
"1572978297862","3965895.0"
"1572978297908","3904735.0"
"1572978297956","3670462.0"
"1572978298005","3770158.0"
"1572978298056","3674664.0"
"1572978298100","3764526.0"
"1572978298149","3881770.0"
"1572978298198","3784539.0"
"1572978298246","3652843.0"
"1572978298297","3637806.0"
"1572978298343","3651082.0"
"1572978298391","3806529.0"
"1572978298440","3899855.0"
"1572978298492","3773976.0"
"1572978298540","3842241.0"
"1572978298587","3863373.0"
"1572978298639","3927037.0"
"1572978298688","3774768.0"
"1572978298734","3772048.0"
"1572978298779","3703767.0"
"1572978298833","3655675.0"
"1572978298879","3615530.0"
"1572978298926","3593579.0"
"1572978298981","3563684.0"
"1572978299027","3609439.0"
"1572978299077","3713529.0"
"1572978299118","3704431.0"
"1572978299165","3645641.0"
"1572978299217","3606318.0"
"1572978299265","3566925.0"
"1572978299312","3513656.0"
"1572978299363","3450016.0"
"1572978299409","3412496.0"
"1572978299460","3437070.0"
"1572978299506","3474551.0"
"1572978299555","3488282.0"
"1572978299602","3473798.0"
"1572978299651","3509839.0"
"1572978299698","3457267.0"
"1572978299756","3411303.0"
"1572978299800","3358043.0"
"1572978299843","3378887.0"
"1572978299893","3344512.0"
"1572978299942","3332189.0"
"1572978299997","3329428.0"
"1572978300040","3275471.0"
"1572978300087","3211534.0"
"1572978300136","3165572.0"
"1572978300182","3158418.0"
"1572978300230","3160354.0"
"1572978300283","3142062.0"
"1572978300330","3182006.0"
"1572978300379","3161547.0"
"1572978300426","3092994.0"
"1572978300474","3086673.0"
"1572978300529","3882091.0"
"1572978300578","3990556.0"
"1572978300620","3716922.0"
"1572978300673","3446784.0"
"1572978300723","3302332.0"
"1572978300771","3229379.0"
"1572978300821","3189857.0"
"1572978300866","3239029.0"
"1572978300917","3165299.0"
"1572978300962","3072981.0"
"1572978301014","2987800.0"
"1572978301063","2971140.0"
"1572978301105","2990888.0"
"1572978301158","3025985.0"
"1572978301200","3056961.0"
"1572978301248","3047998.0"
"1572978301298","2952695.0"
"1572978301346","2897570.0"
"1572978301394","2876285.0"
"1572978301444","2827522.0"
"1572978301490","2774099.0"
"1572978301540","2734898.0"
"1572978301588","2698977.0"
"1572978301643","2680781.0"
"1572978301683","2630609.0"
"1572978301739","2585829.0"
"1572978301781","2580301.0"
"1572978301826","2608692.0"
"1572978301879","2666026.0"
"1572978301925","2712533.0"
"1572978301976","2688542.0"
"1572978302024","2669242.0"
"1572978302078","2636058.0"
"1572978302124","2591136.0"
"1572978302168","2620206.0"
"1572978302223","2608396.0"
"1572978302264","2751806.0"
"1572978302319","2670931.0"
"1572978302363","2769818.0"
"1572978302410","2722279.0"
"1572978302457","2684726.0"
"1572978302507","2703026.0"
"1572978302554","2661751.0"
"1572978302604","2625391.0"
"1572978302650","2637667.0"
"1572978302699","2739340.0"
"1572978302747","2857224.0"
"1572978302796","2865649.0"
"1572978302845","2844365.0"
"1572978302900","2848030.0"
"1572978302944","3044687.0"
"1572978302994","3063395.0"
"1572978303039","2780678.0"
"1572978303085","2792951.0"
"1572978303141","2828249.0"
"1572978303185","2964571.0"
"1572978303238","2882070.0"
"1572978303287","2862713.0"
"1572978303329","2853479.0"
"1572978303384","2954144.0"
"1572978303424","3069147.0"
"1572978303473","3065283.0"
"1572978303524","3071045.0"
"1572978303574","3098619.0"
"1572978303622","3080047.0"
"1572978303668","3059649.0"
"1572978303715","3017014.0"
"1572978303766","2977302.0"
"1572978303810","2938260.0"
"1572978303860","2906372.0"
"1572978303908","2901059.0"
"1572978303956","2908157.0"
"1572978304004","2912509.0"
"1572978304054","2930986.0"
"1572978304106","2941324.0"
"1572978304153","2947783.0"
"1572978304206","2957561.0"
"1572978304251","2931738.0"
"1572978304304","2902924.0"
"1572978304347","2935956.0"
"1572978304393","3002668.0"
"1572978304444","3042933.0"
"1572978304497","3061514.0"
"1572978304544","3061865.0"
"1572978304585","3050752.0"
"1572978304642","3041861.0"
"1572978304687","3035131.0"
"1572978304731","3051383.0"
"1572978304780","3072700.0"
"1572978304827","3090488.0"
"1572978304877","3128890.0"
"1572978304924","3155458.0"
"1572978304972","3177366.0"
"1572978305022","3193803.0"
"1572978305069","3210550.0"
"1572978305125","3236605.0"
"1572978305168","3256393.0"
"1572978305220","3282232.0"
"1572978305266","3281160.0"
"1572978305311","3264627.0"
"1572978305440","3280111.0"
"1572978305440","3284937.0"
"1572978305469","3301973.0"
"1572978305505","3326980.0"
"1572978305550","3355914.0"
"1572978305627","3383072.0"
"1572978305655","3406870.0"
"1572978305695","3424091.0"
"1572978305746","3442663.0"
"1572978305792","3452602.0"
"1572978305841","3464212.0"
"1572978305887","3474135.0"
"1572978305936","3495060.0"
"1572978306123","3507080.0"
"1572978306123","3522962.0"
"1572978306123","3535693.0"
"1572978306153","3554098.0"
"1572978306179","3562053.0"
"1572978306230","3555874.0"
"1572978306281","3568229.0"
"1572978306331","3573991.0"
"1572978306375","3577624.0"
"1572978306423","3582529.0"
"1572978306492","3588195.0"
"1572978306536","3597860.0"
"1572978306567","3610272.0"
"1572978306613","3625083.0"
"1572978306680","3636327.0"
"1572978306709","3641864.0"
"1572978306759","3650937.0"
"1572978306806","3659940.0"
"1572978306855","3666781.0"
"1572978306905","3673520.0"
"1572978306952","3674991.0"
"1572978307001","3670814.0"
"1572978307048","3670950.0"
"1572978307098","3675424.0"
"1572978307146","3680808.0"
"1572978307194","3686363.0"
"1572978307247","3691452.0"
"1572978307304","3697357.0"
"1572978307340","3705063.0"
"1572978307390","3713464.0"
"1572978307437","3722235.0"
"1572978307500","3728877.0"
"1572978307539","3741657.0"
"1572978307586","3732431.0"
"1572978307651","3700039.0"
"1572978307677","3672622.0"
"1572978307728","3636855.0"
"1572978307776","3635622.0"
"1572978307828","3633277.0"
"1572978307875","3638438.0"
"1572978307919","3642359.0"
"1572978307970","3638255.0"
"1572978308016","3626845.0"
"1572978308075","3616721.0"
"1572978308114","3601397.0"
"1572978308160","3556595.0"
"1572978308209","3506903.0"
"1572978308257","3451641.0"
"1572978308305","3418873.0"
"1572978308366","3395307.0"
"1572978308410","3371373.0"
"1572978308453","3348744.0"
"1572978308499","3327091.0"
"1572978308548","3311175.0"
"1572978308605","3309222.0"
"1572978308653","3303405.0"
"1572978308734","3295851.0"
"1572978308771","3290307.0"
"1572978308794","3263930.0"
"1572978308838","3249631.0"
"1572978308906","3247528.0"
"1572978308941","3243278.0"
"1572978308984","3241862.0"
"1572978309034","3244582.0"
"1572978309086","3252473.0"
"1572978309129","3250377.0"
"1572978309187","3261003.0"
"1572978309228","3268325.0"
"1572978309273","3276511.0"
"1572978309323","3282129.0"
"1572978309374","3283376.0"
"1572978309419","3262675.0"
"1572978309471","3241246.0"
"1572978309516","3230939.0"
"1572978309568","3220792.0"
"1572978309612","3217007.0"
"1572978309667","3215872.0"
"1572978309711","3218777.0"
"1572978309763","3219616.0"
"1572978309810","3217383.0"
"1572978309860","3228139.0"
"1572978309904","3237069.0"
"1572978309958","3237749.0"
"1572978310002","3257498.0"
"1572978310051","3283905.0"
"1572978310097","3287728.0"
"1572978310144","3293202.0"
"1572978310194","3294980.0"
"1572978310246","3287562.0"
"1572978310308","3266460.0"
"1572978310343","3239438.0"
"1572978310387","3231187.0"
"1572978310435","3245407.0"
"1572978310486","3262299.0"
"1572978310535","3285296.0"
"1572978310598","3314096.0"
"1572978310639","3340078.0"
"1572978310682","3356769.0"
"1572978310731","3374407.0"
"1572978310793","3375126.0"
"1572978310822","3367933.0"
"1572978310877","3361970.0"
"1572978310918","3368476.0"
"1572978310967","3364924.0"
"1572978311016","3366357.0"
"1572978311069","3369165.0"
"1572978311128","3381176.0"
"1572978311164","3391579.0"
"1572978311214","3399604.0"
"1572978311257","3415296.0"
"1572978311310","3429483.0"
"1572978311352","3440253.0"
"1572978311403","3447023.0"
"1572978311451","3453202.0"
"1572978311521","3441936.0"
"1572978311551","3430420.0"
"1572978311595","3454362.0"
"1572978311643","3479448.0"
"1572978311703","3506190.0"
"1572978311741","3510503.0"
"1572978311792","3506470.0"
"1572978311839","3501013.0"
"1572978311924","3498485.0"
"1572978312031","3508896.0"
"1572978312225","3514416.0"
"1572978312225","3524258.0"
"1572978312225","3535254.0"
"1572978312225","3542263.0"
"1572978312225","3550841.0"
"1572978312225","3562997.0"
"1572978312277","3563245.0"
"1572978312447","3552459.0"
"1572978312447","3536365.0"
"1572978312447","3529195.0"
"1572978312469","3532909.0"
"1572978312517","3538293.0"
"1572978312564","3546095.0"
"1572978312615","3557963.0"
"1572978312660","3577400.0"
"1572978312707","3593835.0"
"1572978312755","3612416.0"
"1572978312803","3626227.0"
"1572978312851","3620043.0"
"1572978312900","3606296.0"
"1572978312954","3608951.0"
"1572978313001","3601133.0"
"1572978313045","3594973.0"
"1572978313095","3568302.0"
"1572978313142","3549322.0"
"1572978313199","3537670.0"
"1572978313238","3535687.0"
"1572978313290","3528797.0"
"1572978313335","3501198.0"
"1572978313384","3475543.0"
"1572978313432","3448825.0"
"1572978313481","3427691.0"
"1572978313562","3413688.0"
"1572978313580","3399468.0"
"1572978313653","3379183.0"
"1572978313677","3365733.0"
"1572978313722","3357066.0"
"1572978313781","3346576.0"
"1572978313837","3358323.0"
"1572978313883","3379575.0"
"1572978313919","3381912.0"
"1572978313969","3372661.0"
"1572978314014","3373015.0"
"1572978314065","3369908.0"
"1572978314108","3377062.0"
"1572978314159","3385665.0"
"1572978314205","3386250.0"
"1572978314254","3390474.0"
"1572978314302","3394860.0"
"1572978314361","3399245.0"
"1572978314400","3404350.0"
"1572978314446","3402894.0"
"1572978314496","3392410.0"
"1572978314544","3363852.0"
"1572978314601","3330996.0"
"1572978314653","3309927.0"
"1572978314690","3290266.0"
"1572978314742","3269916.0"
"1572978314786","3259763.0"
"1572978314835","3256722.0"
"1572978314883","3257825.0"
"1572978314950","3258737.0"
"1572978314985","3256953.0"
"1572978315029","3257258.0"
"1572978315083","3260515.0"
"1572978315125","3266332.0"
"1572978315186","3274069.0"
"1572978315234","3277718.0"
"1572978315275","3284152.0"
"1572978315322","3292842.0"
"1572978315372","3300620.0"
"1572978315418","3306798.0"
"1572978315469","3293675.0"
"1572978315511","3266043.0"
"1572978315563","3257482.0"
"1572978315609","3266980.0"
"1572978315658","3290721.0"
"1572978315705","3311847.0"
"1572978315756","3329676.0"
"1572978315802","3361316.0"
"1572978315851","3366861.0"
"1572978315903","3397107.0"
"1572978315946","3387993.0"
"1572978315999","3401045.0"
"1572978316044","3421907.0"
"1572978316093","3434766.0"
"1572978316140","3454675.0"
"1572978316190","3451394.0"
"1572978316237","3463675.0"
"1572978316285","3487849.0"
"1572978316333","3505582.0"
"1572978316383","3520233.0"
"1572978316442","3544480.0"
"1572978316514","3561301.0"
"1572978316528","3573343.0"
"1572978316587","3582882.0"
"1572978316633","3574375.0"
"1572978316673","3558428.0"
"1572978316722","3543440.0"
"1572978316777","3525034.0"
"1572978316825","3472022.0"
"1572978316870","3409127.0"
"1572978316913","3366853.0"
"1572978316968","3347815.0"
"1572978317009","3333668.0"
"1572978317059","3308094.0"
"1572978317106","3294195.0"
"1572978317169","3313135.0"
"1572978317207","3347640.0"
"1572978317255","3388810.0"
"1572978317302","3416185.0"
"1572978317347","3428996.0"
"1572978317402","3436934.0"
"1572978317445","3447233.0"
"1572978317494","3446503.0"
"1572978317541","3451394.0"
"1572978317590","3469389.0"
"1572978317649","3490659.0"
"1572978317689","3503695.0"
"1572978317735","3521058.0"
"1572978317783","3538822.0"
"1572978317832","3550890.0"
"1572978317881","3563700.0"
"1572978317928","3576992.0"
"1572978317979","3584715.0"
"1572978318025","3603701.0"
"1572978318073","3594796.0"
"1572978318123","3567557.0"
"1572978318177","3570685.0"
"1572978318221","3577967.0"
"1572978318272","3579513.0"
"1572978318314","3568455.0"
"1572978318367","3555443.0"
"1572978318411","3541095.0"
"1572978318465","3532005.0"
"1572978318520","3523019.0"
"1572978318566","3515113.0"
"1572978318604","3516962.0"
"1572978318652","3512679.0"
"1572978318703","3493396.0"
"1572978318749","3455754.0"
"1572978318805","3425170.0"
"1572978318847","3412079.0"
"1572978318902","3416578.0"
"1572978318943","3425907.0"
"1572978318993","3451056.0"
"1572978319044","3473911.0"
"1572978319090","3492274.0"
"1572978319137","3504054.0"
"1572978319184","3517970.0"
"1572978319232","3535453.0"
"1572978319282","3554314.0"
"1572978319328","3569414.0"
"1572978319383","3578400.0"
"1572978319425","3558052.0"
"1572978319474","3541672.0"
"1572978319523","3540112.0"
"1572978319572","3546049.0"
"1572978319625","3549289.0"
"1572978319672","3555011.0"
"1572978319716","3562268.0"
"1572978319767","3570399.0"
"1572978319812","3581826.0"
"1572978319866","3586243.0"
"1572978319913","3597157.0"
"1572978319958","3605855.0"
"1572978320005","3611225.0"
"1572978320054","3614858.0"
"1572978320104","3601373.0"
"1572978320151","3555651.0"
"1572978320203","3525916.0"
"1572978320246","3521978.0"
"1572978320296","3525412.0"
"1572978320345","3537086.0"
"1572978320393","3544608.0"
"1572978320443","3488778.0"
"1572978320491","3462139.0"
"1572978320538","3467700.0"
"1572978320598","3451018.0"
"1572978320634","3442854.0"
"1572978320683","3483489.0"
"1572978320774","3509310.0"
"1572978320864","3517978.0"
"1572978320897","3505470.0"
"1572978320897","3486130.0"
"1572978320923","3487081.0"
"1572978320971","3501710.0"
"1572978321027","3519585.0"
"1572978321071","3530292.0"
"1572978321118","3529437.0"
"1572978321167","3534086.0"
"1572978321214","3545648.0"
"1572978321269","3553475.0"
"1572978321312","3578760.0"
"1572978321362","3615914.0"
"1572978321409","3635870.0"
"1572978321456","3654148.0"
"1572978321509","3668559.0"
"1572978321566","3685339.0"
"1572978321612","3697365.0"
"1572978321650","3708848.0"
"1572978321698","3728292.0"
"1572978321744","3747762.0"
"1572978321794","3755859.0"
"1572978321858","3762669.0"
"1572978321892","3767614.0"
"1572978321939","3770942.0"
"1572978321986","3776633.0"
"1572978322036","3786323.0"
"1572978322086","3794182.0"
"1572978322135","3808800.0"
"1572978322181","3822396.0"
"1572978322229","3835904.0"
"1572978322279","3841089.0"
"1572978322325","3841777.0"
"1572978322374","3843305.0"
"1572978322425","3852978.0"
"1572978322472","3849786.0"
"1572978322518","3850794.0"
"1572978322582","3856997.0"
"1572978322616","3883018.0"
"1572978322670","3895822.0"
"1572978322713","3903408.0"
"1572978322762","3910721.0"
"1572978322808","3916027.0"
"1572978322861","3921885.0"
"1572978322910","3931046.0"
"1572978322957","3926085.0"
"1572978323013","3926509.0"
"1572978323050","3914658.0"
"1572978323099","3909680.0"
"1572978323147","3914898.0"
"1572978323197","3927277.0"
"1572978323251","3934959.0"
"1572978323292","3937184.0"
"1572978323341","3934848.0"
"1572978323388","3937440.0"
"1572978323438","3944145.0"
"1572978323494","3947755.0"
"1572978323534","3944185.0"
"1572978323581","3942761.0"
"1572978323629","3945961.0"
"1572978323678","3958444.0"
"1572978323726","3972136.0"
"1572978323776","3970488.0"
"1572978323823","3969911.0"
"1572978323871","3964239.0"
"1572978323920","3960582.0"
"1572978323972","3962534.0"
"1572978324031","3959830.0"
"1572978324090","3941912.0"
"1572978324116","3935983.0"
"1572978324168","3938807.0"
"1572978324212","3949602.0"
"1572978324258","3957540.0"
"1572978324311","3968168.0"
"1572978324356","3975472.0"
"1572978324403","3984780.0"
"1572978324454","3986675.0"
"1572978324503","3986316.0"
"1572978324549","3960005.0"
"1572978324604","3933047.0"
"1572978324651","3912202.0"
"1572978324693","3905944.0"
"1572978324742","3882361.0"
"1572978324790","3868982.0"
"1572978324837","3858773.0"
"1572978324893","3834719.0"
"1572978324935","3818451.0"
"1572978324982","3798054.0"
"1572978325029","3780410.0"
"1572978325079","3786211.0"
"1572978325128","3810954.0"
"1572978325177","3802719.0"
"1572978325225","3754315.0"
"1572978325291","3641071.0"
"1572978325343","3430060.0"
"1572978325425","3344735.0"
"1572978325425","3225201.0"
"1572978325518","3126083.0"
"1572978325520","3058161.0"
"1572978325561","3002012.0"
"1572978325610","2950855.0"
"1572978325659","2902564.0"
"1572978325714","2868171.0"
"1572978325756","2824047.0"
"1572978325803","2789008.0"
"1572978325851","2830866.0"
"1572978325900","2885447.0"
"1572978325951","2956377.0"
"1572978325997","3016960.0"
"1572978326047","2949774.0"
"1572978326092","2845500.0"
"1572978326142","2759560.0"
"1572978326189","2700810.0"
"1572978326239","2649012.0"
"1572978326290","2609060.0"
"1572978326334","2580301.0"
"1572978326382","2595496.0"
"1572978326430","2659080.0"
"1572978326479","2775612.0"
"1572978326531","2723055.0"
"1572978326577","2729618.0"
"1572978326624","2668986.0"
"1572978326672","2624623.0"
"1572978326721","2589056.0"
"1572978326771","2575772.0"
"1572978326820","2567938.0"
"1572978326867","2572938.0"
"1572978326915","2547175.0"
"1572978326964","2614144.0"
"1572978327010","2681620.0"
"1572978327060","2730949.0"
"1572978327108","2772571.0"
"1572978327157","2806135.0"
"1572978327205","2829687.0"
"1572978327252","2847366.0"
"1572978327303","2868673.0"
"1572978327351","2897633.0"
"1572978327397","2922938.0"
"1572978327447","2951610.0"
"1572978327495","2976211.0"
"1572978327544","2999905.0"
"1572978327590","3023766.0"
"1572978327641","3050884.0"
"1572978327688","3080602.0"
"1572978327737","3106736.0"
"1572978327785","3141052.0"
"1572978327833","3178089.0"
"1572978327882","3220201.0"
"1572978327929","3254708.0"
"1572978327978","3283393.0"
"1572978328026","3313625.0"
"1572978328074","3347638.0"
"1572978328124","3377901.0"
"1572978328172","3403408.0"
"1572978328218","3432850.0"
"1572978328267","3466940.0"
"1572978328316","3497923.0"
"1572978328365","3500980.0"
"1572978328452","3493550.0"
"1572978328490","3470652.0"
"1572978328561","3462690.0"
"1572978328601","3470902.0"
"1572978328611","3519081.0"
"1572978328659","3565084.0"
"1572978328700","3593364.0"
"1572978328749","3613828.0"
"1572978328797","3634730.0"
"1572978328844","3650744.0"
"1572978328893","3664538.0"
"1572978328949","3686877.0"
"1572978328989","3705055.0"
"1572978329038","3720305.0"
"1572978329093","3730419.0"
"1572978329139","3733341.0"
"1572978329183","3735281.0"
"1572978329237","3745946.0"
"1572978329279","3762738.0"
"1572978329335","3778226.0"
"1572978329383","3783165.0"
"1572978329429","3794100.0"
"1572978329475","3837943.0"
"1572978329520","3846586.0"
"1572978329569","3853795.0"
"1572978329617","3876193.0"
"1572978329670","3895982.0"
"1572978329723","3902071.0"
"1572978329761","3895133.0"
"1572978329809","3874968.0"
"1572978329859","3874393.0"
"1572978329905","3877241.0"
"1572978329955","3872473.0"
"1572978330004","3863765.0"
"1572978330053","3852820.0"
"1572978330102","3852123.0"
"1572978330147","3860453.0"
"1572978330198","3876209.0"
"1572978330246","3888461.0"
"1572978330294","3900710.0"
"1572978330343","3911938.0"
"1572978330390","3900438.0"
"1572978330439","3852915.0"
"1572978330486","3833646.0"
"1572978330538","3839384.0"
"1572978330582","3847226.0"
"1572978330631","3831206.0"
"1572978330682","3809865.0"
"1572978330741","3796276.0"
"1572978330777","3792956.0"
"1572978330828","3794062.0"
"1572978330871","3801638.0"
"1572978330920","3812297.0"
"1572978331109","3822067.0"
"1572978331109","3832829.0"
"1572978331109","3832374.0"
"1572978331145","3754810.0"
"1572978331253","3665030.0"
"1572978331253","3565340.0"
"1572978331262","3431005.0"
"1572978331305","3266917.0"
"1572978331365","3192417.0"
"1572978331404","3080630.0"
"1572978331451","3010757.0"
"1572978331500","2984382.0"
"1572978331546","2907196.0"
"1572978331597","2861210.0"
"1572978331647","2798585.0"
"1572978331691","2760401.0"
"1572978331742","2736266.0"
"1572978331788","2698721.0"
"1572978331839","2651822.0"
"1572978331884","2580853.0"
"1572978331934","2530113.0"
"1572978331982","2501721.0"
"1572978332033","2448615.0"
"1572978332078","2438505.0"
"1572978332127","2438763.0"
"1572978332179","2451147.0"
"1572978332225","2445874.0"
"1572978332270","2465704.0"
"1572978332320","2480420.0"
"1572978332367","2472051.0"
"1572978332417","2445734.0"
"1572978332463","2430096.0"
"1572978332512","2453900.0"
"1572978332564","2431457.0"
"1572978332608","2438477.0"
"1572978332660","2460637.0"
"1572978332705","2466476.0"
"1572978332754","2460767.0"
"1572978332801","2498326.0"
"1572978332850","2426741.0"
"1572978332900","2277384.0"
"1572978332946","2199371.0"
"1572978333000","2226393.0"
"1572978333043","2267881.0"
"1572978333091","2342714.0"
"1572978333189","2620281.0"
"1572978333238","2053185.0"
"1572978333250","2301893.0"
"1572978333315","2269523.0"
"1572978333338","1829623.0"
"1572978333382","1880287.0"
"1572978333429","1946372.0"
"1572978333487","2008834.0"
"1572978333525","2144388.0"
"1572978333574","2083218.0"
"1572978333624","2079256.0"
"1572978333670","2092527.0"
"1572978333723","2101849.0"
"1572978333768","2122741.0"
"1572978333817","2207189.0"
"1572978333864","2226891.0"
"1572978333911","2206014.0"
"1572978333963","2146358.0"
"1572978334008","2128680.0"
"1572978334059","2104771.0"
"1572978334104","2076948.0"
"1572978334152","2043934.0"
"1572978334201","2019143.0"
"1572978334249","2018501.0"
"1572978334301","2020417.0"
"1572978334344","2038639.0"
"1572978334395","2034887.0"
"1572978334445","2027629.0"
"1572978334490","2000682.0"
"1572978334557","1952952.0"
"1572978334590","1915375.0"
"1572978334636","1912791.0"
"1572978334685","1908620.0"
"1572978334732","1918472.0"
"1572978334783","1965844.0"
"1572978334828","1985755.0"
"1572978334881","1994796.0"
"1572978334925","2007946.0"
"1572978334973","2038802.0"
"1572978335023","2073313.0"
"1572978335073","2127213.0"
"1572978335128","2164959.0"
"1572978335169","2189155.0"
"1572978335215","2214044.0"
"1572978335264","2229784.0"
"1572978335311","2232821.0"
"1572978335363","2218341.0"
"1572978335406","2198954.0"
"1572978335456","2166578.0"
"1572978335503","2171920.0"
"1572978335551","2206055.0"
"1572978335603","2257899.0"
"1572978335648","2306194.0"
"1572978335697","2337058.0"
"1572978335744","2348968.0"
"1572978335794","2355397.0"
"1572978335846","2345274.0"
"1572978335890","2340488.0"
"1572978335938","2319934.0"
"1572978335986","2295501.0"
"1572978336035","2270289.0"
"1572978336086","2260868.0"
"1572978336133","2259074.0"
"1572978336184","2279860.0"
"1572978336230","2354531.0"
"1572978336278","2273135.0"
"1572978336326","2230538.0"
"1572978336375","2358406.0"
"1572978336424","2377675.0"
"1572978336470","2319327.0"
"1572978336521","2282660.0"
"1572978336568","2256152.0"
"1572978336616","2249665.0"
"1572978336664","2260091.0"
"1572978336712","2246637.0"
"1572978336760","2211017.0"
"1572978336809","2168590.0"
"1572978336858","2108909.0"
"1572978336907","2032572.0"
"1572978336954","1976710.0"
"1572978337005","1990121.0"
"1572978337050","2030526.0"
"1572978337099","2073488.0"
"1572978337147","2049082.0"
"1572978337195","2097015.0"
"1572978337245","2086936.0"
"1572978337291","2118341.0"
"1572978337341","2128182.0"
"1572978337388","2108950.0"
"1572978337437","2096887.0"
"1572978337486","2035624.0"
"1572978337533","1984774.0"
"1572978337582","2012434.0"
"1572978337629","2093614.0"
"1572978337678","2231962.0"
"1572978337727","2305225.0"
"1572978337774","2336871.0"
"1572978337824","2347682.0"
"1572978337870","2307644.0"
"1572978337918","2329998.0"
"1572978337967","2329788.0"
"1572978338015","2339342.0"
"1572978338065","2355362.0"
"1572978338111","2354409.0"
"1572978338160","2349190.0"
"1572978338208","2358249.0"
"1572978338256","2371813.0"
"1572978338306","2379322.0"
"1572978338351","2370801.0"
"1572978338399","2344181.0"
"1572978338447","2320128.0"
"1572978338495","2307031.0"
"1572978338547","2295822.0"
"1572978338593","2283918.0"
"1572978338642","2264760.0"
"1572978338690","2248986.0"
"1572978338739","2247765.0"
"1572978338787","2248555.0"
"1572978338835","2276565.0"
"1572978338882","2337345.0"
"1572978338930","2336778.0"
"1572978338981","2359779.0"
"1572978339026","2400893.0"
"1572978339074","2542969.0"
"1572978339124","2570191.0"
"1572978339172","2506449.0"
"1572978339221","2612146.0"
"1572978339269","2715857.0"
"1572978339316","2735872.0"
"1572978339365","2646767.0"
"1572978339413","2644563.0"
"1572978339463","2681768.0"
"1572978339508","2672961.0"
"1572978339559","2623378.0"
"1572978339607","2577883.0"
"1572978339654","2574171.0"
"1572978339703","2657123.0"
"1572978339751","2883500.0"
"1572978339801","2936484.0"
"1572978339849","2950631.0"
"1572978339895","2828887.0"
"1572978339944","2755882.0"
"1572978339991","2690698.0"
"1572978340041","2722155.0"
"1572978340089","2695665.0"
"1572978340135","2656398.0"
"1572978340185","2621047.0"
"1572978340233","2585941.0"
"1572978340281","2586071.0"
"1572978340328","2611147.0"
"1572978340375","2513393.0"
"1572978340424","2457027.0"
"1572978340473","2395605.0"
"1572978340522","2488994.0"
"1572978340568","2616541.0"
"1572978340616","2636259.0"
"1572978340666","2715792.0"
"1572978340714","2843843.0"
"1572978340764","2943392.0"
"1572978340811","2966960.0"
"1572978340859","2914234.0"
"1572978340906","2925671.0"
"1572978340956","2867447.0"
"1572978341005","3108610.0"
"1572978341052","3180990.0"
"1572978341100","3197769.0"
"1572978341150","3129000.0"
"1572978341196","3229163.0"
"1572978341245","3326906.0"
"1572978341291","3443496.0"
"1572978341341","3550010.0"
"1572978341391","3674046.0"
"1572978341438","3801959.0"
"1572978341486","3796262.0"
"1572978341533","3869608.0"
"1572978341583","3711721.0"
"1572978341631","3580409.0"
"1572978341679","3723475.0"
"1572978341727","3506535.0"
"1572978341775","3577624.0"
"1572978341824","3645161.0"
"1572978341872","3630149.0"
"1572978341920","3526028.0"
"1572978341968","3448801.0"
"1572978342015","3326642.0"
"1572978342064","3408839.0"
"1572978342113","3443447.0"
"1572978342160","3369124.0"
"1572978342207","3311447.0"
"1572978342257","3324017.0"
"1572978342305","3340021.0"
"1572978342353","3283328.0"
"1572978342403","3251992.0"
"1572978342452","3207141.0"
"1572978342498","3126026.0"
"1572978342546","3061345.0"
"1572978342594","2966418.0"
"1572978342644","2931435.0"
"1572978342692","2868179.0"
"1572978342740","2835386.0"
"1572978342787","2768987.0"
"1572978342835","2734035.0"
"1572978342884","2665561.0"
"1572978342933","2674196.0"
"1572978342978","2697242.0"
"1572978343028","2767939.0"
"1572978343076","2680342.0"
"1572978343125","2598048.0"
"1572978343174","2529720.0"
"1572978343221","2465824.0"
"1572978343269","2423263.0"
"1572978343316","2389006.0"
"1572978343366","2372713.0"
"1572978343414","2318579.0"
"1572978343462","2296254.0"
"1572978343510","2364064.0"
"1572978343557","2368739.0"
"1572978343604","2343393.0"
"1572978343655","2338631.0"
"1572978343704","2324803.0"
"1572978343751","2285675.0"
"1572978343800","2238561.0"
"1572978343847","2204641.0"
"1572978343894","2182842.0"
"1572978343942","2162202.0"
"1572978343993","2147439.0"
"1572978344038","2121065.0"
"1572978344086","2084345.0"
"1572978344137","2058124.0"
"1572978344185","2056803.0"
"1572978344234","2063038.0"
"1572978344282","2057953.0"
"1572978344329","2047955.0"
"1572978344378","2033800.0"
"1572978344425","1997104.0"
"1572978344475","2001265.0"
"1572978344523","2126039.0"
"1572978344569","2267467.0"
"1572978344620","2319169.0"
"1572978344666","2307458.0"
"1572978344716","2346957.0"
"1572978344764","2363192.0"
"1572978344812","2344795.0"
"1572978344860","2358103.0"
"1572978344908","2330209.0"
"1572978344957","2300724.0"
"1572978345004","2300017.0"
"1572978345057","2306190.0"
"1572978345101","2312011.0"
"1572978345149","2377593.0"
"1572978345198","2469930.0"
"1572978345243","2450972.0"
"1572978345296","2444005.0"
"1572978345340","2470554.0"
"1572978345388","2496778.0"
"1572978345438","2498677.0"
"1572978345485","2479869.0"
"1572978345536","2478165.0"
"1572978345582","2480975.0"
"1572978345632","2467504.0"
"1572978345681","2451076.0"
"1572978345728","2434515.0"
"1572978345778","2424269.0"
"1572978345824","2419547.0"
"1572978345874","2423592.0"
"1572978345923","2428483.0"
"1572978345969","2431498.0"
"1572978346019","2411085.0"
"1572978346066","2386903.0"
"1572978346116","2373526.0"
"1572978346164","2364787.0"
"1572978346213","2365167.0"
"1572978346260","2365624.0"
"1572978346308","2375354.0"
"1572978346357","2385897.0"
"1572978346402","2396235.0"
"1572978346451","2411769.0"
"1572978346501","2434157.0"
"1572978346547","2439944.0"
"1572978346597","2427383.0"
"1572978346645","2412897.0"
"1572978346692","2405995.0"
"1572978346742","2408017.0"
"1572978346789","2407403.0"
"1572978346837","2407141.0"
"1572978346885","2401086.0"
"1572978346932","2387025.0"
"1572978346983","2374922.0"
"1572978347030","2367739.0"
"1572978347081","2362227.0"
"1572978347126","2340319.0"
"1572978347175","2318281.0"
"1572978347223","2313541.0"
"1572978347270","2319514.0"
"1572978347322","2327614.0"
"1572978347367","2340289.0"
"1572978347416","2341113.0"
"1572978347464","2344129.0"
"1572978347512","2344275.0"
"1572978347561","2342814.0"
"1572978347608","2353017.0"
"1572978347659","2364781.0"
"1572978347704","2352918.0"
"1572978347753","2325977.0"
"1572978347802","2305418.0"
"1572978347849","2289873.0"
"1572978347899","2282233.0"
"1572978347946","2280305.0"
"1572978347994","2285431.0"
"1572978348043","2293034.0"
"1572978348091","2300609.0"
"1572978348143","2309794.0"
"1572978348186","2322062.0"
"1572978348235","2325743.0"
"1572978348284","2309339.0"
"1572978348332","2280510.0"
"1572978348384","2258052.0"
"1572978348428","2252633.0"
"1572978348476","2254059.0"
"1572978348525","2256824.0"
"1572978348572","2266069.0"
"1572978348623","2274186.0"
"1572978348669","2275210.0"
"1572978348717","2268009.0"
"1572978348765","2249518.0"
"1572978348814","2215822.0"
"1572978348864","2189442.0"
"1572978348910","2186156.0"
"1572978348961","2201088.0"
"1572978349007","2226200.0"
"1572978349056","2237895.0"
"1572978349105","2246351.0"
"1572978349152","2276547.0"
"1572978349205","2302033.0"
"1572978349248","2327702.0"
"1572978349297","2326777.0"
"1572978349345","2324831.0"
"1572978349393","2299637.0"
"1572978349444","2283432.0"
"1572978349489","2280265.0"
"1572978349538","2278523.0"
"1572978349583","2267847.0"
"1572978349634","2244522.0"
"1572978349684","2219369.0"
"1572978349730","2195553.0"
"1572978349784","2181148.0"
"1572978349824","2185689.0"
"1572978349875","2197465.0"
"1572978349923","2202327.0"
"1572978349971","2191030.0"
"1572978350024","2189255.0"
"1572978350066","2168880.0"
"1572978350116","2149881.0"
"1572978350165","2131041.0"
"1572978350213","2184864.0"
"1572978350266","2262621.0"
"1572978350309","2328525.0"
"1572978350357","2400022.0"
"1572978350406","2421873.0"
"1572978350454","2427290.0"
"1572978350505","2426105.0"
"1572978350549","2410361.0"
"1572978350599","2370960.0"
"1572978350646","2330536.0"
"1572978350695","2288961.0"
"1572978350745","2250863.0"
"1572978350791","2222478.0"
"1572978350840","2201404.0"
"1572978350888","2178834.0"
"1572978350934","2164282.0"
"1572978350985","2157129.0"
"1572978351033","2158427.0"
"1572978351085","2162822.0"
"1572978351129","2154002.0"
"1572978351178","2136850.0"
"1572978351225","2126260.0"
"1572978351275","2119533.0"
"1572978351325","2123255.0"
"1572978351371","2128755.0"
"1572978351419","2145026.0"
"1572978351467","2154114.0"
"1572978351517","2161834.0"
"1572978351566","2165323.0"
"1572978351612","2163084.0"
"1572978351662","2180540.0"
"1572978351708","2183842.0"
"1572978351758","2147732.0"
"1572978351806","2129030.0"
"1572978351854","2117634.0"
"1572978351905","2128808.0"
"1572978351950","2174598.0"
"1572978352000","2246597.0"
"1572978352045","2280492.0"
"1572978352095","2245516.0"
"1572978352145","2219515.0"
"1572978352191","2206768.0"
"1572978352241","2213069.0"
"1572978352288","2226411.0"
"1572978352335","2196967.0"
"1572978352384","2165130.0"
"1572978352433","2162137.0"
"1572978352481","2161529.0"
"1572978352528","2192363.0"
"1572978352578","2244662.0"
"1572978352626","2304530.0"
"1572978352673","2305505.0"
"1572978352723","2288085.0"
"1572978352769","2287926.0"
"1572978352817","2299971.0"
"1572978352866","2329630.0"
"1572978352914","2306551.0"
"1572978352964","2266963.0"
"1572978353010","2254053.0"
"1572978353060","2267704.0"
"1572978353108","2305763.0"
"1572978353155","2389211.0"
"1572978353207","2448312.0"
"1572978353252","2412751.0"
"1572978353301","2385639.0"
"1572978353348","2376401.0"
"1572978353396","2385452.0"
"1572978353446","2428109.0"
"1572978353493","2453012.0"
"1572978353542","2416753.0"
"1572978353589","2387317.0"
"1572978353637","2375793.0"
"1572978353686","2377102.0"
"1572978353734","2384406.0"
"1572978353783","2369275.0"
"1572978353830","2310046.0"
"1572978353878","2273930.0"
"1572978353925","2280825.0"
"1572978353974","2303553.0"
"1572978354022","2347741.0"
"1572978354070","2331517.0"
"1572978354120","2389632.0"
"1572978354168","2407005.0"
"1572978354216","2420524.0"
"1572978354265","2463758.0"
"1572978354312","2481495.0"
"1572978354359","2495270.0"
"1572978354409","2473207.0"
"1572978354457","2443083.0"
"1572978354506","2422465.0"
"1572978354553","2396527.0"
"1572978354602","2359950.0"
"1572978354650","2335012.0"
"1572978354699","2321962.0"
"1572978354747","2317322.0"
"1572978354794","2315416.0"
"1572978354843","2320975.0"
"1572978354890","2326643.0"
"1572978354940","2329455.0"
"1572978354987","2344894.0"
"1572978355035","2337058.0"
"1572978355082","2336918.0"
"1572978355131","2509419.0"
"1572978355181","2637574.0"
"1572978355228","2658759.0"
"1572978355277","2647222.0"
"1572978355322","2648082.0"
"1572978355373","2637224.0"
"1572978355422","2616185.0"
"1572978355469","2597963.0"
"1572978355518","2582237.0"
"1572978355566","2599529.0"
"1572978355614","2622281.0"
"1572978355664","2622228.0"
"1572978355711","2604830.0"
"1572978355760","2581745.0"
"1572978355809","2555107.0"
"1572978355855","2524930.0"
"1572978355904","2491769.0"
"1572978355952","2481653.0"
"1572978356000","2482897.0"
"1572978356050","2498700.0"
"1572978356096","2514590.0"
"1572978356145","2528172.0"
"1572978356192","2521750.0"
"1572978356242","2502424.0"
"1572978356290","2495130.0"
"1572978356338","2494498.0"
"1572978356386","2495977.0"
"1572978356433","2492277.0"
"1572978356484","2487503.0"
"1572978356532","2498641.0"
"1572978356579","2523457.0"
"1572978356625","2521772.0"
"1572978356675","2520165.0"
"1572978356724","2515630.0"
"1572978356773","2494352.0"
"1572978356819","2464489.0"
"1572978356868","2447372.0"
"1572978356915","2424960.0"
"1572978356965","2405569.0"
"1572978357013","2406725.0"
"1572978357062","2448306.0"
"1572978357110","2487724.0"
"1572978357158","2535255.0"
"1572978357207","2549946.0"
"1572978357253","2539550.0"
"1572978357300","2516829.0"
"1572978357351","2481286.0"
"1572978357400","2452041.0"
"1572978357447","2427542.0"
"1572978357495","2408204.0"
"1572978357544","2400735.0"
"1572978357592","2401326.0"
"1572978357641","2404971.0"
"1572978357688","2403604.0"
"1572978357737","2397901.0"
"1572978357783","2395838.0"
"1572978357834","2388504.0"
"1572978357881","2367488.0"
"1572978357929","2345561.0"
"1572978357979","2342983.0"
"1572978358026","2347688.0"
"1572978358074","2360224.0"
"1572978358124","2370462.0"
"1572978358173","2373788.0"
"1572978358219","2379574.0"
"1572978358267","2380982.0"
"1572978358314","2376401.0"
"1572978358364","2372689.0"
"1572978358413","2358144.0"
"1572978358460","2338320.0"
"1572978358508","2325538.0"
"1572978358555","2323208.0"
"1572978358605","2324394.0"
"1572978358652","2320956.0"
"1572978358699","2315609.0"
"1572978358748","2310694.0"
"1572978358795","2307860.0"
"1572978358845","2310637.0"
"1572978358894","2312342.0"
"1572978358942","2299755.0"
"1572978358990","2276431.0"
"1572978359038","2255274.0"
"1572978359086","2237947.0"
"1572978359135","2244112.0"
"1572978359183","2243563.0"
"1572978359234","2340933.0"
"1572978359280","2540995.0"
"1572978359328","2639211.0"
"1572978359377","2599009.0"
"1572978359426","2566721.0"
"1572978359474","2628423.0"
"1572978359521","2672627.0"
"1572978359569","2683457.0"
"1572978359618","2702736.0"
"1572978359666","2679651.0"
"1572978359716","2654850.0"
"1572978359762","2620113.0"
"1572978359811","2597449.0"
"1572978359860","2571324.0"
"1572978359905","2532368.0"
"1572978359955","2501278.0"
"1572978360003","2489222.0"
"1572978360054","2477679.0"
"1572978360099","2482606.0"
"1572978360146","2496609.0"
"1572978360198","2496298.0"
"1572978360245","2475347.0"
"1572978360295","2473770.0"
"1572978360342","2456553.0"
"1572978360390","2434176.0"
"1572978360437","2416930.0"
"1572978360484","2393665.0"
"1572978360534","2378457.0"
"1572978360584","2359564.0"
"1572978360631","2418765.0"
"1572978360680","2454700.0"
"1572978360728","2448095.0"
"1572978360777","2483395.0"
"1572978360824","2491324.0"
"1572978360873","2496509.0"
"1572978360921","2504972.0"
"1572978360968","2523572.0"
"1572978361018","2544991.0"
"1572978361063","2558608.0"
"1572978361114","2556393.0"
"1572978361162","2546277.0"
"1572978361209","2530212.0"
"1572978361258","2488689.0"
"1572978361306","2458242.0"
"1572978361356","2443087.0"
"1572978361401","2437910.0"
"1572978361450","2450206.0"
"1572978361501","2459264.0"
"1572978361545","2450919.0"
"1572978361597","2427034.0"
"1572978361643","2444391.0"
"1572978361692","2462344.0"
"1572978361740","2502558.0"
"1572978361788","2754994.0"
"1572978361836","2910524.0"
"1572978361885","2857858.0"
"1572978361933","2805564.0"
"1572978361981","2780895.0"
"1572978362029","2828759.0"
"1572978362079","2806154.0"
"1572978362126","2796103.0"
"1572978362174","2870743.0"
"1572978362222","2842170.0"
"1572978362270","2817147.0"
"1572978362320","2869644.0"
"1572978362367","2898771.0"
"1572978362415","2919529.0"
"1572978362463","2927057.0"
"1572978362511","2913095.0"
"1572978362562","2895977.0"
"1572978362608","2945769.0"
"1572978362658","3091937.0"
"1572978362704","3192596.0"
"1572978362753","3227771.0"
"1572978362802","3222003.0"
"1572978362849","3263467.0"
"1572978362898","3320886.0"
"1572978362945","3312318.0"
"1572978362993","3307690.0"
"1572978363043","3298035.0"
"1572978363090","3297328.0"
"1572978363140","3263386.0"
"1572978363185","3309748.0"
"1572978363235","3356548.0"
"1572978363284","3340932.0"
"1572978363331","3320565.0"
"1572978363383","3322565.0"
"1572978363427","3295406.0"
"1572978363475","3250454.0"
"1572978363522","3208094.0"
"1572978363572","3200908.0"
"1572978363622","3182258.0"
"1572978363668","3162605.0"
"1572978363717","3164428.0"
"1572978363764","3126032.0"
"1572978363814","3097593.0"
"1572978363863","3054610.0"
"1572978363910","3027896.0"
"1572978363960","3031562.0"
"1572978364005","3049218.0"
"1572978364054","3021966.0"
"1572978364104","2950141.0"
"1572978364149","2898005.0"
"1572978364205","2872064.0"
"1572978364247","2873817.0"
"1572978364295","2902172.0"
"1572978364345","2923257.0"
"1572978364393","2952718.0"
"1572978364444","2956728.0"
"1572978364489","2924854.0"
"1572978364536","2887399.0"
"1572978364585","2845561.0"
"1572978364634","2808315.0"
"1572978364691","2788488.0"
"1572978364730","2780692.0"
"1572978364784","2765029.0"
"1572978364826","2749958.0"
"1572978364875","2730181.0"
"1572978364924","2718165.0"
"1572978364972","2726469.0"
"1572978365025","2757302.0"
"1572978365068","2818801.0"
"1572978365117","2862876.0"
"1572978365166","2867049.0"
"1572978365214","2829653.0"
"1572978365265","2802712.0"
"1572978365307","2793272.0"
"1572978365356","2796850.0"
"1572978365404","2800286.0"
"1572978365454","2796763.0"
"1572978365504","2792951.0"
"1572978365548","2800170.0"
"1572978365599","2799859.0"
"1572978365645","2793892.0"
"1572978365693","2769072.0"
"1572978365744","2737095.0"
"1572978365792","2715680.0"
"1572978365844","2715066.0"
"1572978365888","2720310.0"
"1572978365935","2727602.0"
"1572978365985","2729520.0"
"1572978366033","2760834.0"
"1572978366085","2905031.0"
"1572978366128","2942118.0"
"1572978366177","2913521.0"
"1572978366226","3080419.0"
"1572978366274","3167355.0"
"1572978366325","3074147.0"
"1572978366370","3040765.0"
"1572978366419","3007904.0"
"1572978366466","3062635.0"
"1572978366515","3112677.0"
"1572978366565","3166222.0"
"1572978366611","3199709.0"
"1572978366660","3209380.0"
"1572978366708","3209510.0"
"1572978366756","3296465.0"
"1572978366805","3418888.0"
"1572978366853","3385949.0"
"1572978366901","3361702.0"
"1572978366948","3359083.0"
"1572978366998","3354327.0"
"1572978367046","3315090.0"
"1572978367093","3294384.0"
"1572978367144","3298340.0"
"1572978367190","3383927.0"
"1572978367240","3375973.0"
"1572978367287","3469923.0"
"1572978367336","3452403.0"
"1572978367386","3415222.0"
"1572978367432","3372893.0"
"1572978367480","3340062.0"
"1572978367528","3319507.0"
"1572978367577","3308292.0"
"1572978367626","3245982.0"
"1572978367673","3222389.0"
"1572978367723","3205353.0"
"1572978367769","3242148.0"
"1572978367818","3257092.0"
"1572978367866","3231425.0"
"1572978367914","3184765.0"
"1572978367963","3152885.0"
"1572978368010","3103502.0"
"1572978368060","3097780.0"
"1572978368105","3092855.0"
"1572978368155","3073985.0"
"1572978368205","3046540.0"
"1572978368251","3013989.0"
"1572978368300","3005409.0"
"1572978368348","3001226.0"
"1572978368397","3017624.0"
"1572978368446","3057982.0"
"1572978368493","3068204.0"
"1572978368540","3034443.0"
"1572978368588","2989958.0"
"1572978368637","2967224.0"
"1572978368685","2921780.0"
"1572978368733","2903803.0"
"1572978368783","2900175.0"
"1572978368829","2888866.0"
"1572978368878","2901430.0"
"1572978368927","2914106.0"
"1572978368974","2924795.0"
"1572978369024","2935747.0"
"1572978369070","2917595.0"
"1572978369120","2888439.0"
"1572978369168","2839196.0"
"1572978369216","2808259.0"
"1572978369265","2778920.0"
"1572978369312","2752353.0"
"1572978369360","2736292.0"
"1572978369409","2733230.0"
"1572978369458","2723155.0"
"1572978369506","2715617.0"
"1572978369553","2705523.0"
"1572978369602","2696061.0"
"1572978369649","2682124.0"
"1572978369699","2654632.0"
"1572978369746","2628002.0"
"1572978369794","2618341.0"
"1572978369843","2612380.0"
"1572978369890","2627470.0"
"1572978369940","2661207.0"
"1572978369987","2672727.0"
"1572978370035","2672656.0"
"1572978370084","2659425.0"
"1572978370132","2648771.0"
"1572978370180","2651782.0"
"1572978370229","2660652.0"
"1572978370277","2644469.0"
"1572978370325","2605596.0"
"1572978370373","2578659.0"
"1572978370422","2567141.0"
"1572978370469","2560928.0"
"1572978370519","2556919.0"
"1572978370567","2546915.0"
"1572978370614","2526291.0"
"1572978370664","2505246.0"
"1572978370710","2488484.0"
"1572978370758","2481694.0"
"1572978370810","2490577.0"
"1572978370855","2489035.0"
"1572978370905","2483850.0"
"1572978370950","2490536.0"
"1572978370999","2500039.0"
"1572978371049","2499864.0"
"1572978371095","2492296.0"
"1572978371145","2487387.0"
"1572978371193","2488315.0"
"1572978371243","2497653.0"
"1572978371291","2493498.0"
"1572978371338","2482395.0"
"1572978371386","2474546.0"
"1572978371434","2456681.0"
"1572978371485","2425882.0"
"1572978371533","2406731.0"
"1572978371578","2396346.0"
"1572978371629","2382636.0"
"1572978371676","2366120.0"
"1572978371722","2350114.0"
"1572978371770","2345667.0"
"1572978371819","2347548.0"
"1572978371869","2361380.0"
"1572978371915","2389093.0"
"1572978371963","2409472.0"
"1572978372011","2405581.0"
"1572978372060","2382742.0"
"1572978372111","2359243.0"
"1572978372159","2347028.0"
"1572978372206","2358184.0"
"1572978372254","2374162.0"
"1572978372303","2362024.0"
"1572978372351","2349084.0"
"1572978372401","2337005.0"
"1572978372447","2329979.0"
"1572978372495","2325217.0"
"1572978372544","2319595.0"
"1572978372592","2292736.0"
"1572978372640","2255685.0"
"1572978372688","2229741.0"
"1572978372737","2215348.0"
"1572978372785","2214267.0"
"1572978372833","2224318.0"
"1572978372881","2234786.0"
"1572978372931","2248116.0"
"1572978372978","2265281.0"
"1572978373026","2267869.0"
"1572978373073","2269395.0"
"1572978373123","2261260.0"
"1572978373173","2239028.0"
"1572978373224","2220292.0"
"1572978373271","2243031.0"
"1572978373319","2248425.0"
"1572978373368","2242324.0"
"1572978373413","2235440.0"
"1572978373458","2219830.0"
"1572978373506","2208873.0"
"1572978373555","2212764.0"
"1572978373605","2211777.0"
"1572978373653","2207652.0"
"1572978373700","2197436.0"
"1572978373748","2186589.0"
"1572978373796","2164971.0"
"1572978373845","2148888.0"
"1572978373894","2139566.0"
"1572978373943","2155223.0"
"1572978373990","2183444.0"
"1572978374038","2180276.0"
"1572978374087","2173305.0"
"1572978374135","2156294.0"
"1572978374184","2139865.0"
"1572978374233","2134022.0"
"1572978374280","2148673.0"
"1572978374327","2194011.0"
"1572978374376","2196851.0"
"1572978374425","2176205.0"
"1572978374473","2159169.0"
"1572978374520","2145844.0"
"1572978374569","2142145.0"
"1572978374617","2157013.0"
"1572978374665","2162155.0"
"1572978374714","2161454.0"
"1572978374762","2154294.0"
"1572978374809","2154083.0"
"1572978374859","2150239.0"
"1572978374906","2141565.0"
"1572978374955","2129347.0"
"1572978375003","2128223.0"
"1572978375050","2121258.0"
"1572978375100","2116559.0"
"1572978375147","2107881.0"
"1572978375196","2096934.0"
"1572978375244","2082878.0"
"1572978375292","2077338.0"
"1572978375340","2084037.0"
"1572978375388","2113058.0"
"1572978375436","2114362.0"
"1572978375485","2111158.0"
"1572978375534","2092271.0"
"1572978375581","2072710.0"
"1572978375629","2064138.0"
"1572978375678","2077889.0"
"1572978375726","2080928.0"
"1572978375774","2126149.0"
"1572978375823","2265994.0"
"1572978375870","2284917.0"
"1572978375921","2439096.0"
"1572978375966","2477498.0"
"1572978376016","2452918.0"
"1572978376061","2484973.0"
"1572978376112","2622315.0"
"1572978376160","2594864.0"
"1572978376208","2493212.0"
"1572978376256","2442193.0"
"1572978376305","2351867.0"
"1572978376350","2298638.0"
"1572978376401","2294729.0"
"1572978376449","2346502.0"
"1572978376497","2447768.0"
"1572978376545","2579811.0"
"1572978376596","2810368.0"
"1572978376643","3004444.0"
"1572978376690","3117763.0"
"1572978376739","3048645.0"
"1572978376786","2946482.0"
"1572978376836","2897538.0"
"1572978376883","2863175.0"
"1572978376931","2820268.0"
"1572978376980","2803484.0"
"1572978377027","2798333.0"
"1572978377076","2820624.0"
"1572978377124","2836022.0"
"1572978377172","2878610.0"
"1572978377220","3020281.0"
"1572978377269","3011212.0"
"1572978377318","3065579.0"
"1572978377365","3225516.0"
"1572978377414","3259166.0"
"1572978377463","3216493.0"
"1572978377510","3187267.0"
"1572978377561","3162126.0"
"1572978377605","3376664.0"
"1572978377659","3630496.0"
"1572978377707","3750745.0"
"1572978377758","3685934.0"
"1572978377804","3836734.0"
"1572978377851","3811842.0"
"1572978377899","3688882.0"
"1572978377948","3735326.0"
"1572978377996","3704230.0"
"1572978378040","3624196.0"
"1572978378088","3787156.0"
"1572978378139","3854868.0"
"1572978378186","3851026.0"
"1572978378231","3965086.0"
"1572978378287","3876425.0"
"1572978378334","3921643.0"
"1572978378386","4095166.0"
"1572978378431","4244748.0"
"1572978378477","4280403.0"
"1572978378529","4373625.0"
"1572978378575","4194423.0"
"1572978378626","4008488.0"
"1572978378671","3881122.0"
"1572978378719","3814105.0"
"1572978378770","3842088.0"
"1572978378810","3802607.0"
"1572978378861","3720395.0"
"1572978378912","3638087.0"
"1572978378960","3542816.0"
"1572978379009","3454354.0"
"1572978379057","3338701.0"
"1572978379103","3252945.0"
"1572978379153","3173341.0"
"1572978379200","3101244.0"
"1572978379251","3077373.0"
"1572978379299","3070140.0"
"1572978379348","3026393.0"
"1572978379395","2983168.0"
"1572978379441","2968691.0"
"1572978379491","2988873.0"
"1572978379540","2999172.0"
"1572978379589","3007965.0"
"1572978379636","2963683.0"
"1572978379681","2898722.0"
"1572978379733","2853144.0"
"1572978379783","2853174.0"
"1572978379829","2836868.0"
"1572978379877","2811637.0"
"1572978379923","2784310.0"
"1572978379973","2753198.0"
"1572978380024","2727617.0"
"1572978380071","2706874.0"
"1572978380119","2684261.0"
"1572978380166","2640211.0"
"1572978380216","2583245.0"
"1572978380262","2543843.0"
"1572978380312","2538666.0"
"1572978380360","2521055.0"
"1572978380407","2514620.0"
"1572978380456","2500197.0"
"1572978380503","2488710.0"
"1572978380553","2479303.0"
"1572978380596","2469703.0"
"1572978380645","2466941.0"
"1572978380693","2457797.0"
"1572978380743","2408699.0"
"1572978380790","2361612.0"
"1572978380840","2331643.0"
"1572978380886","2320034.0"
"1572978380933","2317852.0"
"1572978380982","2312309.0"
"1572978381032","2301889.0"
"1572978381084","2285584.0"
"1572978381126","2273550.0"
"1572978381175","2269466.0"
"1572978381224","2274590.0"
"1572978381273","2272343.0"
"1572978381324","2247942.0"
"1572978381369","2239910.0"
"1572978381418","2256014.0"
"1572978381466","2273704.0"
"1572978381514","2290874.0"
"1572978381563","2294562.0"
"1572978381610","2284665.0"
"1572978381660","2273769.0"
"1572978381705","2265138.0"
"1572978381754","2258602.0"
"1572978381802","2241040.0"
"1572978381849","2216356.0"
"1572978381899","2190047.0"
"1572978381946","2168960.0"
"1572978381997","2158203.0"
"1572978382043","2149067.0"
"1572978382091","2141437.0"
"1572978382143","2131730.0"
"1572978382187","2121238.0"
"1572978382240","2119901.0"
"1572978382284","2125360.0"
"1572978382332","2130362.0"
"1572978382383","2134798.0"
"1572978382428","2134889.0"
"1572978382479","2136693.0"
"1572978382525","2135261.0"
"1572978382575","2139377.0"
"1572978382623","2145901.0"
"1572978382672","2143622.0"
"1572978382722","2136842.0"
"1572978382769","2130600.0"
"1572978382818","2118578.0"
"1572978382866","2100079.0"
"1572978382913","2088533.0"
"1572978382965","2086274.0"
"1572978383014","2072210.0"
"1572978383066","2056317.0"
"1572978383106","2049202.0"
"1572978383160","2033759.0"
"1572978383208","2021237.0"
"1572978383257","2009061.0"
"1572978383304","2002572.0"
"1572978383353","2005203.0"
"1572978383402","2019616.0"
"1572978383446","2028326.0"
"1572978383497","2040620.0"
"1572978383546","2053445.0"
"1572978383590","2051756.0"
"1572978383642","2036904.0"
"1572978383686","2024238.0"
"1572978383734","2016178.0"
"1572978383788","2010002.0"
"1572978383836","2004904.0"
"1572978383887","1992724.0"
"1572978383930","1980909.0"
"1572978383981","1978195.0"
"1572978384031","1980909.0"
"1572978384077","1981771.0"
"1572978384125","1992090.0"
"1572978384173","1992100.0"
"1572978384222","1979528.0"
"1572978384268","1961882.0"
"1572978384318","1955076.0"
"1572978384367","1957489.0"
"1572978384415","1959019.0"
"1572978384466","1959936.0"
"1572978384510","1967268.0"
"1572978384560","1979359.0"
"1572978384603","1992525.0"
"1572978384656","1995276.0"
"1572978384705","2025482.0"
"1572978384746","2033294.0"
"1572978384802","2018462.0"
"1572978384849","2003523.0"
"1572978384892","1998163.0"
"1572978384947","1986706.0"
"1572978384994","1976789.0"
"1572978385044","1973686.0"
"1572978385089","1972780.0"
"1572978385141","1971236.0"
"1572978385188","1974777.0"
"1572978385236","1975574.0"
"1572978385285","1968536.0"
"1572978385327","1960486.0"
"1572978385381","1950762.0"
"1572978385429","1944238.0"
"1572978385472","1946374.0"
"1572978385526","1957018.0"
"1572978385568","1967079.0"
"1572978385622","1984619.0"
"1572978385668","2015148.0"
"1572978385717","2031244.0"
"1572978385770","2044513.0"
"1572978385810","2039655.0"
"1572978385864","2041719.0"
"1572978385909","2039090.0"
"1572978385960","2040001.0"
"1572978386008","2023070.0"
"1572978386056","2011196.0"
"1572978386102","2000705.0"
"1572978386151","1994800.0"
"1572978386201","1994880.0"
"1572978386249","1996537.0"
"1572978386298","1991381.0"
"1572978386346","1977461.0"
"1572978386388","1966793.0"
"1572978386436","1962160.0"
"1572978386484","1963276.0"
"1572978386532","1968581.0"
"1572978386588","1977337.0"
"1572978386636","2020146.0"
"1572978386685","2084173.0"
"1572978386732","2109787.0"
"1572978386776","2169677.0"
"1572978386824","2202390.0"
"1572978386870","2193206.0"
"1572978386921","2181888.0"
"1572978386967","2169463.0"
"1572978387018","2155127.0"
"1572978387066","2139513.0"
"1572978387113","2122087.0"
"1572978387167","2111368.0"
"1572978387209","2094659.0"
"1572978387264","2078689.0"
"1572978387310","2068266.0"
"1572978387359","2057041.0"
"1572978387409","2042305.0"
"1572978387450","2034627.0"
"1572978387505","2032595.0"
"1572978387552","2038292.0"
"1572978387597","2049235.0"
"1572978387650","2076206.0"
"1572978387697","2141986.0"
"1572978387747","2197981.0"
"1572978387792","2218945.0"
"1572978387844","2200427.0"
"1572978387892","2188440.0"
"1572978387933","2176398.0"
"1572978387984","2167145.0"
"1572978388030","2157679.0"
"1572978388084","2143388.0"
"1572978388135","2124281.0"
"1572978388182","2112002.0"
"1572978388223","2103170.0"
"1572978388274","2095431.0"
"1572978388323","2086263.0"
"1572978388370","2071263.0"
"1572978388421","2056606.0"
"1572978388470","2045429.0"
"1572978388520","2038639.0"
"1572978388568","2037514.0"
"1572978388614","2043507.0"
"1572978388665","2050427.0"
"1572978388712","2066805.0"
"1572978388762","2104740.0"
"1572978388809","2167159.0"
"1572978388853","2199958.0"
"1572978388907","2192983.0"
"1572978388956","2180211.0"
"1572978389004","2162216.0"
"1572978389051","2150932.0"
"1572978389096","2148668.0"
"1572978389149","2142738.0"
"1572978389194","2131153.0"
"1572978389245","2120151.0"
"1572978389293","2114245.0"
"1572978389342","2108816.0"
"1572978389390","2102026.0"
"1572978389431","2090859.0"
"1572978389487","2081611.0"
"1572978389536","2063995.0"
"1572978389584","2051553.0"
"1572978389630","2050816.0"
"1572978389680","2052994.0"
"1572978389728","2060350.0"
"1572978389777","2072641.0"
"1572978389825","2092405.0"
"1572978389872","2135070.0"
"1572978389921","2165164.0"
"1572978389969","2154938.0"
"1572978390012","2145562.0"
"1572978390065","2132069.0"
"1572978390113","2117688.0"
"1572978390163","2109559.0"
"1572978390210","2100156.0"
"1572978390253","2085658.0"
"1572978390308","2079219.0"
"1572978390355","2075517.0"
"1572978390404","2073506.0"
"1572978390452","2066592.0"
"1572978390499","2058780.0"
"1572978390548","2046600.0"
"1572978390594","2036920.0"
"1572978390646","2023797.0"
"1572978390693","2021504.0"
"1572978390743","2014600.0"
"1572978390791","2016749.0"
"1572978390836","2038456.0"
"1572978390888","2097176.0"
"1572978390935","2142313.0"
"1572978390985","2130182.0"
"1572978391031","2121309.0"
"1572978391079","2106934.0"
"1572978391129","2095754.0"
"1572978391178","2093212.0"
"1572978391226","2095075.0"
"1572978391274","2085534.0"
"1572978391323","2063492.0"
"1572978391370","2053024.0"
"1572978391418","2045653.0"
"1572978391468","2040283.0"
"1572978391514","2035374.0"
"1572978391564","2030856.0"
"1572978391608","2024100.0"
"1572978391655","2012692.0"
"1572978391708","2003230.0"
"1572978391757","2002988.0"
"1572978391806","2004504.0"
"1572978391847","2007070.0"
"1572978391898","2009278.0"
"1572978391945","2042408.0"
"1572978391997","2081666.0"
"1572978392040","2093549.0"
"1572978392087","2102643.0"
"1572978392140","2089254.0"
"1572978392184","2082899.0"
"1572978392237","2085241.0"
"1572978392282","2085757.0"
"1572978392335","2075721.0"
"1572978392385","2061257.0"
"1572978392431","2053495.0"
"1572978392476","2040957.0"
"1572978392527","2030317.0"
"1572978392577","2020780.0"
"1572978392625","2016540.0"
"1572978392673","2010938.0"
"1572978392716","2006891.0"
"1572978392765","2006410.0"
"1572978392814","2009506.0"
"1572978392863","2012692.0"
"1572978392909","2020677.0"
"1572978392959","2026825.0"
"1572978393006","2049755.0"
"1572978393056","2091816.0"
"1572978393103","2100104.0"
"1572978393151","2099592.0"
"1572978393201","2086471.0"
"1572978393248","2083523.0"
"1572978393297","2085985.0"
"1572978393345","2096739.0"
"1572978393392","2085961.0"
"1572978393441","2071515.0"
"1572978393489","2067151.0"
"1572978393540","2060806.0"
"1572978393585","2055814.0"
"1572978393634","2046118.0"
"1572978393683","2038540.0"
"1572978393734","2030029.0"
"1572978393780","2023773.0"
"1572978393830","2020480.0"
"1572978393880","2018606.0"
"1572978393928","2020331.0"
"1572978393976","2030445.0"
"1572978394024","2042309.0"
"1572978394072","2079620.0"
"1572978394120","2130389.0"
"1572978394169","2135789.0"
"1572978394218","2143546.0"
"1572978394266","2126193.0"
"1572978394314","2120947.0"
"1572978394361","2128160.0"
"1572978394410","2138355.0"
"1572978394460","2127823.0"
"1572978394508","2116861.0"
"1572978394555","2102653.0"
"1572978394603","2093559.0"
"1572978394653","2088194.0"
"1572978394701","2082062.0"
"1572978394750","2072017.0"
"1572978394798","2056149.0"
"1572978394843","2043593.0"
"1572978394894","2036236.0"
"1572978394942","2038058.0"
"1572978394990","2044385.0"
"1572978395038","2058290.0"
"1572978395084","2067846.0"
"1572978395129","2111416.0"
"1572978395181","2158065.0"
"1572978395232","2158992.0"
"1572978395280","2154404.0"
"1572978395329","2139652.0"
"1572978395377","2128150.0"
"1572978395421","2127561.0"
"1572978395468","2125009.0"
"1572978395515","2109976.0"
"1572978395564","2099795.0"
"1572978395611","2089967.0"
"1572978395665","2084624.0"
"1572978395709","2075483.0"
"1572978395764","2066816.0"
"1572978395806","2059899.0"
"1572978395855","2048006.0"
"1572978395901","2030238.0"
"1572978395951","2023005.0"
"1572978396005","2032560.0"
"1572978396048","2045049.0"
"1572978396097","2053985.0"
"1572978396145","2055239.0"
"1572978396193","2074993.0"
"1572978396245","2101599.0"
"1572978396289","2090404.0"
"1572978396338","2084142.0"
"1572978396385","2076533.0"
"1572978396434","2061494.0"
"1572978396484","2047778.0"
"1572978396530","2040066.0"
"1572978396580","2023842.0"
"1572978396626","2013356.0"
"1572978396676","2008214.0"
"1572978396725","2001473.0"
"1572978396771","1996885.0"
"1572978396824","1992104.0"
"1572978396867","1992031.0"
"1572978396916","1981157.0"
"1572978396965","1962621.0"
"1572978397013","1942781.0"
"1572978397064","1940498.0"
"1572978397109","1950717.0"
"1572978397159","1962843.0"
"1572978397206","1972849.0"
"1572978397254","2015372.0"
"1572978397303","2052325.0"
"1572978397350","2040179.0"
"1572978397400","2040155.0"
"1572978397447","2031571.0"
"1572978397496","2028117.0"
"1572978397545","2023318.0"
"1572978397592","2015975.0"
"1572978397643","2000566.0"
"1572978397693","1989052.0"
"1572978397741","1984981.0"
"1572978397784","1981736.0"
"1572978397833","1976135.0"
"1572978397882","1972039.0"
"1572978397930","1969824.0"
"1572978397980","1961264.0"
"1572978398027","1949251.0"
"1572978398076","1940364.0"
"1572978398124","1933990.0"
"1572978398176","1934445.0"
"1572978398226","1958678.0"
"1572978398273","2014283.0"
"1572978398317","2068949.0"
"1572978398365","2090398.0"
"1572978398413","2072913.0"
"1572978398466","2056104.0"
"1572978398507","2040996.0"
"1572978398564","2031412.0"
"1572978398606","2030648.0"
"1572978398659","2032674.0"
"1572978398706","2016205.0"
"1572978398756","1996385.0"
"1572978398804","1984794.0"
"1572978398852","1980210.0"
"1572978398901","1979676.0"
"1572978398947","1977130.0"
"1572978398998","1974058.0"
"1572978399046","1966342.0"
"1572978399090","1964984.0"
"1572978399142","1961134.0"
"1572978399187","1963562.0"
"1572978399239","1967957.0"
"1572978399290","1969773.0"
"1572978399334","1988053.0"
"1572978399384","2037851.0"
"1572978399432","2053613.0"
"1572978399475","2038357.0"
"1572978399528","2042538.0"
"1572978399576","2027582.0"
"1572978399625","2021310.0"
"1572978399673","2019925.0"
"1572978399721","2015173.0"
"1572978399769","2002245.0"
"1572978399817","1994191.0"
"1572978399867","1980434.0"
"1572978399914","1967193.0"
"1572978399964","1964489.0"
"1572978400005","1963607.0"
"1572978400059","1959060.0"
"1572978400103","1954200.0"
"1572978400151","1954393.0"
"1572978400204","1962036.0"
"1572978400247","1971482.0"
"1572978400300","1977209.0"
"1572978400347","1985680.0"
"1572978400396","2020325.0"
"1572978400446","2064125.0"
"1572978400493","2067350.0"
"1572978400536","2042453.0"
"1572978400585","2028885.0"
"1572978400638","2022406.0"
"1572978400687","2019344.0"
"1572978400735","2023119.0"
"1572978400779","2015782.0"
"1572978400829","2001993.0"
"1572978400880","1996409.0"
"1572978400929","1992328.0"
"1572978400977","1991133.0"
"1572978401026","1985145.0"
"1572978401069","1983878.0"
"1572978401123","1975060.0"
"1572978401171","1972821.0"
"1572978401218","1973083.0"
"1572978401267","1978853.0"
"1572978401313","1980895.0"
"1572978401365","1983981.0"
"1572978401409","1986399.0"
"1572978401459","1996052.0"
"1572978401508","2031695.0"
"1572978401556","2052677.0"
"1572978401601","2042457.0"
"1572978401651","2020683.0"
"1572978401701","2005890.0"
"1572978401749","1998029.0"
"1572978401791","1999104.0"
"1572978401840","1995824.0"
"1572978401888","1984654.0"
"1572978401941","1979696.0"
"1572978401990","1976332.0"
"1572978402039","1975787.0"
"1572978402085","1977927.0"
"1572978402135","1981340.0"
"1572978402185","1981970.0"
"1572978402231","1975222.0"
"1572978402281","1969367.0"
"1572978402329","1965108.0"
"1572978402378","1969239.0"
"1572978402426","1978680.0"
"1572978402468","1988394.0"
"1572978402523","2016595.0"
"1572978402570","2055594.0"
"1572978402619","2042745.0"
"1572978402667","2027073.0"
"1572978402715","2023803.0"
"1572978402765","2025933.0"
"1572978402810","2034933.0"
"1572978402860","2045102.0"
"1572978402904","2033655.0"
"1572978402957","2015382.0"
"1572978403006","1998510.0"
"1572978403051","1993368.0"
"1572978403098","1990540.0"
"1572978403149","1988786.0"
"1572978403198","1987220.0"
"1572978403248","1984863.0"
"1572978403290","1981464.0"
"1572978403338","1984461.0"
"1572978403386","1990267.0"
"1572978403435","1998900.0"
"1572978403484","1997226.0"
"1572978403533","1993971.0"
"1572978403581","1994112.0"
"1572978403634","2014752.0"
"1572978403680","2033794.0"
"1572978403729","2030742.0"
"1572978403776","2043379.0"
"1572978403826","2035929.0"
"1572978403874","2027528.0"
"1572978403921","2022402.0"
"1572978403970","2015922.0"
"1572978404018","2007990.0"
"1572978404067","1997177.0"
"1572978404109","1983640.0"
"1572978404164","1974048.0"
"1572978404212","1977902.0"
"1572978404256","1983045.0"
"1572978404305","1978869.0"
"1572978404353","1974891.0"
"1572978404401","1969160.0"
"1572978404452","1964800.0"
"1572978404495","1969928.0"
"1572978404549","1975619.0"
"1572978404592","1982238.0"
"1572978404646","1997891.0"
"1572978404691","2018647.0"
"1572978404745","2007312.0"
"1572978404794","1991025.0"
"1572978404839","2013949.0"
"1572978404887","2018427.0"
"1572978404933","2028891.0"
"1572978404983","2042859.0"
"1572978405032","2031095.0"
"1572978405076","2013807.0"
"1572978405129","2006078.0"
"1572978405172","2000020.0"
"1572978405226","1992531.0"
"1572978405273","1965559.0"
"1572978405322","1937160.0"
"1572978405370","1926420.0"
"1572978405417","1914784.0"
"1572978405467","1906696.0"
"1572978405513","1911421.0"
"1572978405564","2014890.0"
"1572978405609","2051078.0"
"1572978405660","2067636.0"
"1572978405708","2100648.0"
"1572978405753","2106973.0"
"1572978405805","2149709.0"
"1572978405853","2141535.0"
"1572978405897","2112457.0"
"1572978405949","2117416.0"
"1572978405992","2109817.0"
"1572978406047","2122766.0"
"1572978406090","2092613.0"
"1572978406144","2080946.0"
"1572978406191","2084632.0"
"1572978406239","2122786.0"
"1572978406288","2272195.0"
"1572978406335","2385123.0"
"1572978406386","2446230.0"
"1572978406434","2515768.0"
"1572978406477","2658690.0"
"1572978406530","2766411.0"
"1572978406574","2828485.0"
"1572978406627","2800016.0"
"1572978406676","2761362.0"
"1572978406724","2766573.0"
"1572978406771","2796306.0"
"1572978406815","2807584.0"
"1572978406868","2851061.0"
"1572978406916","2900291.0"
"1572978406965","2879154.0"
"1572978407012","2864258.0"
"1572978407063","2863368.0"
"1572978407105","2927268.0"
"1572978407158","2940178.0"
"1572978407207","2899072.0"
"1572978407255","2874270.0"
"1572978407305","2844564.0"
"1572978407350","2881269.0"
"1572978407398","2964197.0"
"1572978407447","3064771.0"
"1572978407497","3183532.0"
"1572978407544","3430877.0"
"1572978407590","3430442.0"
"1572978407634","3411968.0"
"1572978407689","3370678.0"
"1572978407737","3405098.0"
"1572978407786","3429189.0"
"1572978407829","3404757.0"
"1572978407880","3360540.0"
"1572978407925","3381215.0"
"1572978407981","3441970.0"
"1572978408028","3500190.0"
"1572978408075","3671497.0"
"1572978408119","3796563.0"
"1572978408171","3838244.0"
"1572978408219","3959633.0"
"1572978408269","4162531.0"
"1572978408317","4286628.0"
"1572978408366","4356987.0"
"1572978408414","4430234.0"
"1572978408461","4543792.0"
"1572978408510","4470060.0"
"1572978408558","4419801.0"
"1572978408602","4413622.0"
"1572978408654","4353698.0"
"1572978408698","4331889.0"
"1572978408751","4355569.0"
"1572978408802","4419545.0"
"1572978408847","4377744.0"
"1572978408896","4408092.0"
"1572978408945","4513696.0"
"1572978408992","4611061.0"
"1572978409039","4654130.0"
"1572978409089","4682018.0"
"1572978409137","4711647.0"
"1572978409187","4707120.0"
"1572978409234","4608233.0"
"1572978409279","4548774.0"
"1572978409325","4503084.0"
"1572978409374","4398193.0"
"1572978409424","4276829.0"
"1572978409471","4070521.0"
"1572978409522","4051933.0"
"1572978409571","4052490.0"
"1572978409619","4175158.0"
"1572978409669","4240859.0"
"1572978409716","4337867.0"
"1572978409763","4413157.0"
"1572978409813","4556375.0"
"1572978409859","4650199.0"
"1572978409905","4631838.0"
"1572978409958","4619520.0"
"1572978410007","4605450.0"
"1572978410054","4593714.0"
"1572978410103","4426981.0"
"1572978410152","4334289.0"
"1572978410199","4251589.0"
"1572978410248","4216340.0"
"1572978410296","4207553.0"
"1572978410341","4198893.0"
"1572978410392","4202213.0"
"1572978410441","4207880.0"
"1572978410490","4134552.0"
"1572978410537","4056021.0"
"1572978410585","3986891.0"
"1572978410633","3941449.0"
"1572978410680","3874342.0"
"1572978410730","3808751.0"
"1572978410779","3722010.0"
"1572978410825","3646025.0"
"1572978410874","3590828.0"
"1572978410922","3554555.0"
"1572978410971","3522371.0"
"1572978411020","3480533.0"
"1572978411069","3474017.0"
"1572978411117","3555677.0"
"1572978411161","3611897.0"
"1572978411213","3639135.0"
"1572978411262","3601184.0"
"1572978411310","3564101.0"
"1572978411358","3551097.0"
"1572978411402","3543897.0"
"1572978411454","3561973.0"
"1572978411503","3625520.0"
"1572978411551","3630585.0"
"1572978411595","3509916.0"
"1572978411643","3399092.0"
"1572978411696","3328747.0"
"1572978411749","3284144.0"
"1572978411792","3260172.0"
"1572978411841","3233718.0"
"1572978411883","3201572.0"
"1572978411938","3156868.0"
"1572978411987","3135616.0"
"1572978412033","3127029.0"
"1572978412082","3107301.0"
"1572978412126","3070482.0"
"1572978412179","3036930.0"
"1572978412222","3012447.0"
"1572978412275","2991697.0"
"1572978412328","2979614.0"
"1572978412370","2970215.0"
"1572978412421","2960863.0"
"1572978412463","2949666.0"
"1572978412518","2947923.0"
"1572978412568","2975416.0"
"1572978412611","3017465.0"
"1572978412661","3015037.0"
"1572978412704","3034656.0"
"1572978412758","3005758.0"
"1572978412802","2984953.0"
"1572978412855","3043417.0"
"1572978412904","3072672.0"
"1572978412951","3055252.0"
"1572978413000","3016616.0"
"1572978413043","3021206.0"
"1572978413092","3039758.0"
"1572978413148","3016462.0"
"1572978413193","2985126.0"
"1572978413242","3004353.0"
"1572978413288","3026407.0"
"1572978413337","3066329.0"
"1572978413388","3072698.0"
"1572978413434","3066311.0"
"1572978413477","3045908.0"
"1572978413531","3052176.0"
"1572978413578","3042996.0"
"1572978413624","3034319.0"
"1572978413670","3026545.0"
"1572978413720","3015503.0"
"1572978413768","3004298.0"
"1572978413816","2999954.0"
"1572978413863","2970233.0"
"1572978413912","2917865.0"
"1572978413963","2899460.0"
"1572978414009","2891940.0"
"1572978414058","2897089.0"
"1572978414106","2854209.0"
"1572978414154","2836394.0"
"1572978414204","2828298.0"
"1572978414250","2825711.0"
"1572978414300","2822631.0"
"1572978414347","2822146.0"
"1572978414396","2827737.0"
"1572978414444","2808411.0"
"1572978414492","2771202.0"
"1572978414541","2752969.0"
"1572978414588","2740041.0"
"1572978414638","2716615.0"
"1572978414686","2702092.0"
"1572978414738","2695775.0"
"1572978414787","2690519.0"
"1572978414834","2677516.0"
"1572978414883","2669537.0"
"1572978414931","2679261.0"
"1572978414979","2715828.0"
"1572978415030","2740951.0"
"1572978415076","2746898.0"
"1572978415126","2763119.0"
"1572978415172","2770962.0"
"1572978415222","2799774.0"
"1572978415268","2838804.0"
"1572978415317","2885896.0"
"1572978415367","2929176.0"
"1572978415414","2919820.0"
"1572978415463","2919334.0"
"1572978415504","2925145.0"
"1572978415558","2908420.0"
"1572978415604","2897367.0"
"1572978415655","2886286.0"
"1572978415705","2861080.0"
"1572978415747","2882391.0"
"1572978415804","2938388.0"
"1572978415850","2995848.0"
"1572978415896","2980244.0"
"1572978415946","3023400.0"
"1572978415991","3119618.0"
"1572978416041","3260277.0"
"1572978416090","3411409.0"
"1572978416133","3511519.0"
"1572978416186","3576303.0"
"1572978416234","3604801.0"
"1572978416284","3600386.0"
"1572978416330","3604130.0"
"1572978416379","3623950.0"
"1572978416428","3639881.0"
"1572978416471","3661671.0"
"1572978416525","3675339.0"
"1572978416568","3692982.0"
"1572978416622","3685146.0"
"1572978416667","3683551.0"
"1572978416718","3676202.0"
"1572978416766","3651139.0"
"1572978416808","3606690.0"
"1572978416865","3523777.0"
"1572978416909","3420257.0"
"1572978416959","3419205.0"
"1572978417008","3362476.0"
"1572978417049","3334034.0"
"1572978417100","3323103.0"
"1572978417148","3322441.0"
"1572978417202","3303899.0"
"1572978417249","3296056.0"
"1572978417298","3279693.0"
"1572978417346","3241041.0"
"1572978417389","3211339.0"
"1572978417442","3198027.0"
"1572978417492","3194857.0"
"1572978417538","3187809.0"
"1572978417589","3179253.0"
"1572978417635","3156738.0"
"1572978417684","3136357.0"
"1572978417729","3111931.0"
"1572978417779","3110954.0"
"1572978417829","3081908.0"
"1572978417877","3047805.0"
"1572978417921","3040168.0"
"1572978417971","3051030.0"
"1572978418021","3062274.0"
"1572978418069","3082298.0"
"1572978418118","3124134.0"
"1572978418168","3177646.0"
"1572978418209","3229925.0"
"1572978418263","3270154.0"
"1572978418310","3284492.0"
"1572978418359","3293244.0"
"1572978418405","3294407.0"
"1572978418452","3276669.0"
"1572978418501","3259073.0"
"1572978418549","3236051.0"
"1572978418597","3246069.0"
"1572978418649","3262563.0"
"1572978418698","3275889.0"
"1572978418746","3242758.0"
"1572978418791","3218161.0"
"1572978418843","3244783.0"
"1572978418891","3252475.0"
"1572978418934","3229700.0"
"1572978418987","3257876.0"
"1572978419031","3283232.0"
"1572978419085","3321016.0"
"1572978419131","3319436.0"
"1572978419180","3306554.0"
"1572978419229","3436970.0"
"1572978419274","3417124.0"
"1572978419327","3414290.0"
"1572978419371","3311571.0"
"1572978419422","3302298.0"
"1572978419471","3279303.0"
"1572978419518","3226209.0"
"1572978419568","3162089.0"
"1572978419616","3099503.0"
"1572978419664","3100982.0"
"1572978419712","3198992.0"
"1572978419759","3383608.0"
"1572978419811","3450479.0"
"1572978419856","3517358.0"
"1572978419906","3577220.0"
"1572978419951","3631012.0"
"1572978419999","3641886.0"
"1572978420051","3613149.0"
"1572978420092","3511842.0"
"1572978420141","3481071.0"
"1572978420191","3479661.0"
"1572978420237","3454394.0"
"1572978420290","3439804.0"
"1572978420341","3325952.0"
"1572978420389","3461321.0"
"1572978420431","3343286.0"
"1572978420487","3321728.0"
"1572978420532","3394340.0"
"1572978420583","3430954.0"
"1572978420630","3442931.0"
"1572978420678","3413873.0"
"1572978420727","3382761.0"
"1572978420774","3382460.0"
"1572978420825","3369654.0"
"1572978420871","3104869.0"
"1572978420916","2856234.0"
"1572978420969","2878717.0"
"1572978421011","2874144.0"
"1572978421066","2906057.0"
"1572978421112","2940023.0"
"1572978421162","2935623.0"
"1572978421210","2904710.0"
"1572978421253","2741999.0"
"1572978421307","2438532.0"
"1572978421354","2337060.0"
"1572978421404","2385117.0"
"1572978421451","2366563.0"
"1572978421499","2370444.0"
"1572978421549","2396690.0"
"1572978421594","2460822.0"
"1572978421645","2452569.0"
"1572978421693","2413716.0"
"1572978421742","2340461.0"
"1572978421791","2300499.0"
"1572978421833","2264228.0"
"1572978421888","2241993.0"
"1572978421930","2223282.0"
"1572978421983","2185886.0"
"1572978422030","2158793.0"
"1572978422081","2141943.0"
"1572978422130","2120687.0"
"1572978422175","2112426.0"
"1572978422225","2107601.0"
"1572978422274","2106774.0"
"1572978422322","2111985.0"
"1572978422370","2115267.0"
"1572978422416","2108428.0"
"1572978422466","2094551.0"
"1572978422514","2076241.0"
"1572978422563","2063847.0"
"1572978422607","2055572.0"
"1572978422655","2054038.0"
"1572978422708","2049288.0"
"1572978422756","2046604.0"
"1572978422805","2050714.0"
"1572978422852","2050584.0"
"1572978422902","2048820.0"
"1572978422949","2047504.0"
"1572978422999","2043329.0"
"1572978423047","2026918.0"
"1572978423090","2010368.0"
"1572978423140","2004646.0"
"1572978423191","2003325.0"
"1572978423237","2011127.0"
"1572978423288","2012858.0"
"1572978423336","2013301.0"
"1572978423385","2008704.0"
"1572978423426","2011881.0"
"1572978423476","2013551.0"
"1572978423526","2020063.0"
"1572978423574","2014008.0"
"1572978423623","2003626.0"
"1572978423670","2005973.0"
"1572978423725","2006034.0"
"1572978423771","2015246.0"
"1572978423820","2020020.0"
"1572978423867","2014285.0"
"1572978423915","2008303.0"
"1572978423964","2014055.0"
"1572978424012","2029456.0"
"1572978424058","2034631.0"
"1572978424104","2026855.0"
"1572978424153","2018633.0"
"1572978424204","2015845.0"
"1572978424253","2014195.0"
"1572978424304","2025955.0"
"1572978424350","2033066.0"
"1572978424401","2023308.0"
"1572978424448","2015869.0"
"1572978424496","2006247.0"
"1572978424545","2011865.0"
"1572978424589","2021384.0"
"1572978424638","2031120.0"
"1572978424689","2038022.0"
"1572978424738","2045529.0"
"1572978424787","2055836.0"
"1572978424834","2061984.0"
"1572978424880","2061381.0"
"1572978424926","2054345.0"
"1572978424979","2056289.0"
"1572978425021","2061734.0"
"1572978425071","2060674.0"
"1572978425124","2048804.0"
"1572978425171","2037538.0"
"1572978425219","2034653.0"
"1572978425268","2034033.0"
"1572978425318","2046636.0"
"1572978425366","2048554.0"
"1572978425414","2049938.0"
"1572978425459","2040452.0"
"1572978425510","2036701.0"
"1572978425553","2035458.0"
"1572978425602","2048934.0"
"1572978425651","2044972.0"
"1572978425703","2034944.0"
"1572978425748","2036660.0"
"1572978425803","2039275.0"
"1572978425849","2038641.0"
"1572978425896","2032416.0"
"1572978425946","2031240.0"
"1572978425993","2031723.0"
"1572978426039","2039109.0"
"1572978426089","2045669.0"
"1572978426139","2042626.0"
"1572978426186","2034507.0"
"1572978426235","2025114.0"
"1572978426280","2018393.0"
"1572978426332","2017066.0"
"1572978426381","2020333.0"
"1572978426430","2018470.0"
"1572978426472","2022440.0"
"1572978426522","2017726.0"
"1572978426573","2002472.0"
"1572978426621","2001785.0"
"1572978426670","2015729.0"
"1572978426719","2007470.0"
"1572978426763","2000538.0"
"1572978426818","2006003.0"
"1572978426861","2016792.0"
"1572978426913","2016702.0"
"1572978426960","2010715.0"
"1572978427010","2003523.0"
"1572978427057","2004796.0"
"1572978427104","2004433.0"
"1572978427148","2000619.0"
"1572978427201","2001156.0"
"1572978427251","1996921.0"
"1572978427298","1986295.0"
"1572978427346","1980424.0"
"1572978427396","1986681.0"
"1572978427441","1997931.0"
"1572978427492","2000682.0"
"1572978427541","1998831.0"
"1572978427584","1986706.0"
"1572978427637","1968341.0"
"1572978427682","1973833.0"
"1572978427735","1982073.0"
"1572978427787","1974349.0"
"1572978427825","1971291.0"
"1572978427880","1975810.0"
"1572978427923","1980013.0"
"1572978427976","1977297.0"
"1572978428026","1974542.0"
"1572978428073","1978947.0"
"1572978428123","1975749.0"
"1572978428170","1972855.0"
"1572978428218","1972262.0"
"1572978428263","1977069.0"
"1572978428315","1973562.0"
"1572978428365","1966667.0"
"1572978428411","1960039.0"
"1572978428460","1955541.0"
"1572978428502","1960452.0"
"1572978428550","1961866.0"
"1572978428604","1966297.0"
"1572978428647","1964149.0"
"1572978428701","1957315.0"
"1572978428748","1953237.0"
"1572978428792","1959426.0"
"1572978428845","1954604.0"
"1572978428894","1942194.0"
"1572978428943","1939328.0"
"1572978428991","1946433.0"
"1572978429040","1948535.0"
"1572978429084","1944775.0"
"1572978429136","1943251.0"
"1572978429186","1935553.0"
"1572978429233","1940274.0"
"1572978429283","1948572.0"
"1572978429328","1955691.0"
"1572978429378","1950787.0"
"1572978429428","1937450.0"
"1572978429469","1928925.0"
"1572978429524","1924567.0"
"1572978429571","1932058.0"
"1572978429621","1934913.0"
"1572978429662","1932062.0"
"1572978429716","1929488.0"
"1572978429766","1927954.0"
"1572978429808","1922336.0"
"1572978429862","1926810.0"
"1572978429908","1927558.0"
"1572978429957","1917718.0"
