time,value,value2,value3
1577365892697,1.062849E7,8240553.0,0.0
1577365892748,1.0605637E7,8253622.0,0.0
1577365892793,1.0641985E7,8285228.0,0.0
1577365892853,1.0654767E7,8288864.0,0.0
1577365892895,1.049457E7,8221160.0,0.0
1577365892975,1.0411267E7,8182230.0,0.0
1577365893011,1.0433045E7,8214750.0,0.0
1577365893062,1.0386172E7,8194267.0,0.0
1577365893092,1.0383893E7,8207438.0,0.0
1577365893137,1.0371924E7,8210432.0,0.0
1577365893187,1.0355744E7,8207989.0,0.0
1577365893235,1.0282514E7,8160598.0,0.0
1577365893285,1.0265113E7,8130081.0,0.0
1577365893333,1.0217508E7,8065172.0,0.0
1577365893384,1.0173893E7,8038554.0,0.0
1577365893433,1.0154027E7,8026399.0,0.0
1577365893479,1.0161495E7,8089247.0,0.0
1577365893533,1.0161883E7,8127757.0,0.0
1577365893580,1.0120791E7,8102590.0,0.0
1577365893630,1.0134652E7,8072643.0,0.0
1577365893677,1.0167032E7,8091282.0,0.0
1577365893729,1.0081674E7,8067004.0,0.0
1577365893776,1.0044774E7,8043684.0,0.0
1577365893825,9971810.0,8029743.0,0.0
1577365893872,9917099.0,8002296.0,0.0
1577365893923,9875620.0,7987902.0,0.0
1577365893972,9811978.0,7966678.0,0.0
1577365894020,9709685.0,7921669.0,0.0
1577365894072,9600270.0,7870205.0,0.0
1577365894120,9536991.0,7824963.0,0.0
1577365894168,9523843.0,7831536.0,0.0
1577365894217,9578368.0,7869915.0,0.0
1577365894267,9592839.0,7848646.0,0.0
1577365894315,9564712.0,7843079.0,0.0
1577365894363,9492662.0,7802634.0,0.0
1577365894412,9440460.0,7760344.0,0.0
1577365894461,9412981.0,7753106.0,0.0
1577365894513,9405370.0,7757931.0,0.0
1577365894559,9370283.0,7743845.0,0.0
1577365894611,9322148.0,7738101.0,0.0
1577365894658,9256733.0,7722882.0,0.0
1577365894709,9247901.0,7727576.0,0.0
1577365894756,9221544.0,7725032.0,0.0
1577365894806,9216212.0,7742550.0,0.0
1577365894856,9197875.0,7737289.0,0.0
1577365894904,9177987.0,7734773.0,0.0
1577365894954,9108260.0,7689414.0,0.0
1577365895002,9076874.0,7647009.0,0.0
1577365895054,9026362.0,7606956.0,0.0
1577365895100,8906057.0,7544547.0,0.0
1577365895151,8840338.0,7547164.0,0.0
1577365895198,8785627.0,7525793.0,0.0
1577365895247,8774637.0,7529252.0,0.0
1577365895297,8740242.0,7501850.0,0.0
1577365895344,8691434.0,7475944.0,0.0
1577365895396,8628465.0,7463178.0,0.0
1577365895444,8562786.0,7427604.0,0.0
1577365895495,8507629.0,7407049.0,0.0
1577365895542,8449543.0,7370386.0,0.0
1577365895589,8396686.0,7349088.0,0.0
1577365895639,8290728.0,7295414.0,0.0
1577365895689,8158233.0,7243368.0,0.0
1577365895737,8066461.0,7202941.0,0.0
1577365895786,8024981.0,7190175.0,0.0
1577365895836,7997363.0,7171176.0,0.0
1577365895885,7944060.0,7151723.0,0.0
1577365895934,7901564.0,7131036.0,0.0
1577365895982,7885118.0,7120263.0,0.0
1577365896035,7860695.0,7098893.0,0.0
1577365896080,7852229.0,7085460.0,0.0
1577365896131,7857905.0,7075866.0,0.0
1577365896178,7824793.0,7050613.0,0.0
1577365896228,7737559.0,7008438.0,0.0
1577365896276,7676767.0,6971078.0,0.0
1577365896326,7683115.0,6990688.0,0.0
1577365896375,7720096.0,7012785.0,0.0
1577365896428,7754474.0,7026685.0,0.0
1577365896475,7830857.0,7063813.0,0.0
1577365896525,7869041.0,7079034.0,0.0
1577365896572,7925050.0,7105115.0,0.0
1577365896623,7995146.0,7137870.0,0.0
1577365896674,8003796.0,7122996.0,0.0
1577365896722,7995392.0,7097978.0,0.0
1577365896771,7918760.0,7038518.0,0.0
1577365896816,7828842.0,6995051.0,0.0
1577365896863,7800897.0,6989366.0,0.0
1577365896916,7800023.0,6977008.0,0.0
1577365896962,7804522.0,6967865.0,0.0
1577365897013,7805560.0,6963706.0,0.0
1577365897061,7794325.0,6944342.0,0.0
1577365897115,7787648.0,6931957.0,0.0
1577365897163,7793082.0,6918407.0,0.0
1577365897213,7806840.0,6911691.0,0.0
1577365897262,7828110.0,6913013.0,0.0
1577365897309,7836291.0,6896237.0,0.0
1577365897358,7796809.0,6863237.0,0.0
1577365897409,7727630.0,6826310.0,0.0
1577365897456,7690342.0,6793296.0,0.0
1577365897501,7696508.0,6779237.0,0.0
1577365897554,7704426.0,6770805.0,0.0
1577365897599,7694617.0,6750351.0,0.0
1577365897654,7689468.0,6729678.0,0.0
1577365897697,7690057.0,6707858.0,0.0
1577365897752,7691746.0,6695471.0,0.0
1577365897794,7708803.0,6688130.0,0.0
1577365897849,7723925.0,6678099.0,0.0
1577365897896,7741326.0,6667574.0,0.0
1577365897942,7727221.0,6643834.0,0.0
1577365897998,7658448.0,6602284.0,0.0
1577365898038,7622996.0,6578343.0,0.0
1577365898088,7624583.0,6571130.0,0.0
1577365898136,7644690.0,6575333.0,0.0
1577365898185,7654275.0,6570041.0,0.0
1577365898236,7655680.0,6553396.0,0.0
1577365898290,7664658.0,6551883.0,0.0
1577365898335,7690320.0,6548918.0,0.0
1577365898388,7716882.0,6552495.0,0.0
1577365898441,7746779.0,6555371.0,0.0
1577365898485,7773688.0,6554616.0,0.0
1577365898536,7793693.0,6556476.0,0.0
1577365898583,7773301.0,6533914.0,0.0
1577365898633,7717939.0,6502091.0,0.0
1577365898679,7701639.0,6493455.0,0.0
1577365898730,7706053.0,6493251.0,0.0
1577365898775,7727670.0,6491449.0,0.0
1577365898828,7738620.0,6491363.0,0.0
1577365898879,7745334.0,6486144.0,0.0
1577365898926,7758891.0,6482813.0,0.0
1577365898974,7778062.0,6481475.0,0.0
1577365899024,7801245.0,6485023.0,0.0
1577365899074,7824548.0,6486230.0,0.0
1577365899122,7848685.0,6488338.0,0.0
1577365899171,7869487.0,6485752.0,0.0
1577365899216,7872113.0,6475880.0,0.0
1577365899269,7815306.0,6442516.0,0.0
1577365899316,7770532.0,6418006.0,0.0
1577365899360,7777451.0,6441411.0,0.0
1577365899411,7851801.0,6530672.0,0.0
1577365899458,7912901.0,6582266.0,0.0
1577365899509,7960422.0,6636128.0,0.0
1577365899558,7991135.0,6673068.0,0.0
1577365899608,8036626.0,6699674.0,0.0
1577365899656,8078877.0,6739231.0,0.0
1577365899706,8126321.0,6792176.0,0.0
1577365899757,8169120.0,6831924.0,0.0
1577365899804,8199365.0,6839149.0,0.0
1577365899858,8242922.0,6846868.0,0.0
1577365899902,8257901.0,6857581.0,0.0
1577365899957,8222668.0,6840993.0,0.0
1577365900004,8179236.0,6792306.0,0.0
1577365900052,8147712.0,6738139.0,0.0
1577365900098,8126972.0,6689831.0,0.0
1577365900151,8099313.0,6645710.0,0.0
1577365900196,8095403.0,6621839.0,0.0
1577365900248,8083924.0,6596965.0,0.0
1577365900299,8058869.0,6570971.0,0.0
1577365900346,8052640.0,6543932.0,0.0
1577365900397,8054513.0,6528927.0,0.0
1577365900445,8041651.0,6515727.0,0.0
1577365900495,8034121.0,6495200.0,0.0
1577365900543,8027995.0,6483322.0,0.0
1577365900593,8023639.0,6463958.0,0.0
1577365900635,7962112.0,6419356.0,0.0
1577365900689,7883776.0,6380891.0,0.0
1577365900739,7928674.0,6409647.0,0.0
1577365900787,8010532.0,6471606.0,0.0
1577365900836,8134154.0,6558746.0,0.0
1577365900885,8229427.0,6629237.0,0.0
1577365900936,8357895.0,6705460.0,0.0
1577365900983,8439405.0,6805799.0,0.0
1577365901034,8483898.0,6824670.0,0.0
1577365901080,8434073.0,6738562.0,0.0
1577365901130,8331413.0,6629689.0,0.0
1577365901180,8245321.0,6515785.0,0.0
1577365901228,8158171.0,6412000.0,0.0
1577365901278,8074583.0,6345680.0,0.0
1577365901326,7976199.0,6274910.0,0.0
1577365901376,7918599.0,6243058.0,0.0
1577365901424,7896802.0,6201858.0,0.0
1577365901473,7897066.0,6196960.0,0.0
1577365901518,8116348.0,6246692.0,0.0
1577365901572,8181171.0,6237097.0,0.0
1577365901621,8494968.0,6307171.0,0.0
1577365901669,8547397.0,6348878.0,0.0
1577365901722,8595675.0,6466502.0,0.0
1577365901766,8592193.0,6538522.0,0.0
1577365901816,8622990.0,6595816.0,0.0
1577365901864,8634141.0,6555183.0,0.0
1577365901913,8597628.0,6509520.0,0.0
1577365901963,8588756.0,6453127.0,0.0
1577365902012,8625554.0,6426104.0,0.0
1577365902062,8795907.0,6431642.0,0.0
1577365902105,8876869.0,6442924.0,0.0
1577365902159,8876891.0,6417452.0,0.0
1577365902207,8847195.0,6413761.0,0.0
1577365902257,8876726.0,6421655.0,0.0
1577365902305,8906035.0,6443752.0,0.0
1577365902355,8920627.0,6512472.0,0.0
1577365902402,8963225.0,6515539.0,0.0
1577365902452,8944928.0,6515800.0,0.0
1577365902499,8901233.0,6481172.0,0.0
1577365902552,8800749.0,6434447.0,0.0
1577365902596,8742440.0,6386314.0,0.0
1577365902648,8724245.0,6363169.0,0.0
1577365902692,8710220.0,6335997.0,0.0
1577365902746,8699128.0,6325065.0,0.0
1577365902792,8673890.0,6306821.0,0.0
1577365902842,8657751.0,6302213.0,0.0
1577365902889,8665322.0,6303114.0,0.0
1577365902941,8680586.0,6330561.0,0.0
1577365902991,8726868.0,6363344.0,0.0
1577365903040,8742926.0,6367966.0,0.0
1577365903089,8704358.0,6335824.0,0.0
1577365903139,8631965.0,6302197.0,0.0
1577365903181,8605769.0,6286278.0,0.0
1577365903236,8606464.0,6272862.0,0.0
1577365903284,8610695.0,6270840.0,0.0
1577365903335,8606442.0,6267104.0,0.0
1577365903380,8592866.0,6263267.0,0.0
1577365903431,8597507.0,6262901.0,0.0
1577365903478,8597405.0,6256608.0,0.0
1577365903529,8614787.0,6259675.0,0.0
1577365903578,8624943.0,6265359.0,0.0
1577365903627,8628483.0,6260866.0,0.0
1577365903677,8560647.0,6255401.0,0.0
1577365903719,8532132.0,6248991.0,0.0
1577365903773,8528775.0,6248001.0,0.0
1577365903819,8556800.0,6255939.0,0.0
1577365903872,8566509.0,6255720.0,0.0
1577365903920,8563477.0,6255096.0,0.0
1577365903969,8555114.0,6256621.0,0.0
1577365904019,8555114.0,6255067.0,0.0
1577365904068,8560669.0,6253816.0,0.0
1577365904112,8579006.0,6259356.0,0.0
1577365904161,8590771.0,6259806.0,0.0
1577365904215,8571618.0,6263732.0,0.0
1577365904263,8495846.0,6248539.0,0.0
1577365904312,8451210.0,6236065.0,0.0
1577365904356,8451576.0,6236037.0,0.0
1577365904407,8470506.0,6232954.0,0.0
1577365904456,8491125.0,6245020.0,0.0
1577365904503,8483613.0,6248858.0,0.0
1577365904554,8485811.0,6248743.0,0.0
1577365904601,8500831.0,6256519.0,0.0
1577365904657,8510826.0,6257974.0,0.0
1577365904699,8529956.0,6264805.0,0.0
1577365904753,8536550.0,6264471.0,0.0
1577365904801,8483002.0,6257799.0,0.0
1577365904850,8395852.0,6240441.0,0.0
1577365904900,8358604.0,6222226.0,0.0
1577365904944,8349995.0,6216367.0,0.0
1577365904994,8357405.0,6219799.0,0.0
1577365905044,8355573.0,6221601.0,0.0
1577365905092,8338538.0,6215248.0,0.0
1577365905138,8335667.0,6213328.0,0.0
1577365905190,8337378.0,6217443.0,0.0
1577365905240,8348675.0,6222531.0,0.0
1577365905291,8356366.0,6220873.0,0.0
1577365905339,8371551.0,6224872.0,0.0
1577365905389,8355554.0,6223535.0,0.0
1577365905438,8261727.0,6201291.0,0.0
1577365905487,8195927.0,6175459.0,0.0
1577365905537,8173641.0,6158464.0,0.0
1577365905581,8179317.0,6158884.0,0.0
1577365905633,8180480.0,6151936.0,0.0
1577365905681,8169040.0,6148579.0,0.0
1577365905732,8155995.0,6143984.0,0.0
1577365905780,8159107.0,6140188.0,0.0
1577365905829,8171340.0,6141847.0,0.0
1577365905878,8182187.0,6144114.0,0.0
1577365905928,8199771.0,6143678.0,0.0
1577365905978,8213449.0,6143796.0,0.0
1577365906023,8187743.0,6141309.0,0.0
1577365906075,8101204.0,6123151.0,0.0
1577365906121,8050161.0,6094396.0,0.0
1577365906172,8040612.0,6083435.0,0.0
1577365906222,8054820.0,6077894.0,0.0
1577365906270,8061904.0,6076528.0,0.0
1577365906320,8048021.0,6074639.0,0.0
1577365906367,8053701.0,6068271.0,0.0
1577365906418,8051891.0,6065959.0,0.0
1577365906464,8061922.0,6068722.0,0.0
1577365906517,8064610.0,6065102.0,0.0
1577365906565,8085493.0,6083696.0,0.0
1577365906610,8102996.0,6110751.0,0.0
1577365906661,8081462.0,6123269.0,0.0
1577365906710,8004589.0,6115970.0,0.0
1577365906754,7963560.0,6106796.0,0.0
1577365906808,7955112.0,6108831.0,0.0
1577365906858,7962174.0,6119996.0,0.0
1577365906903,7967608.0,6124431.0,0.0
1577365906952,7964331.0,6132558.0,0.0
1577365907003,7954764.0,6133908.0,0.0
1577365907053,7960608.0,6142733.0,0.0
1577365907098,7966877.0,6152314.0,0.0
1577365907151,7981487.0,6158288.0,0.0
1577365907199,8000541.0,6166256.0,0.0
1577365907249,8017188.0,6179325.0,0.0
1577365907298,7995958.0,6177042.0,0.0
1577365907342,7915871.0,6162912.0,0.0
1577365907396,7866232.0,6141411.0,0.0
1577365907443,7868774.0,6135087.0,0.0
1577365907494,7879438.0,6137077.0,0.0
1577365907543,7877913.0,6139943.0,0.0
1577365907593,7868470.0,6148738.0,0.0
1577365907641,7861997.0,6151747.0,0.0
1577365907690,7878666.0,6151862.0,0.0
1577365907739,7892732.0,6158406.0,0.0
1577365907784,7916522.0,6170240.0,0.0
1577365907838,7936102.0,6175096.0,0.0
1577365907883,7959285.0,6186098.0,0.0
1577365907936,7962155.0,6190881.0,0.0
1577365907983,7891346.0,6180879.0,0.0
1577365908033,7840219.0,6160890.0,0.0
1577365908081,7844699.0,6148853.0,0.0
1577365908125,7859880.0,6141615.0,0.0
1577365908176,7865702.0,6129896.0,0.0
1577365908227,7835154.0,6114458.0,0.0
1577365908278,7831306.0,6095835.0,0.0
1577365908322,7838734.0,6085556.0,0.0
1577365908378,7855118.0,6087126.0,0.0
1577365908424,7877913.0,6094628.0,0.0
1577365908471,7894560.0,6096838.0,0.0
1577365908523,7919228.0,6099863.0,0.0
1577365908573,7928023.0,6101621.0,0.0
1577365908620,7874779.0,6087737.0,0.0
1577365908664,7807268.0,6047002.0,0.0
1577365908721,7795262.0,6021125.0,0.0
1577365908765,7812216.0,6013899.0,0.0
1577365908817,7831285.0,6012358.0,0.0
1577365908868,7824610.0,6008508.0,0.0
1577365908918,7822595.0,6001849.0,0.0
1577365908957,7834133.0,5993098.0,0.0
1577365909013,7844842.0,5989462.0,0.0
1577365909061,7865823.0,5993401.0,0.0
1577365909107,7891551.0,6000177.0,0.0
1577365909159,7906936.0,6002081.0,0.0
1577365909203,7924725.0,6007868.0,0.0
1577365909259,7910396.0,6009683.0,0.0
1577365909305,7818565.0,5971116.0,0.0
1577365909356,7786002.0,5937214.0,0.0
1577365909404,7786795.0,5923448.0,0.0
1577365909455,7802649.0,5918416.0,0.0
1577365909502,7801428.0,5913955.0,0.0
1577365909547,7796483.0,5904491.0,0.0
1577365909595,7794263.0,5896030.0,0.0
1577365909647,7797968.0,5892380.0,0.0
1577365909696,7824548.0,5894326.0,0.0
1577365909744,7841766.0,5897613.0,0.0
1577365909794,7857111.0,5901829.0,0.0
1577365909845,7879460.0,5907280.0,0.0
1577365909895,7889331.0,5909127.0,0.0
1577365909942,7854610.0,5900638.0,0.0
1577365909993,7773363.0,5859262.0,0.0
1577365910041,7745294.0,5824431.0,0.0
1577365910085,7749895.0,5808700.0,0.0
1577365910136,7763430.0,5810097.0,0.0
1577365910184,7764143.0,5801404.0,0.0
1577365910234,7752254.0,5790106.0,0.0
1577365910282,7750546.0,5781616.0,0.0
1577365910335,7762186.0,5783071.0,0.0
1577365910383,7785837.0,5787650.0,0.0
1577365910433,7805418.0,5789714.0,0.0
1577365910476,7825181.0,5802710.0,0.0
1577365910529,7843028.0,5806273.0,0.0
1577365910580,7861895.0,5813890.0,0.0
1577365910626,7802181.0,5798264.0,0.0
1577365910677,7731068.0,5755070.0,0.0
1577365910729,7708478.0,5728263.0,0.0
1577365910776,7719182.0,5718959.0,0.0
1577365910825,7736400.0,5723190.0,0.0
1577365910875,7733021.0,5716545.0,0.0
1577365910923,7719467.0,5706485.0,0.0
1577365910972,7717858.0,5696470.0,0.0
1577365911021,7738232.0,5704552.0,0.0
1577365911067,7758807.0,5705743.0,0.0
1577365911119,7772445.0,5709685.0,0.0
1577365911167,7794486.0,5714249.0,0.0
1577365911217,7817834.0,5724120.0,0.0
1577365911265,7829983.0,5735533.0,0.0
1577365911316,7795975.0,5731330.0,0.0
1577365911363,7707234.0,5684359.0,0.0
1577365911413,7675648.0,5649483.0,0.0
1577365911461,7677560.0,5636952.0,0.0
1577365911508,7700253.0,5643261.0,0.0
1577365911559,7688714.0,5635207.0,0.0
1577365911604,7678416.0,5621250.0,0.0
1577365911657,7675099.0,5616512.0,0.0
1577365911705,7685500.0,5614069.0,0.0
1577365911758,7700480.0,5619085.0,0.0
1577365911803,7721055.0,5624858.0,0.0
1577365911852,7737091.0,5629698.0,0.0
1577365911901,7757933.0,5635688.0,0.0
1577365911945,7777473.0,5649003.0,0.0
1577365911999,7795931.0,5658657.0,0.0
1577365912048,7735120.0,5638217.0,0.0
1577365912095,7659651.0,5618170.0,0.0
1577365912145,7621855.0,5676000.0,0.0
1577365912197,7591306.0,5758531.0,0.0
1577365912244,7585850.0,5822380.0,0.0
1577365912292,7570892.0,5834752.0,0.0
1577365912342,7589577.0,6010368.0,0.0
1577365912389,7653401.0,6109398.0,0.0
1577365912440,7753475.0,6081603.0,0.0
1577365912483,7847160.0,6036260.0,0.0
1577365912537,7872844.0,5960400.0,0.0
1577365912586,7997019.0,6024717.0,0.0
1577365912636,8206266.0,6085412.0,0.0
1577365912679,8348064.0,6122715.0,0.0
1577365912730,8448157.0,6114604.0,0.0
1577365912783,8400208.0,6092941.0,0.0
1577365912827,8370106.0,6069958.0,0.0
1577365912876,8354556.0,6051205.0,0.0
1577365912929,8414167.0,6040897.0,0.0
1577365912978,8494990.0,6045782.0,0.0
1577365913027,8544365.0,6052294.0,0.0
1577365913076,8600989.0,6056205.0,0.0
1577365913120,8634773.0,6073984.0,0.0
1577365913171,8758743.0,6133749.0,0.0
1577365913219,8817071.0,6184471.0,0.0
1577365913269,8844181.0,6281511.0,0.0
1577365913316,8902696.0,6342569.0,0.0
1577365913365,8902615.0,6417713.0,0.0
1577365913415,8920546.0,6486857.0,0.0
1577365913463,8912486.0,6587196.0,0.0
1577365913512,8848479.0,6654811.0,0.0
1577365913561,8781578.0,6701985.0,0.0
1577365913610,8761000.0,6754118.0,0.0
1577365913658,8731691.0,6714096.0,0.0
1577365913708,8704683.0,6667603.0,0.0
1577365913757,8673667.0,6612200.0,0.0
1577365913803,8650444.0,6554179.0,0.0
1577365913854,8634814.0,6500754.0,0.0
1577365913901,8615398.0,6454057.0,0.0
1577365913971,8620222.0,6411914.0,0.0
1577365914069,8607623.0,6369363.0,0.0
1577365914069,8609901.0,6341885.0,0.0
1577365914117,8602005.0,6313683.0,0.0
1577365914149,8522671.0,6278486.0,0.0
1577365914197,8419949.0,6204794.0,0.0
1577365914246,8363245.0,6153665.0,0.0
1577365914296,8474250.0,6187000.0,0.0
1577365914344,8525337.0,6200419.0,0.0
1577365914393,8518659.0,6218417.0,0.0
1577365914441,8464522.0,6184952.0,0.0
1577365914493,8394181.0,6185372.0,0.0
1577365914539,8380079.0,6155964.0,0.0
1577365914590,8348898.0,6119429.0,0.0
1577365914637,8374257.0,6120330.0,0.0
1577365914686,8367623.0,6098612.0,0.0
1577365914736,8411951.0,6104675.0,0.0
1577365914784,8366624.0,6095921.0,0.0
1577365914834,8279595.0,6048441.0,0.0
1577365914882,8220368.0,5998142.0,0.0
1577365914934,8224420.0,5971116.0,0.0
1577365914979,8213716.0,5947783.0,0.0
1577365915030,8209989.0,5927794.0,0.0
1577365915078,8188862.0,5930963.0,0.0
1577365915127,8186298.0,5950834.0,0.0
1577365915176,8242837.0,6019730.0,0.0
1577365915224,8388688.0,6075308.0,0.0
1577365915274,8497941.0,6162186.0,0.0
1577365915322,8636379.0,6250574.0,0.0
1577365915374,8730309.0,6329310.0,0.0
1577365915420,8788110.0,6393088.0,0.0
1577365915471,8847886.0,6463785.0,0.0
1577365915518,8951504.0,6553396.0,0.0
1577365915567,9069794.0,6583081.0,0.0
1577365915616,9165209.0,6661483.0,0.0
1577365915665,9265283.0,6763086.0,0.0
1577365915714,9383654.0,6850518.0,0.0
1577365915762,9504548.0,6855518.0,0.0
1577365915815,9637207.0,6845763.0,0.0
1577365915860,9774935.0,6838857.0,0.0
1577365915910,9879040.0,6834032.0,0.0
1577365915957,9970464.0,6830090.0,0.0
1577365916012,1.0051265E7,6826485.0,0.0
1577365916061,1.0124068E7,6843465.0,0.0
1577365916104,1.0185208E7,6857858.0,0.0
1577365916154,1.0244311E7,6888372.0,0.0
1577365916206,1.0309727E7,6902475.0,0.0
1577365916253,1.0356436E7,6918815.0,0.0
1577365916304,1.040117E7,6936377.0,0.0
1577365916352,1.0445257E7,6955478.0,0.0
1577365916403,1.0501814E7,6979307.0,0.0
1577365916447,1.051592E7,6997566.0,0.0
1577365916501,1.0575535E7,7022905.0,0.0
1577365916549,1.057755E7,7063465.0,0.0
1577365916595,1.0649475E7,7094676.0,0.0
1577365916648,1.075246E7,7120410.0,0.0
1577365916694,1.0758809E7,7367826.0,0.0
1577365916745,1.0781524E7,7639593.0,0.0
1577365916793,1.084417E7,7682727.0,0.0
1577365916843,1.0819664E7,7631947.0,0.0
1577365916887,1.0768171E7,7583276.0,0.0
1577365916941,1.0724271E7,7536041.0,0.0
1577365916991,1.0692421E7,7505658.0,0.0
1577365917037,1.0689162E7,7462002.0,0.0
1577365917088,1.0670888E7,7420643.0,0.0
1577365917134,1.0646118E7,7338548.0,0.0
1577365917184,1.0611335E7,7290007.0,0.0
1577365917233,1.0604884E7,7261061.0,0.0
1577365917283,1.0623912E7,7287272.0,0.0
1577365917326,1.0658837E7,7303060.0,0.0
1577365917382,1.0696469E7,7292478.0,0.0
1577365917429,1.0728404E7,7281778.0,0.0
1577365917474,1.0709354E7,7294644.0,0.0
1577365917528,1.0756512E7,7322644.0,0.0
1577365917577,1.0747779E7,7375545.0,0.0
1577365917620,1.0775661E7,7378264.0,0.0
1577365917674,1.0786614E7,7387088.0,0.0
1577365917719,1.0802936E7,7400683.0,0.0
1577365917767,1.0818058E7,7384471.0,0.0
1577365917819,1.0829597E7,7370443.0,0.0
1577365917865,1.0831531E7,7350671.0,0.0
1577365917913,1.0841157E7,7332122.0,0.0
1577365917963,1.0843702E7,7313645.0,0.0
1577365918016,1.0862365E7,7306347.0,0.0
1577365918065,1.0881254E7,7323648.0,0.0
1577365918109,1.0892957E7,7337153.0,0.0
1577365918164,1.0895418E7,7328357.0,0.0
1577365918214,1.0904557E7,7313878.0,0.0
1577365918260,1.0897982E7,7298758.0,0.0
1577365918310,1.0905493E7,7300736.0,0.0
1577365918354,1.0898614E7,7288711.0,0.0
1577365918408,1.0892083E7,7276805.0,0.0
1577365918461,1.0874455E7,7266382.0,0.0
1577365918501,1.0854732E7,7258997.0,0.0
1577365918556,1.0842602E7,7252762.0,0.0
1577365918600,1.0842115E7,7245607.0,0.0
1577365918656,1.084232E7,7240795.0,0.0
1577365918700,1.083664E7,7233512.0,0.0
1577365918751,1.0775237E7,7217580.0,0.0
1577365918795,1.0715234E7,7200788.0,0.0
1577365918849,1.0662846E7,7182383.0,0.0
1577365918897,1.0623872E7,7173517.0,0.0
1577365918946,1.0570079E7,7162349.0,0.0
1577365918995,1.042877E7,7142245.0,0.0
1577365919043,1.0276469E7,7105799.0,0.0
1577365919094,1.0173809E7,7076853.0,0.0
1577365919138,1.01178E7,7060733.0,0.0
1577365919190,1.0069972E7,7045801.0,0.0
1577365919234,1.0004271E7,7028007.0,0.0
1577365919289,9937879.0,7017701.0,0.0
1577365919339,9932792.0,7038168.0,0.0
1577365919386,9924366.0,7041731.0,0.0
1577365919436,9922556.0,7037996.0,0.0
1577365919483,9892922.0,7034853.0,0.0
1577365919534,9768524.0,7008368.0,0.0
1577365919579,9643293.0,6979975.0,0.0
1577365919632,9563227.0,6941291.0,0.0
1577365919675,9533754.0,6927989.0,0.0
1577365919729,9565425.0,6942265.0,0.0
1577365919780,9646632.0,6982068.0,0.0
1577365919820,9685079.0,7004645.0,0.0
1577365919870,9763946.0,7044769.0,0.0
1577365919921,9823071.0,7068669.0,0.0
1577365919969,9888749.0,7096116.0,0.0
1577365920018,9953492.0,7126078.0,0.0
1577365920065,9986523.0,7149019.0,0.0
1577365920115,9942886.0,7164052.0,0.0
1577365920169,9882927.0,7164865.0,0.0
1577365920215,9941891.0,7186557.0,0.0
1577365920263,1.0032683E7,7217217.0,0.0
1577365920313,1.0084341E7,7251510.0,0.0
1577365920361,1.0104144E7,7279030.0,0.0
1577365920409,1.013294E7,7289759.0,0.0
1577365920459,1.0146965E7,7305955.0,0.0
1577365920514,1.0170839E7,7312161.0,0.0
1577365920557,1.0198008E7,7324883.0,0.0
1577365920606,1.0224449E7,7332310.0,0.0
1577365920658,1.0238837E7,7340032.0,0.0
1577365920708,1.0253348E7,7345264.0,0.0
1577365920757,1.0193634E7,7340264.0,0.0
1577365920806,1.0171713E7,7338096.0,0.0
1577365920856,1.0175641E7,7340175.0,0.0
1577365920903,1.0192007E7,7346863.0,0.0
1577365920953,1.0214721E7,7353769.0,0.0
1577365920997,1.0212564E7,7361008.0,0.0
1577365921050,1.0217771E7,7359030.0,0.0
1577365921094,1.0223754E7,7368087.0,0.0
1577365921148,1.0233446E7,7383949.0,0.0
1577365921197,1.0254021E7,7410014.0,0.0
1577365921245,1.0255974E7,7424219.0,0.0
1577365921297,1.0261043E7,7407195.0,0.0
1577365921343,1.0276553E7,7371561.0,0.0
1577365921394,1.0257726E7,7310518.0,0.0
1577365921438,1.0258764E7,7270904.0,0.0
1577365921491,1.026481E7,7261949.0,0.0
1577365921540,1.0277997E7,7269362.0,0.0
1577365921588,1.027999E7,7278375.0,0.0
1577365921638,1.0236884E7,7267079.0,0.0
1577365921686,1.0198052E7,7268041.0,0.0
1577365921741,1.0157224E7,7263621.0,0.0
1577365921784,1.0122378E7,7251657.0,0.0
1577365921834,1.0111714E7,7256278.0,0.0
1577365921878,1.0121055E7,7267981.0,0.0
1577365921931,1.0125227E7,7275149.0,0.0
1577365921981,1.0069277E7,7278304.0,0.0
1577365922030,9968164.0,7287011.0,0.0
1577365922078,9909917.0,7273521.0,0.0
1577365922127,9911138.0,7284670.0,0.0
1577365922177,9923126.0,7296927.0,0.0
1577365922225,9929252.0,7307961.0,0.0
1577365922276,9920804.0,7316451.0,0.0
1577365922321,9912155.0,7323762.0,0.0
1577365922373,9920947.0,7338548.0,0.0
1577365922420,9939752.0,7343882.0,0.0
1577365922470,9961347.0,7350932.0,0.0
1577365922521,9981842.0,7361024.0,0.0
1577365922569,9994847.0,7371112.0,0.0
1577365922618,1.0012778E7,7384385.0,0.0
1577365922666,9964138.0,7385330.0,0.0
1577365922717,9879508.0,7377509.0,0.0
1577365922759,9856285.0,7385694.0,0.0
1577365922815,9873323.0,7394852.0,0.0
1577365922858,9904786.0,7414972.0,0.0
1577365922912,9901919.0,7414360.0,0.0
1577365922960,9893756.0,7425585.0,0.0
1577365923009,9889115.0,7424684.0,0.0
1577365923059,9901366.0,7433333.0,0.0
1577365923102,9905378.0,7436269.0,0.0
1577365923152,9919623.0,7446520.0,0.0
1577365923199,9928213.0,7455153.0,0.0
1577365923251,9938695.0,7465286.0,0.0
1577365923300,9938490.0,7470709.0,0.0
1577365923348,9867563.0,7468123.0,0.0
1577365923400,9791279.0,7465317.0,0.0
1577365923449,9764820.0,7472963.0,0.0
1577365923499,9785318.0,7481323.0,0.0
1577365923548,9789407.0,7487341.0,0.0
1577365923593,9790610.0,7495366.0,0.0
1577365923645,9785358.0,7497793.0,0.0
1577365923697,9779232.0,7505920.0,0.0
1577365923739,9794538.0,7516444.0,0.0
1577365923793,9804448.0,7519077.0,0.0
1577365923842,9816780.0,7516721.0,0.0
1577365923890,9829035.0,7530373.0,0.0
1577365923940,9844015.0,7538703.0,0.0
1577365923989,9829035.0,7542789.0,0.0
1577365924039,9743937.0,7527930.0,0.0
1577365924086,9678606.0,7526739.0,0.0
1577365924137,9678566.0,7534516.0,0.0
1577365924178,9703497.0,7545986.0,0.0
1577365924234,9714633.0,7547206.0,0.0
1577365924282,9719109.0,7555625.0,0.0
1577365924331,9720901.0,7562529.0,0.0
1577365924380,9726862.0,7563854.0,0.0
1577365924425,9742149.0,7574611.0,0.0
1577365924474,9765065.0,7579365.0,0.0
1577365924527,9777258.0,7588304.0,0.0
1577365924576,9795331.0,7596651.0,0.0
1577365924618,9807542.0,7602609.0,0.0
1577365924675,9807846.0,7604472.0,0.0
1577365924720,9737285.0,7597304.0,0.0
1577365924772,9686176.0,7595036.0,0.0
1577365924820,9690532.0,7602844.0,0.0
1577365924870,9712413.0,7602552.0,0.0
1577365924919,9729184.0,7605997.0,0.0
1577365924963,9733906.0,7612786.0,0.0
1577365925010,9731766.0,7613108.0,0.0
1577365925058,9733968.0,7616509.0,0.0
1577365925114,9747317.0,7618951.0,0.0
1577365925162,9764150.0,7621451.0,0.0
1577365925213,9793089.0,7627935.0,0.0
1577365925260,9797975.0,7629492.0,0.0
1577365925309,9809272.0,7635307.0,0.0
1577365925360,9775180.0,7635915.0,0.0
1577365925408,9700772.0,7623196.0,0.0
1577365925457,9668388.0,7619213.0,0.0
1577365925500,9669244.0,7615783.0,0.0
1577365925555,9697737.0,7631788.0,0.0
1577365925599,9707304.0,7626757.0,0.0
1577365925645,9697269.0,7635160.0,0.0
1577365925697,9691918.0,7631919.0,0.0
1577365925746,9706265.0,7638386.0,0.0
1577365925796,9720532.0,7642198.0,0.0
1577365925844,9732377.0,7643418.0,0.0
1577365925897,9745627.0,7647328.0,0.0
1577365925940,9767160.0,7655426.0,0.0
1577365925995,9771743.0,7653579.0,0.0
1577365926041,9708262.0,7651312.0,0.0
1577365926093,9626909.0,7637921.0,0.0
1577365926141,9641665.0,7649321.0,0.0
1577365926183,9656565.0,7660588.0,0.0
1577365926236,9675044.0,7666024.0,0.0
1577365926283,9680318.0,7665690.0,0.0
1577365926334,9672868.0,7670138.0,0.0
1577365926383,9674210.0,7671084.0,0.0
1577365926430,9680113.0,7679224.0,0.0
1577365926485,9691651.0,7685156.0,0.0
1577365926533,9705574.0,7691611.0,0.0
1577365926581,9707549.0,7697455.0,0.0
1577365926630,9722448.0,7697833.0,0.0
1577365926679,9722733.0,7693952.0,0.0
1577365926727,9674148.0,7689140.0,0.0
1577365926773,9581421.0,7674004.0,0.0
1577365926822,9539719.0,7662346.0,0.0
1577365926876,9530967.0,7638243.0,0.0
1577365926922,9540940.0,7576617.0,0.0
1577365926968,9552318.0,7504467.0,0.0
1577365927022,9579999.0,7435397.0,0.0
1577365927071,9637536.0,7389152.0,0.0
1577365927120,9684611.0,7373497.0,0.0
1577365927167,9732033.0,7361603.0,0.0
1577365927218,9770580.0,7369150.0,0.0
1577365927264,9813811.0,7376070.0,0.0
1577365927318,9863939.0,7386260.0,0.0
1577365927363,9872811.0,7379210.0,0.0
1577365927414,9869739.0,7377872.0,0.0
1577365927461,9864122.0,7346194.0,0.0
1577365927511,9840270.0,7318499.0,0.0
1577365927561,9809598.0,7291415.0,0.0
1577365927605,9797913.0,7280992.0,0.0
1577365927659,9765716.0,7257472.0,0.0
1577365927702,9740134.0,7233483.0,0.0
1577365927758,9710032.0,7211023.0,0.0
1577365927803,9668450.0,7185987.0,0.0
1577365927854,9633565.0,7160779.0,0.0
1577365927901,9604158.0,7148337.0,0.0
1577365927951,9579530.0,7130804.0,0.0
1577365928001,9560579.0,7127868.0,0.0
1577365928048,9537217.0,7111060.0,0.0
1577365928095,9523986.0,7111207.0,0.0
1577365928142,9480206.0,7098880.0,0.0
1577365928197,9426457.0,7087626.0,0.0
1577365928244,9404741.0,7078133.0,0.0
1577365928295,9380154.0,7066882.0,0.0
1577365928342,9350418.0,7055673.0,0.0
1577365928393,9326259.0,7042152.0,0.0
1577365928441,9303442.0,7038531.0,0.0
1577365928493,9274481.0,7030334.0,0.0
1577365928540,9256630.0,7026293.0,0.0
1577365928583,9249671.0,7016581.0,0.0
1577365928647,9234958.0,7016858.0,0.0
1577365928698,9238111.0,7011275.0,0.0
1577365928729,9218775.0,7013658.0,0.0
1577365928776,9169115.0,7009050.0,0.0
1577365928826,9123423.0,7007699.0,0.0
1577365928875,9110864.0,7005837.0,0.0
1577365928926,9105024.0,7004063.0,0.0
1577365928975,9093076.0,7003932.0,0.0
1577365929023,9076896.0,6999789.0,0.0
1577365929077,9065742.0,6990325.0,0.0
1577365929125,9063628.0,6995429.0,0.0
1577365929173,9066861.0,6990516.0,0.0
1577365929219,9068145.0,6991009.0,0.0
1577365929269,9067940.0,6989513.0,0.0
1577365929318,9072336.0,6988800.0,0.0
1577365929367,9077386.0,6989526.0,0.0
1577365929416,9052657.0,6989672.0,0.0
1577365929465,9015025.0,6989904.0,0.0
1577365929514,8994161.0,6987650.0,0.0
1577365929564,8999332.0,6996694.0,0.0
1577365929612,9026340.0,7012670.0,0.0
1577365929659,9021070.0,7014734.0,0.0
1577365929710,9028600.0,7029650.0,0.0
1577365929758,9022332.0,7020418.0,0.0
1577365929807,9022105.0,7016609.0,0.0
1577365929856,9029313.0,7020157.0,0.0
1577365929904,9028618.0,7018268.0,0.0
1577365929955,9034989.0,7007378.0,0.0
1577365930002,9048707.0,7015593.0,0.0
1577365930052,9044088.0,7007932.0,0.0
1577365930100,9037717.0,7001955.0,0.0
1577365930150,9000045.0,6993159.0,0.0
1577365930198,8961843.0,6985077.0,0.0
1577365930247,8935811.0,6977444.0,0.0
1577365930297,8924229.0,6975832.0,0.0
1577365930344,8905790.0,6966193.0,0.0
1577365930395,8885174.0,6964216.0,0.0
1577365930446,8871800.0,6963620.0,0.0
1577365930492,8863842.0,6954010.0,0.0
1577365930541,8872861.0,6939094.0,0.0
1577365930592,8910979.0,6924907.0,0.0
1577365930639,9003198.0,6930721.0,0.0
1577365930689,9045043.0,6950128.0,0.0
1577365930737,9115362.0,6990586.0,0.0
1577365930787,9195534.0,7037210.0,0.0
1577365930836,9213180.0,7053813.0,0.0
1577365930886,9259541.0,7096393.0,0.0
1577365930934,9316794.0,7120394.0,0.0
1577365930982,9362384.0,7136909.0,0.0
1577365931032,9402806.0,7161957.0,0.0
1577365931080,9449088.0,7178647.0,0.0
1577365931128,9471539.0,7193738.0,0.0
1577365931182,9504102.0,7206196.0,0.0
1577365931231,9516536.0,7210529.0,0.0
1577365931281,9531538.0,7219309.0,0.0
1577365931326,9572692.0,7231158.0,0.0
1577365931378,9623431.0,7262863.0,0.0
1577365931427,9660595.0,7272155.0,0.0
1577365931472,9682658.0,7276209.0,0.0
1577365931524,9702886.0,7288625.0,0.0
1577365931576,9702359.0,7311811.0,0.0
1577365931618,9762684.0,7348056.0,0.0
1577365931674,9802046.0,7360033.0,0.0
1577365931715,9820079.0,7370313.0,0.0
1577365931768,9865179.0,7382799.0,0.0
1577365931815,9894732.0,7376723.0,0.0
1577365931868,9847413.0,7347821.0,0.0
1577365931913,9820200.0,7325479.0,0.0
1577365931964,9808010.0,7318136.0,0.0
1577365932016,9855513.0,7329360.0,0.0
1577365932063,9903283.0,7351442.0,0.0
1577365932110,9915878.0,7391158.0,0.0
1577365932161,9920460.0,7431196.0,0.0
1577365932208,9937495.0,7427678.0,0.0
1577365932260,9943314.0,7428493.0,0.0
1577365932307,9906618.0,7423913.0,0.0
1577365932353,9830681.0,7424159.0,0.0
1577365932400,9873605.0,7451593.0,0.0
1577365932456,9915311.0,7492299.0,0.0
1577365932502,9926747.0,7546945.0,0.0
1577365932549,9910487.0,7678004.0,0.0
1577365932597,9934807.0,7779607.0,0.0
1577365932652,9961940.0,7868068.0,0.0
1577365932698,9978302.0,7947778.0,0.0
1577365932751,1.0005657E7,8011540.0,0.0
1577365932797,1.0021836E7,8048890.0,0.0
1577365932844,1.0027574E7,8082617.0,0.0
1577365932897,1.008904E7,8091266.0,0.0
1577365932943,1.0178146E7,8104902.0,0.0
1577365932987,1.0258256E7,8109918.0,0.0
1577365933040,1.0370318E7,8114599.0,0.0
1577365933091,1.0480263E7,8129922.0,0.0
1577365933139,1.0571505E7,8138049.0,0.0
1577365933188,1.0631504E7,8180615.0,0.0
1577365933231,1.0686822E7,8241136.0,0.0
1577365933285,1.0721525E7,8318824.0,0.0
1577365933332,1.0728872E7,8360897.0,0.0
1577365933380,1.0704124E7,8372179.0,0.0
1577365933429,1.0658307E7,8364591.0,0.0
1577365933476,1.0592365E7,8323941.0,0.0
1577365933531,1.0510343E7,8288775.0,0.0
1577365933579,1.0459117E7,8254539.0,0.0
1577365933621,1.0389979E7,8212205.0,0.0
1577365933671,1.0299776E7,8172839.0,0.0
1577365933726,1.0189524E7,8135896.0,0.0
1577365933770,9989514.0,8076089.0,0.0
1577365933824,9801131.0,8021979.0,0.0
1577365933868,9663769.0,7967579.0,0.0
1577365933916,9574198.0,7933881.0,0.0
1577365933971,9496572.0,7901129.0,0.0
1577365934021,9397065.0,7867998.0,0.0
1577365934069,9294935.0,7841248.0,0.0
1577365934118,9192155.0,7806996.0,0.0
1577365934167,9122201.0,7773719.0,0.0
1577365934216,9066393.0,7753453.0,0.0
1577365934264,9009162.0,7737158.0,0.0
1577365934313,8944866.0,7705377.0,0.0
1577365934362,8902228.0,7684602.0,0.0
1577365934410,8914724.0,7681520.0,0.0
1577365934461,8985066.0,7705626.0,0.0
1577365934509,8976943.0,7719275.0,0.0
1577365934559,8884341.0,7693748.0,0.0
1577365934604,8765908.0,7647952.0,0.0
1577365934657,8683092.0,7604252.0,0.0
1577365934705,8633307.0,7574799.0,0.0
1577365934756,8585091.0,7545869.0,0.0
1577365934802,8515445.0,7503872.0,0.0
1577365934850,8455080.0,7463920.0,0.0
1577365934901,8415473.0,7433944.0,0.0
1577365934950,8371591.0,7408431.0,0.0
1577365934999,8356326.0,7387292.0,0.0
1577365935044,8327709.0,7362724.0,0.0
1577365935094,8290688.0,7340713.0,0.0
1577365935140,8262685.0,7316524.0,0.0
1577365935191,8249109.0,7296491.0,0.0
1577365935239,8225704.0,7293437.0,0.0
1577365935291,8139040.0,7260319.0,0.0
1577365935337,8096482.0,7240489.0,0.0
1577365935386,8090580.0,7227159.0,0.0
1577365935436,8106232.0,7211342.0,0.0
1577365935484,8086224.0,7188955.0,0.0
1577365935534,8016314.0,7144325.0,0.0
1577365935581,7940377.0,7103516.0,0.0
1577365935634,7895233.0,7061504.0,0.0
1577365935679,7858702.0,7022889.0,0.0
1577365935730,7841462.0,6995646.0,0.0
1577365935777,7823959.0,6968155.0,0.0
1577365935826,7793612.0,6942918.0,0.0
1577365935876,7767153.0,6910383.0,0.0
1577365935923,7733346.0,6880057.0,0.0
1577365935974,7613652.0,6804547.0,0.0
1577365936025,7507452.0,6711303.0,0.0
1577365936073,7435465.0,6637583.0,0.0
1577365936122,7416941.0,6588314.0,0.0
1577365936173,7407601.0,6555880.0,0.0
1577365936222,7390017.0,6531051.0,0.0
1577365936270,7339563.0,6488599.0,0.0
1577365936320,7313470.0,6448360.0,0.0
1577365936368,7304513.0,6411914.0,0.0
1577365936412,7316381.0,6382270.0,0.0
1577365936466,7317540.0,6364752.0,0.0
1577365936512,7296983.0,6339806.0,0.0
1577365936563,7279886.0,6315877.0,0.0
1577365936609,7261630.0,6287892.0,0.0
1577365936657,7176780.0,6232069.0,0.0
1577365936711,7065717.0,6132513.0,0.0
1577365936754,6986887.0,6043120.0,0.0
1577365936808,6951149.0,5984809.0,0.0
1577365936853,6933504.0,5953191.0,0.0
1577365936906,6900553.0,5910901.0,0.0
1577365936953,6856202.0,5856922.0,0.0
1577365937004,6808722.0,5807320.0,0.0
1577365937054,6796039.0,5767356.0,0.0
1577365937098,6780430.0,5736448.0,0.0
1577365937151,6778152.0,5707736.0,0.0
1577365937201,6777519.0,5682774.0,0.0
1577365937249,6774264.0,5657231.0,0.0
1577365937297,6765794.0,5640194.0,0.0
1577365937347,6735553.0,5600054.0,0.0
1577365937393,6643232.0,5518733.0,0.0
1577365937445,6563957.0,5428715.0,0.0
1577365937495,6534304.0,5372410.0,0.0
1577365937543,6538009.0,5342155.0,0.0
1577365937590,6133893.0,5329131.0,0.0
1577365937642,6132772.0,5294341.0,0.0
1577365937690,6104509.0,5255452.0,0.0
1577365937735,6083433.0,5223747.0,0.0
1577365937788,6077734.0,5196954.0,0.0
1577365937839,6080306.0,5181385.0,0.0
1577365937886,6084797.0,5170625.0,0.0
1577365937937,6094118.0,5154881.0,0.0
1577365937980,6098640.0,5148180.0,0.0
1577365938035,6040940.0,5097080.0,0.0
1577365938081,5951385.0,5017863.0,0.0
1577365938132,5903504.0,4957664.0,0.0
1577365938175,5894461.0,4925317.0,0.0
1577365938229,5907110.0,4910968.0,0.0
1577365938279,5898579.0,4895020.0,0.0
1577365938326,5875801.0,4866933.0,0.0
1577365938377,5861924.0,4835314.0,0.0
1577365938421,5849675.0,4818829.0,0.0
1577365938470,5859105.0,4809349.0,0.0
1577365938519,5874980.0,4803766.0,0.0
1577365938565,5889149.0,4800655.0,0.0
1577365938616,5906028.0,4799346.0,0.0
1577365938668,5912701.0,4795872.0,0.0
1577365938718,5844023.0,4743988.0,0.0
1577365938768,5772602.0,4679165.0,0.0
1577365938818,5740811.0,4641337.0,0.0
1577365938865,5746368.0,4628093.0,0.0
1577365938916,5764966.0,4407682.0,0.0
1577365938963,5761574.0,4291789.0,0.0
1577365939012,5743908.0,4274007.0,0.0
1577365939055,5735760.0,4257314.0,0.0
1577365939106,5763202.0,4255244.0,0.0
1577365939157,5773888.0,4255360.0,0.0
1577365939207,5784712.0,4257574.0,0.0
1577365939261,5803993.0,4270289.0,0.0
1577365939305,5817280.0,4276540.0,0.0
1577365939355,5820530.0,4278958.0,0.0
1577365939401,5775017.0,4251999.0,0.0
1577365939453,5704573.0,4197808.0,0.0
1577365939499,5677378.0,4162362.0,0.0
1577365939550,5699895.0,4163287.0,0.0
1577365939594,5720723.0,4173622.0,0.0
1577365939648,5715862.0,4168576.0,0.0
1577365939700,5702018.0,4153213.0,0.0
1577365939746,5681869.0,4139796.0,0.0
1577365939796,5680509.0,4131762.0,0.0
1577365939845,5686934.0,4130606.0,0.0
1577365939895,5704356.0,4131675.0,0.0
1577365939941,5720492.0,4137165.0,0.0
1577365939988,5729413.0,4139804.0,0.0
1577365940036,5715350.0,4131703.0,0.0
1577365940090,5651085.0,4087454.0,0.0
1577365940135,5596635.0,4043379.0,0.0
1577365940188,5582313.0,4025744.0,0.0
1577365940239,5595458.0,4034826.0,0.0
1577365940285,5609536.0,4044592.0,0.0
1577365940336,5596916.0,4037148.0,0.0
1577365940383,5588321.0,4025108.0,0.0
1577365940433,5590102.0,4023383.0,0.0
1577365940477,5601096.0,4029413.0,0.0
1577365940530,5615390.0,4036790.0,0.0
1577365940576,5637890.0,4042869.0,0.0
1577365940626,5649970.0,4057480.0,0.0
1577365940677,5651269.0,4059637.0,0.0
1577365940725,5578331.0,4009213.0,0.0
1577365940775,5515289.0,3962961.0,0.0
1577365940824,5498860.0,3947820.0,0.0
1577365940874,5512595.0,3952579.0,0.0
1577365940918,5529908.0,3963741.0,0.0
1577365940971,5518867.0,3958184.0,0.0
1577365941017,5505394.0,3946780.0,0.0
1577365941068,5507731.0,3938911.0,0.0
1577365941117,5514406.0,3939228.0,0.0
1577365941165,5528236.0,3948379.0,0.0
1577365941215,5541723.0,3955063.0,0.0
1577365941262,5553694.0,3959119.0,0.0
1577365941313,5568050.0,3967874.0,0.0
1577365941358,5560509.0,3961537.0,0.0
1577365941411,5491906.0,3911777.0,0.0
1577365941458,5446377.0,3868905.0,0.0
1577365941508,5432578.0,3850229.0,0.0
1577365941558,5449135.0,3861536.0,0.0
1577365941602,5467035.0,3874135.0,0.0
1577365941650,5456520.0,3864023.0,0.0
1577365941704,5444009.0,3852300.0,0.0
1577365941753,5449382.0,3847850.0,0.0
1577365941795,5456228.0,3851164.0,0.0
1577365941847,5478277.0,3866276.0,0.0
1577365941902,5495577.0,3874858.0,0.0
1577365941948,5515814.0,3891098.0,0.0
1577365941996,5530635.0,3898745.0,0.0
1577365942046,5535638.0,3908002.0,0.0
1577365942093,5482846.0,3872402.0,0.0
1577365942145,5435289.0,3832179.0,0.0
1577365942195,5425967.0,3823018.0,0.0
1577365942241,5446842.0,3833969.0,0.0
1577365942292,5470333.0,3850508.0,0.0
1577365942340,5468833.0,3852647.0,0.0
1577365942389,5466075.0,3846887.0,0.0
1577365942440,5466370.0,3849140.0,0.0
1577365942487,5482320.0,3860429.0,0.0
1577365942537,5498100.0,3870437.0,0.0
1577365942585,5526438.0,3891618.0,0.0
1577365942635,5550085.0,3908849.0,0.0
1577365942681,5570295.0,3923240.0,0.0
1577365942733,5530682.0,3901374.0,0.0
1577365942782,5472286.0,3857674.0,0.0
1577365942830,5456428.0,3839855.0,0.0
1577365942880,5473833.0,3846617.0,0.0
1577365942928,5499742.0,3868568.0,0.0
1577365942975,5503752.0,3875427.0,0.0
1577365943026,5493874.0,3870321.0,0.0
1577365943075,5493531.0,3868838.0,0.0
1577365943124,5502714.0,3877044.0,0.0
1577365943172,5520461.0,3894276.0,0.0
1577365943218,5547904.0,3916160.0,0.0
1577365943269,5572911.0,3933777.0,0.0
1577365943319,5581537.0,3948909.0,0.0
1577365943368,5519129.0,3908463.0,0.0
1577365943417,5468972.0,3865872.0,0.0
1577365943460,5454413.0,3854342.0,0.0
1577365943515,5470118.0,3866400.0,0.0
1577365943557,5491984.0,3885377.0,0.0
1577365943609,5496628.0,3885106.0,0.0
1577365943663,5484132.0,3878682.0,0.0
1577365943703,5486469.0,3881782.0,0.0
1577365943761,5501568.0,3891242.0,0.0
1577365943808,5518169.0,3906596.0,0.0
1577365943858,5540672.0,3920792.0,0.0
1577365943907,5559980.0,3939854.0,0.0
1577365943952,5549033.0,3933584.0,0.0
1577365944004,5483016.0,3886955.0,0.0
1577365944054,5439718.0,3854293.0,0.0
1577365944099,5442738.0,3855112.0,0.0
1577365944146,5465455.0,3877266.0,0.0
1577365944197,5484441.0,3895614.0,0.0
1577365944245,5480631.0,3890336.0,0.0
1577365944296,5478541.0,3891994.0,0.0
1577365944343,5484705.0,3889700.0,0.0
1577365944392,5498084.0,3906238.0,0.0
1577365944441,5524257.0,3922169.0,0.0
1577365944494,5550614.0,3942436.0,0.0
1577365944540,5580780.0,3959109.0,0.0
1577365944589,5580082.0,3960708.0,0.0
1577365944640,5513942.0,3918029.0,0.0
1577365944689,5466771.0,3882274.0,0.0
1577365944739,5466214.0,3875677.0,0.0
1577365944787,5481747.0,3894487.0,0.0
1577365944836,5501462.0,3910804.0,0.0
1577365944880,5500251.0,3907915.0,0.0
1577365944935,5491890.0,3907356.0,0.0
1577365944981,5502141.0,3912279.0,0.0
1577365945032,5523155.0,3922161.0,0.0
1577365945081,5540919.0,3937129.0,0.0
1577365945130,5570977.0,3948552.0,0.0
1577365945180,5593199.0,3967209.0,0.0
1577365945228,5598233.0,3971206.0,0.0
1577365945276,5539108.0,3932188.0,0.0
1577365945319,5498487.0,3897079.0,0.0
1577365945374,5494461.0,3885521.0,0.0
1577365945420,5532710.0,3896771.0,0.0
1577365945467,5561747.0,3904081.0,0.0
1577365945520,5574352.0,3902366.0,0.0
1577365945569,5775404.0,4086607.0,0.0
1577365945618,6027575.0,4353692.0,0.0
1577365945668,6294628.0,4457756.0,0.0
1577365945716,6449380.0,4592788.0,0.0
1577365945760,6612552.0,4774832.0,0.0
1577365945814,6679251.0,5040105.0,0.0
1577365945861,6842223.0,5053100.0,0.0
1577365945911,6723244.0,4856155.0,0.0
1577365945961,6533915.0,4701667.0,0.0
1577365946008,6427901.0,4562667.0,0.0
1577365946058,6467188.0,4519190.0,0.0
1577365946103,6595859.0,4531413.0,0.0
1577365946156,6898685.0,4672579.0,0.0
1577365946204,7152016.0,4823117.0,0.0
1577365946254,7371250.0,4948555.0,0.0
1577365946303,7836365.0,5112972.0,0.0
1577365946351,7828638.0,5151144.0,0.0
1577365946400,7808770.0,5168983.0,0.0
1577365946448,7677651.0,5158001.0,0.0
1577365946499,7549106.0,5259552.0,0.0
1577365946545,7418390.0,5144372.0,0.0
1577365946593,7434137.0,5016691.0,0.0
1577365946644,7365364.0,5031196.0,0.0
1577365946687,7424845.0,5018030.0,0.0
1577365946735,7436677.0,4987930.0,0.0
1577365946784,7468672.0,5011691.0,0.0
1577365946833,7674771.0,5066680.0,0.0
1577365946881,7790280.0,5102569.0,0.0
1577365946932,7996026.0,5150431.0,0.0
1577365946981,8187817.0,5244737.0,0.0
1577365947030,8246043.0,5399283.0,0.0
1577365947081,8285409.0,5629555.0,0.0
1577365947130,8294778.0,5748047.0,0.0
1577365947181,8175738.0,5709519.0,0.0
1577365947232,8091386.0,5631366.0,0.0
1577365947280,8043133.0,5552162.0,0.0
1577365947327,8018991.0,5535835.0,0.0
1577365947378,8006772.0,5516070.0,0.0
1577365947421,8074568.0,5646612.0,0.0
1577365947471,8085704.0,5784466.0,0.0
1577365947523,8110575.0,5829158.0,0.0
1577365947569,8120409.0,5787731.0,0.0
1577365947623,8196660.0,5781516.0,0.0
1577365947672,8448411.0,5734139.0,0.0
1577365947720,8606027.0,5734387.0,0.0
1577365947763,8709178.0,5746712.0,0.0
1577365947819,8752523.0,5753281.0,0.0
1577365947861,8698184.0,5744983.0,0.0
1577365947919,8678625.0,5793536.0,0.0
1577365947963,8634490.0,5854378.0,0.0
1577365948014,8605904.0,5866940.0,0.0
1577365948062,8611820.0,5860597.0,0.0
1577365948108,8617611.0,5913029.0,0.0
1577365948161,8617811.0,5967303.0,0.0
1577365948207,8609388.0,5970208.0,0.0
1577365948258,8625385.0,5992506.0,0.0
1577365948305,8629504.0,6058030.0,0.0
1577365948356,8617238.0,6143591.0,0.0
1577365948407,8678021.0,6210529.0,0.0
1577365948456,8724710.0,6243840.0,0.0
1577365948502,8742953.0,6266613.0,0.0
1577365948552,8773940.0,6271171.0,0.0
1577365948597,8836084.0,6244213.0,0.0
1577365948650,8857594.0,6195683.0,0.0
1577365948699,8865725.0,6185350.0,0.0
1577365948742,8898198.0,6205939.0,0.0
1577365948797,8908265.0,6223227.0,0.0
1577365948844,8912197.0,6251688.0,0.0
1577365948896,8933273.0,6253033.0,0.0
1577365948944,8928333.0,6292959.0,0.0
1577365948989,8950725.0,6359818.0,0.0
1577365949042,8966861.0,6402037.0,0.0
1577365949092,8991997.0,6454424.0,0.0
1577365949140,9017533.0,6470989.0,0.0
1577365949183,9066529.0,6475217.0,0.0
1577365949238,9064019.0,6517258.0,0.0
1577365949285,9059389.0,6617281.0,0.0
1577365949337,9088069.0,6682274.0,0.0
1577365949383,9119243.0,6739555.0,0.0
1577365949435,9141773.0,6794575.0,0.0
1577365949476,9815252.0,7192692.0,0.0
1577365949531,9668658.0,7331481.0,0.0
1577365949580,9697862.0,7363166.0,0.0
1577365949623,9741824.0,7380078.0,0.0
1577365949677,9788126.0,7408217.0,0.0
1577365949725,9836584.0,7438305.0,0.0
1577365949776,9852237.0,7476359.0,0.0
1577365949823,9882361.0,7511920.0,0.0
1577365949874,9906132.0,7543306.0,0.0
1577365949921,9914849.0,7566359.0,0.0
1577365949972,9903808.0,7573368.0,0.0
1577365950021,9914644.0,7588154.0,0.0
1577365950066,9925082.0,7592074.0,0.0
1577365950118,9944805.0,7617633.0,0.0
1577365950165,9957551.0,7633305.0,0.0
1577365950216,9972624.0,7629742.0,0.0
1577365950264,9968387.0,7626096.0,0.0
1577365950314,9945987.0,7612802.0,0.0
1577365950362,9947917.0,7623715.0,0.0
1577365950412,9919572.0,7618444.0,0.0
1577365950460,9850270.0,7611507.0,0.0
1577365950510,9806123.0,7598456.0,0.0
1577365950558,9821005.0,7605836.0,0.0
1577365950603,9866145.0,7616478.0,0.0
1577365950655,9898576.0,7625710.0,0.0
1577365950703,9892746.0,7623900.0,0.0
1577365950755,9921805.0,7622648.0,0.0
1577365950801,9916591.0,7604910.0,0.0
1577365950851,9941056.0,7589836.0,0.0
1577365950900,9935730.0,7586088.0,0.0
1577365950948,9946324.0,7575375.0,0.0
1577365950994,9956672.0,7572085.0,0.0
1577365951047,9978378.0,7580677.0,0.0
1577365951092,9988257.0,7580249.0,0.0
1577365951144,9960437.0,7562155.0,0.0
1577365951195,9947654.0,7566883.0,0.0
1577365951242,9932075.0,7561484.0,0.0
1577365951291,9955189.0,7552696.0,0.0
1577365951341,9937717.0,7542551.0,0.0
1577365951387,9929003.0,7534003.0,0.0
1577365951439,9938317.0,7531893.0,0.0
1577365951487,9968444.0,7532720.0,0.0
1577365951536,9955994.0,7524856.0,0.0
1577365951584,9943154.0,7489482.0,0.0
1577365951632,9800704.0,7461614.0,0.0
1577365951682,9598848.0,7403514.0,0.0
1577365951728,9463164.0,7362426.0,0.0
1577365951774,9369209.0,7317291.0,0.0
1577365951826,9297825.0,7279823.0,0.0
1577365951874,9217273.0,7218191.0,0.0
1577365951924,9167653.0,7170862.0,0.0
1577365951970,9130816.0,7110924.0,0.0
1577365952020,9139590.0,7107791.0,0.0
1577365952072,9166976.0,7115371.0,0.0
1577365952123,9190430.0,7110197.0,0.0
1577365952171,9204938.0,7107520.0,0.0
1577365952220,9190184.0,7098859.0,0.0
1577365952270,9174814.0,7102264.0,0.0
1577365952319,9217798.0,7120826.0,0.0
1577365952367,9295333.0,7141926.0,0.0
1577365952417,9190561.0,7099456.0,0.0
1577365952464,9100840.0,7049364.0,0.0
1577365952516,9024808.0,7039590.0,0.0
1577365952564,9139270.0,7110556.0,0.0
1577365952610,9309389.0,7143907.0,0.0
1577365952661,9521913.0,7128448.0,0.0
1577365952710,9337192.0,7033108.0,0.0
1577365952760,9513573.0,7183114.0,0.0
1577365952808,9556668.0,7186890.0,0.0
1577365952858,9590019.0,7215014.0,0.0
1577365952905,9415962.0,7183925.0,0.0
1577365952956,9177232.0,7120115.0,0.0
1577365952998,9033994.0,7099072.0,0.0
1577365953049,8972506.0,7095751.0,0.0
1577365953097,8883314.0,7049948.0,0.0
1577365953147,8730775.0,6940346.0,0.0
1577365953196,8904010.0,7021967.0,0.0
1577365953244,8968006.0,7029432.0,0.0
1577365953298,8825030.0,6897776.0,0.0
1577365953345,8717881.0,6818977.0,0.0
1577365953397,8683873.0,6801482.0,0.0
1577365953443,8750608.0,6883174.0,0.0
1577365953487,8703858.0,6894871.0,0.0
1577365953541,8581726.0,6847825.0,0.0
1577365953589,8553610.0,6859709.0,0.0
1577365953635,8566487.0,6875066.0,0.0
1577365953688,8729276.0,6933409.0,0.0
1577365953739,8811873.0,6945832.0,0.0
1577365953788,8702433.0,6895938.0,0.0
1577365953837,8511898.0,6794785.0,0.0
1577365953884,8394492.0,6739850.0,0.0
1577365953933,8414026.0,6738053.0,0.0
1577365953977,8424916.0,6754823.0,0.0
1577365954029,8396517.0,6744650.0,0.0
1577365954081,8383693.0,6764723.0,0.0
1577365954129,8250691.0,6760906.0,0.0
1577365954179,8262932.0,6807421.0,0.0
1577365954228,8299674.0,6810897.0,0.0
1577365954278,8399386.0,6808832.0,0.0
1577365954325,8471164.0,6816284.0,0.0
1577365954378,8488596.0,6804815.0,0.0
1577365954423,8528808.0,6864724.0,0.0
1577365954469,8580321.0,6950005.0,0.0
1577365954521,8745586.0,6993971.0,0.0
1577365954569,8844133.0,7008647.0,0.0
1577365954620,8869722.0,6986449.0,0.0
1577365954662,8872835.0,6968056.0,0.0
1577365954718,8873229.0,6959380.0,0.0
1577365954765,8873114.0,6945745.0,0.0
1577365954812,8878703.0,6958968.0,0.0
1577365954858,8949392.0,6983941.0,0.0
1577365954911,8963210.0,7006366.0,0.0
1577365954958,8941069.0,7031242.0,0.0
1577365955006,8963132.0,7024632.0,0.0
1577365955053,8985347.0,6976990.0,0.0
1577365955104,9008161.0,6966632.0,0.0
1577365955153,9041960.0,6965578.0,0.0
1577365955201,9094750.0,6996180.0,0.0
1577365955253,9113158.0,7009699.0,0.0
1577365955299,9152016.0,7024673.0,0.0
1577365955349,9125547.0,7036057.0,0.0
1577365955397,9112033.0,7047470.0,0.0
1577365955446,9100803.0,7077002.0,0.0
1577365955495,9117638.0,7121710.0,0.0
1577365955544,9142325.0,7144519.0,0.0
1577365955593,9181712.0,7191377.0,0.0
1577365955641,9241492.0,7200025.0,0.0
1577365955694,9246009.0,7207549.0,0.0
1577365955739,9290307.0,7218362.0,0.0
1577365955790,9302174.0,7239275.0,0.0
1577365955837,9364318.0,7264806.0,0.0
1577365955886,9418155.0,7256458.0,0.0
1577365955935,9435102.0,7266531.0,0.0
1577365955984,9444641.0,7291904.0,0.0
1577365956034,9491452.0,7319029.0,0.0
1577365956081,9516328.0,7307904.0,0.0
1577365956134,9535898.0,7322565.0,0.0
1577365956179,9533874.0,7351057.0,0.0
1577365956229,9554795.0,7368552.0,0.0
1577365956277,9582952.0,7378311.0,0.0
1577365956326,9597349.0,7367982.0,0.0
1577365956375,9627472.0,7356584.0,0.0
1577365956424,9657054.0,7345216.0,0.0
1577365956474,9676907.0,7347253.0,0.0
1577365956521,9698765.0,7357299.0,0.0
1577365956575,9692220.0,7378810.0,0.0
1577365956619,9692729.0,7413445.0,0.0
1577365956669,9695575.0,7434900.0,0.0
1577365956717,9701763.0,7442209.0,0.0
1577365956767,9697094.0,7495536.0,0.0
1577365956815,9725234.0,7511193.0,0.0
1577365956864,9731570.0,7512875.0,0.0
1577365956915,9740062.0,7513971.0,0.0
1577365956961,9748722.0,7514257.0,0.0
1577365957016,9737680.0,7503257.0,0.0
1577365957059,9749921.0,7502346.0,0.0
1577365957108,9770485.0,7498813.0,0.0
1577365957161,9763024.0,7499868.0,0.0
1577365957210,9757288.0,7501050.0,0.0
1577365957258,9763024.0,7508444.0,0.0
1577365957308,9785802.0,7514897.0,0.0
1577365957353,9751326.0,7534602.0,0.0
1577365957405,9779334.0,7545016.0,0.0
1577365957453,9764338.0,7565376.0,0.0
1577365957503,9789945.0,7561600.0,0.0
1577365957554,9795098.0,7583994.0,0.0
1577365957599,9802223.0,7595507.0,0.0
1577365957650,9812722.0,7586887.0,0.0
1577365957693,9793394.0,7524357.0,0.0
1577365957749,9768572.0,7457382.0,0.0
1577365957798,9772321.0,7419671.0,0.0
1577365957845,9786290.0,7394355.0,0.0
1577365957897,9803853.0,7392345.0,0.0
1577365957944,9819789.0,7379694.0,0.0
1577365957993,9852480.0,7386831.0,0.0
1577365958039,9879942.0,7376304.0,0.0
1577365958089,9902194.0,7372229.0,0.0
1577365958137,9924992.0,7361600.0,0.0
1577365958184,9913872.0,7345971.0,0.0
1577365958237,9892823.0,7319516.0,0.0
1577365958282,9891998.0,7313346.0,0.0
1577365958332,9873084.0,7293998.0,0.0
1577365958385,9879326.0,7283840.0,0.0
1577365958434,9863878.0,7274496.0,0.0
1577365958481,9867139.0,7273425.0,0.0
1577365958531,9900133.0,7280919.0,0.0
1577365958576,9922364.0,7269964.0,0.0
1577365958629,9924203.0,7259279.0,0.0
1577365958675,9921091.0,7239091.0,0.0
1577365958723,9920660.0,7218659.0,0.0
1577365958777,9927653.0,7218191.0,0.0
1577365958820,9922253.0,7202519.0,0.0
1577365958872,9918204.0,7195325.0,0.0
1577365958923,9925440.0,7194199.0,0.0
1577365958973,9932789.0,7196677.0,0.0
1577365959021,9944242.0,7194967.0,0.0
1577365959070,9936181.0,7190594.0,0.0
1577365959118,9934177.0,7188871.0,0.0
1577365959168,9922290.0,7182914.0,0.0
1577365959219,9902588.0,7178170.0,0.0
1577365959265,9896535.0,7170094.0,0.0
1577365959315,9880599.0,7157498.0,0.0
1577365959361,9872427.0,7154094.0,0.0
1577365959413,9863821.0,7145303.0,0.0
1577365959456,9828486.0,7123719.0,0.0
1577365959510,9848788.0,7128919.0,0.0
1577365959554,9922927.0,7172656.0,0.0
1577365959603,9974817.0,7216524.0,0.0
1577365959656,1.001319E7,7219202.0,0.0
1577365959705,1.0009852E7,7205880.0,0.0
1577365959755,9981490.0,7189427.0,0.0
1577365959803,9959221.0,7171246.0,0.0
1577365959853,9918915.0,7146813.0,0.0
1577365959896,9848394.0,7104371.0,0.0
1577365959951,9838477.0,7101393.0,0.0
1577365959993,9888303.0,7171732.0,0.0
1577365960048,9917379.0,7153651.0,0.0
1577365960094,9926490.0,7187758.0,0.0
1577365960139,9896666.0,7222691.0,0.0
1577365960191,9951555.0,7245189.0,0.0
1577365960243,9987826.0,7262056.0,0.0
1577365960293,9946172.0,7206080.0,0.0
1577365960337,9860729.0,7163824.0,0.0
1577365960390,9805935.0,7109102.0,0.0
1577365960436,9719477.0,7035558.0,0.0
1577365960488,9650344.0,6973870.0,0.0
1577365960536,9614989.0,6955148.0,0.0
1577365960586,9604864.0,6948851.0,0.0
1577365960635,9586533.0,6933322.0,0.0
1577365960684,9581807.0,6933578.0,0.0
1577365960734,9578452.0,6947527.0,0.0
1577365960775,9561317.0,6920842.0,0.0
1577365960825,9536535.0,6894615.0,0.0
1577365960874,9529579.0,6888773.0,0.0
1577365960924,9494807.0,6859594.0,0.0
1577365960974,9492314.0,6866903.0,0.0
1577365961022,9503488.0,6890667.0,0.0
1577365961072,9464794.0,6873584.0,0.0
1577365961120,9586738.0,6998046.0,0.0
1577365961173,9610768.0,7038479.0,0.0
1577365961220,9590676.0,7046842.0,0.0
1577365961270,9533722.0,7022950.0,0.0
1577365961319,9514189.0,7059665.0,0.0
1577365961368,9392171.0,7034831.0,0.0
1577365961412,9372621.0,7069652.0,0.0
1577365961465,9367373.0,7091607.0,0.0
1577365961515,9369209.0,7119600.0,0.0
1577365961563,9411011.0,7121825.0,0.0
1577365961610,9474637.0,7108218.0,0.0
1577365961656,9533143.0,7087390.0,0.0
1577365961710,9592774.0,7108090.0,0.0
1577365961757,9637446.0,7139077.0,0.0
1577365961809,9674226.0,7142909.0,0.0
1577365961857,9650624.0,7106296.0,0.0
1577365961905,9678800.0,7098744.0,0.0
1577365961956,9722048.0,7105825.0,0.0
1577365961999,9766063.0,7124060.0,0.0
1577365962053,9775060.0,7115184.0,0.0
1577365962096,9770711.0,7115171.0,0.0
1577365962150,9753313.0,7112563.0,0.0
1577365962199,9740830.0,7111866.0,0.0
1577365962248,9768050.0,7101181.0,0.0
1577365962298,9807454.0,7122580.0,0.0
1577365962346,9821813.0,7165248.0,0.0
1577365962395,9839322.0,7176005.0,0.0
1577365962441,9858179.0,7209328.0,0.0
1577365962493,9848077.0,7230228.0,0.0
1577365962537,9855349.0,7238707.0,0.0
1577365962590,9797632.0,7284410.0,0.0
1577365962640,9705606.0,7308175.0,0.0
1577365962688,9650155.0,7295595.0,0.0
1577365962737,9577232.0,7199554.0,0.0
1577365962781,9540136.0,7119372.0,0.0
1577365962836,9502157.0,7045148.0,0.0
1577365962882,9463538.0,7001423.0,0.0
1577365962933,9450718.0,6988559.0,0.0
1577365962978,9450361.0,7011852.0,0.0
1577365963029,9459001.0,7047114.0,0.0
1577365963079,9503541.0,7144819.0,0.0
1577365963127,9672239.0,7214443.0,0.0
1577365963177,9765480.0,7222164.0,0.0
1577365963225,9761825.0,7203558.0,0.0
1577365963277,9828655.0,7205040.0,0.0
1577365963317,9794725.0,7192276.0,0.0
1577365963373,9715408.0,7194711.0,0.0
1577365963421,9619243.0,7355274.0,0.0
1577365963465,9598642.0,7501606.0,0.0
1577365963520,9644661.0,7582743.0,0.0
1577365963567,9688266.0,7630225.0,0.0
1577365963616,9739947.0,7679249.0,0.0
1577365963664,9730893.0,7660928.0,0.0
1577365963709,9676736.0,7568081.0,0.0
1577365963760,9636301.0,7486318.0,0.0
1577365963809,9617330.0,7441968.0,0.0
1577365963858,9618607.0,7425128.0,0.0
1577365963906,9618418.0,7421096.0,0.0
1577365963959,9624380.0,7416721.0,0.0
1577365964003,9614012.0,7419586.0,0.0
1577365964057,9631936.0,7432921.0,0.0
1577365964101,9639676.0,7465489.0,0.0
1577365964156,9667328.0,7519528.0,0.0
1577365964199,9725702.0,7600450.0,0.0
1577365964253,9819375.0,7660416.0,0.0
1577365964301,9876325.0,7694722.0,0.0
1577365964350,9893365.0,7710238.0,0.0
1577365964399,9874883.0,7720709.0,0.0
1577365964448,9858816.0,7728972.0,0.0
1577365964497,9843725.0,7726394.0,0.0
1577365964541,9878726.0,7732334.0,0.0
1577365964592,9843802.0,7682257.0,0.0
1577365964640,9744899.0,7627520.0,0.0
1577365964693,9620463.0,7593070.0,0.0
1577365964741,9420705.0,7430456.0,0.0
1577365964791,9312879.0,7355302.0,0.0
1577365964839,9481704.0,7510110.0,0.0
1577365964888,9468581.0,7440798.0,0.0
1577365964931,9399070.0,7361231.0,0.0
1577365964982,9397234.0,7413345.0,0.0
1577365965031,9289050.0,7389040.0,0.0
1577365965078,9157793.0,7326097.0,0.0
1577365965127,9056377.0,7294254.0,0.0
1577365965181,8933571.0,7223119.0,0.0
1577365965229,8774962.0,7085409.0,0.0
1577365965279,8626944.0,6953738.0,0.0
1577365965328,8496020.0,6838082.0,0.0
1577365965377,8390275.0,6737656.0,0.0
1577365965422,8301756.0,6658227.0,0.0
1577365965472,8220810.0,6586552.0,0.0
1577365965523,8122280.0,6508221.0,0.0
1577365965572,7925729.0,6359470.0,0.0
1577365965619,7707395.0,6196142.0,0.0
1577365965669,7548429.0,6065269.0,0.0
1577365965719,7424744.0,5962549.0,0.0
1577365965768,7301150.0,5863633.0,0.0
1577365965817,7174952.0,5765086.0,0.0
1577365965859,7064953.0,5670202.0,0.0
1577365965916,6977859.0,5594964.0,0.0
1577365965964,6893594.0,5520353.0,0.0
1577365966008,6816586.0,5445969.0,0.0
1577365966061,6744845.0,5385617.0,0.0
1577365966105,6674246.0,5319257.0,0.0
1577365966155,6546549.0,5216565.0,0.0
1577365966206,6374181.0,5073026.0,0.0
1577365966259,6257505.0,4969891.0,0.0
1577365966301,6177852.0,4898060.0,0.0
1577365966355,6117190.0,4835159.0,0.0
1577365966402,6044756.0,4768855.0,0.0
1577365966452,5978095.0,4698972.0,0.0
1577365966500,5929542.0,4642455.0,0.0
1577365966550,5535933.0,4589414.0,0.0
1577365966595,5408157.0,4540531.0,0.0
1577365966647,5374294.0,4496424.0,0.0
1577365966697,5347374.0,4243087.0,0.0
1577365966743,5319182.0,4117969.0,0.0
1577365966796,5298030.0,4085587.0,0.0
1577365966842,5197686.0,4001893.0,0.0
1577365966892,5102382.0,3919136.0,0.0
1577365966940,5047847.0,3858060.0,0.0
1577365966990,5020859.0,3821746.0,0.0
1577365967039,5007940.0,3794151.0,0.0
1577365967088,4970269.0,3759997.0,0.0
1577365967137,4944967.0,3730696.0,0.0
1577365967182,4935857.0,3713869.0,0.0
1577365967235,4930939.0,3697956.0,0.0
1577365967282,4935158.0,3689904.0,0.0
1577365967325,4948076.0,3690116.0,0.0
1577365967374,4959788.0,3692621.0,0.0
1577365967430,4969048.0,3684404.0,0.0
1577365967474,4974557.0,3680321.0,0.0
1577365967526,4943323.0,3654893.0,0.0
1577365967576,4890855.0,3607966.0,0.0
1577365967624,4862171.0,3579599.0,0.0
1577365967676,4858813.0,3570757.0,0.0
1577365967722,4875089.0,3578213.0,0.0
1577365967772,4878840.0,3574081.0,0.0
1577365967820,4879293.0,3573445.0,0.0
1577365967868,4880635.0,3570651.0,0.0
1577365967918,4901225.0,3582055.0,0.0
1577365967962,4917979.0,3588662.0,0.0
1577365968012,4925048.0,3596531.0,0.0
1577365968064,4934542.0,3596706.0,0.0
1577365968112,4948406.0,3607407.0,0.0
1577365968162,4939965.0,3597659.0,0.0
1577365968212,4876896.0,3550780.0,0.0
1577365968261,4838264.0,3519158.0,0.0
1577365968310,4841184.0,3519794.0,0.0
1577365968359,4855800.0,3523551.0,0.0
1577365968402,4852758.0,3522761.0,0.0
1577365968457,4840923.0,3513813.0,0.0
1577365968503,4839485.0,3512059.0,0.0
1577365968555,4838141.0,3510239.0,0.0
1577365968599,4848361.0,3515335.0,0.0
1577365968654,4859785.0,3524504.0,0.0
1577365968701,4871470.0,3534906.0,0.0
1577365968752,4829676.0,3504893.0,0.0
1577365968801,4769880.0,3462966.0,0.0
1577365968845,4748371.0,3446658.0,0.0
1577365968899,4764371.0,3459547.0,0.0
1577365968944,4783140.0,3469322.0,0.0
1577365968996,4787044.0,3471191.0,0.0
1577365969044,4789592.0,3472414.0,0.0
1577365969093,4794798.0,3476392.0,0.0
1577365969143,4810264.0,3485937.0,0.0
1577365969193,4831470.0,3501850.0,0.0
1577365969241,4849664.0,3513658.0,0.0
1577365969289,4830621.0,3502756.0,0.0
1577365969339,4758496.0,3449827.0,0.0
1577365969384,4720137.0,3422358.0,0.0
1577365969437,4729344.0,3429032.0,0.0
1577365969485,4751030.0,3444945.0,0.0
1577365969535,4755153.0,3445666.0,0.0
1577365969582,4749043.0,3443354.0,0.0
1577365969628,4752893.0,3446572.0,0.0
1577365969681,4766550.0,3456213.0,0.0
1577365969729,4782510.0,3466577.0,0.0
1577365969782,4804251.0,3479850.0,0.0
1577365969828,4823675.0,3497447.0,0.0
1577365969878,4770550.0,3464015.0,0.0
1577365969924,4733358.0,3437681.0,0.0
1577365969975,4754441.0,3444173.0,0.0
1577365970017,4822306.0,3485947.0,0.0
1577365970073,4859908.0,3512309.0,0.0
1577365970120,4880868.0,3522771.0,0.0
1577365970167,4885841.0,3530851.0,0.0
1577365970220,4941501.0,3574312.0,0.0
1577365970267,5042641.0,3644084.0,0.0
1577365970317,5129356.0,3697379.0,0.0
1577365970365,5188206.0,3738075.0,0.0
1577365970416,5214043.0,3759544.0,0.0
1577365970463,5163204.0,3724070.0,0.0
1577365970514,5154343.0,3706260.0,0.0
1577365970561,5176960.0,3712723.0,0.0
1577365970607,5223084.0,3739875.0,0.0
1577365970659,5245440.0,3739587.0,0.0
1577365970709,5252824.0,3747581.0,0.0
1577365970757,5275894.0,3773539.0,0.0
1577365970806,5327140.0,3814899.0,0.0
1577365970856,5367389.0,3841060.0,0.0
1577365970903,5415773.0,3869214.0,0.0
1577365970954,5417732.0,3859746.0,0.0
1577365970995,5328566.0,3787235.0,0.0
1577365971051,5253304.0,3729540.0,0.0
1577365971095,5230811.0,3703600.0,0.0
1577365971145,5338033.0,3749111.0,0.0
1577365971194,5507982.0,3847879.0,0.0
1577365971241,5630971.0,3923354.0,0.0
1577365971295,5743975.0,3994853.0,0.0
1577365971343,5858348.0,4049814.0,0.0
1577365971394,5977294.0,4127697.0,0.0
1577365971440,6056873.0,4200766.0,0.0
1577365971488,6164258.0,4254049.0,0.0
1577365971538,6202889.0,4309512.0,0.0
1577365971588,6240413.0,4329063.0,0.0
1577365971632,6295168.0,4370887.0,0.0
1577365971684,6320605.0,4413450.0,0.0
1577365971735,6424691.0,4453461.0,0.0
1577365971783,6468937.0,4486912.0,0.0
1577365971832,6550269.0,4504500.0,0.0
1577365971882,6616642.0,4537943.0,0.0
1577365971931,6754769.0,4601234.0,0.0
1577365971979,6881745.0,4674602.0,0.0
1577365972027,6987788.0,4705328.0,0.0
1577365972076,7045474.0,4761317.0,0.0
1577365972124,7068201.0,4790011.0,0.0
1577365972176,7128051.0,4817019.0,0.0
1577365972223,7147478.0,4827239.0,0.0
1577365972271,7193959.0,4927528.0,0.0
1577365972320,7285043.0,4994527.0,0.0
1577365972368,7337208.0,5039461.0,0.0
1577365972420,7375758.0,5105911.0,0.0
1577365972468,7466225.0,5123413.0,0.0
1577365972516,7537201.0,5115593.0,0.0
1577365972565,7522473.0,5165649.0,0.0
1577365972616,7549063.0,5202560.0,0.0
1577365972662,7560187.0,5268240.0,0.0
1577365972706,7573912.0,5329787.0,0.0
1577365972761,7589243.0,5393302.0,0.0
1577365972809,7619667.0,5444612.0,0.0
1577365972860,7643121.0,5478227.0,0.0
1577365972908,7680600.0,5499416.0,0.0
1577365972958,7707067.0,5528535.0,0.0
1577365973005,7729494.0,5547018.0,0.0
1577365973056,7751904.0,5582531.0,0.0
1577365973099,7771945.0,5613614.0,0.0
1577365973152,7802688.0,5650291.0,0.0
1577365973202,7826414.0,5683484.0,0.0
1577365973251,7846880.0,5708661.0,0.0
1577365973300,7860317.0,5702440.0,0.0
1577365973348,7867264.0,5754536.0,0.0
1577365973398,7891209.0,5749008.0,0.0
1577365973447,7908169.0,5741647.0,0.0
1577365973496,7925580.0,5706729.0,0.0
1577365973543,7956416.0,5683777.0,0.0
1577365973593,7970816.0,5652727.0,0.0
1577365973637,7984979.0,5642493.0,0.0
1577365973689,7996967.0,5668896.0,0.0
1577365973740,8032706.0,5688990.0,0.0
1577365973789,8056763.0,5696633.0,0.0
1577365973838,8083160.0,5736535.0,0.0
1577365973886,8109201.0,5788357.0,0.0
1577365973937,8663298.0,5833392.0,0.0
1577365973983,8600489.0,5881856.0,0.0
1577365974030,8625586.0,5928122.0,0.0
1577365974081,8663656.0,5924776.0,0.0
1577365974133,8687014.0,5919587.0,0.0
1577365974175,8719681.0,5920321.0,0.0
1577365974229,8736250.0,5931528.0,0.0
1577365974278,8767791.0,5937361.0,0.0
1577365974325,8794927.0,5960281.0,0.0
1577365974375,8819509.0,5964905.0,0.0
1577365974423,8846827.0,5968353.0,0.0
1577365974469,8885426.0,5972786.0,0.0
1577365974522,8906001.0,5959692.0,0.0
1577365974572,8923612.0,5951924.0,0.0
1577365974619,8921126.0,5955746.0,0.0
1577365974662,8906814.0,5964521.0,0.0
1577365974718,8904793.0,5973205.0,0.0
1577365974766,8880193.0,5980724.0,0.0
1577365974811,8876913.0,5964737.0,0.0
1577365974863,8869325.0,5971134.0,0.0
1577365974911,8880574.0,6001428.0,0.0
1577365974962,8890746.0,6017269.0,0.0
1577365975012,8899211.0,6029468.0,0.0
1577365975061,8887135.0,6044225.0,0.0
1577365975104,8886224.0,6093547.0,0.0
1577365975159,8875868.0,6096611.0,0.0
1577365975205,8870402.0,6112316.0,0.0
1577365975254,8875156.0,6137768.0,0.0
1577365975303,8875138.0,6132658.0,0.0
1577365975352,8890147.0,6132827.0,0.0
1577365975402,8915726.0,6125015.0,0.0
1577365975450,8931929.0,6125092.0,0.0
1577365975501,8933950.0,6128123.0,0.0
1577365975548,8941770.0,6134840.0,0.0
1577365975595,8919968.0,6140800.0,0.0
1577365975641,8905885.0,6156629.0,0.0
1577365975692,8909216.0,6173476.0,0.0
1577365975743,8921725.0,6166489.0,0.0
1577365975794,8927074.0,6155192.0,0.0
1577365975841,8939299.0,6157545.0,0.0
1577365975892,8941966.0,6159366.0,0.0
1577365975941,8934117.0,6139759.0,0.0
1577365975988,8907924.0,6124800.0,0.0
1577365976033,8869307.0,6104842.0,0.0
1577365976085,8809671.0,6072628.0,0.0
1577365976133,8781987.0,6056391.0,0.0
1577365976177,8670315.0,5995865.0,0.0
1577365976231,8695977.0,6012294.0,0.0
1577365976277,8632909.0,5986547.0,0.0
1577365976327,8549381.0,5962032.0,0.0
1577365976375,8378930.0,5899493.0,0.0
1577365976428,8133885.0,5771678.0,0.0
1577365976474,7912492.0,5609455.0,0.0
1577365976525,7763512.0,5508709.0,0.0
1577365976574,7672796.0,5455882.0,0.0
1577365976623,7576415.0,5395458.0,0.0
1577365976674,7525289.0,5356944.0,0.0
1577365976722,7450112.0,5303507.0,0.0
1577365976771,7343443.0,5234285.0,0.0
1577365976815,7232035.0,5161908.0,0.0
1577365976868,7148838.0,5112112.0,0.0
1577365976913,7073214.0,5073068.0,0.0
1577365976966,6911080.0,4979772.0,0.0
1577365977014,6726400.0,4857374.0,0.0
1577365977060,6589663.0,4772762.0,0.0
1577365977110,6497437.0,4711580.0,0.0
1577365977158,6407269.0,4653450.0,0.0
1577365977204,6323857.0,4599787.0,0.0
1577365977258,6251677.0,4553325.0,0.0
1577365977308,6187600.0,4514147.0,0.0
1577365977354,6125544.0,4469156.0,0.0
1577365977405,6076475.0,4425092.0,0.0
1577365977457,6037393.0,4396507.0,0.0
1577365977504,5989268.0,4361784.0,0.0
1577365977553,5868436.0,4275646.0,0.0
1577365977596,5765989.0,4196870.0,0.0
1577365977646,5712300.0,4159567.0,0.0
1577365977694,5691344.0,4134804.0,0.0
1577365977748,5660844.0,4107056.0,0.0
1577365977797,5621250.0,4076267.0,0.0
1577365977846,5586479.0,4050803.0,0.0
1577365977896,5563850.0,4035065.0,0.0
1577365977943,5548773.0,4022456.0,0.0
1577365977993,5527486.0,4008933.0,0.0
1577365978041,5498793.0,3988853.0,0.0
1577365978090,5446593.0,3952398.0,0.0
1577365978133,5337355.0,3884115.0,0.0
1577365978188,5287772.0,3833900.0,0.0
1577365978239,5281476.0,3819020.0,0.0
1577365978286,5004521.0,3830846.0,0.0
1577365978339,4971958.0,3840640.0,0.0
1577365978382,4954619.0,3825861.0,0.0
1577365978434,4901332.0,3786353.0,0.0
1577365978480,4874176.0,3772604.0,0.0
1577365978530,4871453.0,3774730.0,0.0
1577365978574,4885508.0,3785845.0,0.0
1577365978628,4905913.0,3805033.0,0.0
1577365978677,4895801.0,3799401.0,0.0
1577365978726,4825620.0,3744629.0,0.0
1577365978776,4777984.0,3699740.0,0.0
1577365978824,4760848.0,3683945.0,0.0
1577365978873,4761051.0,3679819.0,0.0
1577365978917,4747264.0,3670162.0,0.0
1577365978971,4746233.0,3665119.0,0.0
1577365979014,4774306.0,3672332.0,0.0
1577365979069,4809643.0,3694382.0,0.0
1577365979121,4830939.0,3705461.0,0.0
1577365979166,4841318.0,3708300.0,0.0
1577365979215,4856226.0,3716431.0,0.0
1577365979264,4862930.0,3711398.0,0.0
1577365979314,4802877.0,3659578.0,0.0
1577365979358,4755250.0,3623994.0,0.0
1577365979411,4750875.0,3612745.0,0.0
1577365979454,4770694.0,3553619.0,0.0
1577365979509,4789748.0,3565555.0,0.0
1577365979555,4809261.0,3571250.0,0.0
1577365979602,4817709.0,3575056.0,0.0
1577365979650,4826651.0,3579538.0,0.0
1577365979704,4833190.0,3583457.0,0.0
1577365979754,4841037.0,3588961.0,0.0
1577365979800,4853200.0,3591527.0,0.0
1577365979851,4862802.0,3598472.0,0.0
1577365979894,4823750.0,3570610.0,0.0
1577365979948,4774573.0,3529884.0,0.0
1577365979996,4752274.0,3510597.0,0.0
1577365980039,4765707.0,3516743.0,0.0
1577365980090,4794100.0,3533594.0,0.0
1577365980138,4813753.0,3544864.0,0.0
1577365980193,4826219.0,3553072.0,0.0
1577365980240,4839920.0,3562443.0,0.0
1577365980291,4863044.0,3576600.0,0.0
1577365980336,4880662.0,3588685.0,0.0
1577365980388,4896982.0,3601696.0,0.0
1577365980438,4912642.0,3609402.0,0.0
1577365980486,4855844.0,3571961.0,0.0
1577365980535,4801565.0,3526599.0,0.0
1577365980583,4810153.0,3528011.0,0.0
1577365980634,4863972.0,3560147.0,0.0
1577365980676,4903037.0,3590851.0,0.0
1577365980731,4914640.0,3602216.0,0.0
1577365980776,4929661.0,3606844.0,0.0
1577365980828,4951693.0,3619319.0,0.0
1577365980879,4982784.0,3638530.0,0.0
1577365980926,5015613.0,3659916.0,0.0
1577365980975,5043090.0,3678969.0,0.0
1577365981019,5069664.0,3694902.0,0.0
1577365981075,5055862.0,3681926.0,0.0
1577365981122,5009369.0,3647815.0,0.0
1577365981172,4994880.0,3633302.0,0.0
1577365981218,5002372.0,3637601.0,0.0
1577365981269,5019366.0,3648585.0,0.0
1577365981318,5032393.0,3656076.0,0.0
1577365981367,5027750.0,3651586.0,0.0
1577365981416,5034402.0,3654056.0,0.0
1577365981465,5048966.0,3665204.0,0.0
1577365981514,5067883.0,3677287.0,0.0
1577365981560,5077296.0,3680633.0,0.0
1577365981608,5091542.0,3686572.0,0.0
1577365981656,5072372.0,3675337.0,0.0
1577365981709,5021122.0,3633015.0,0.0
1577365981759,4999115.0,3614516.0,0.0
1577365981808,5015716.0,3625213.0,0.0
1577365981856,5035622.0,3639978.0,0.0
1577365981905,5053840.0,3651602.0,0.0
1577365981955,5058838.0,3654099.0,0.0
1577365982001,5058660.0,3655996.0,0.0
1577365982052,5067894.0,3665074.0,0.0
1577365982097,5073417.0,3669841.0,0.0
1577365982148,5091186.0,3676716.0,0.0
1577365982199,5124946.0,3699323.0,0.0
1577365982247,5168477.0,3729040.0,0.0
1577365982296,5138379.0,3710931.0,0.0
1577365982344,5103030.0,3679516.0,0.0
1577365982395,5100701.0,3673092.0,0.0
1577365982437,5132898.0,3690595.0,0.0
1577365982492,5169430.0,3718481.0,0.0
1577365982541,5191181.0,3733694.0,0.0
1577365982589,5201856.0,3738282.0,0.0
1577365982638,5216635.0,3745328.0,0.0
1577365982687,5237714.0,3758193.0,0.0
1577365982737,5260470.0,3777101.0,0.0
1577365982784,5290619.0,3794446.0,0.0
1577365982835,5306125.0,3809391.0,0.0
1577365982877,5249227.0,3764859.0,0.0
1577365982933,5184427.0,3715508.0,0.0
1577365982978,5154713.0,3692787.0,0.0
1577365983024,5175702.0,3702887.0,0.0
1577365983078,5208125.0,3727880.0,0.0
1577365983127,5221405.0,3735836.0,0.0
1577365983171,5205225.0,3725789.0,0.0
1577365983218,5195366.0,3719730.0,0.0
1577365983271,5211307.0,3727254.0,0.0
1577365983318,5237497.0,3746308.0,0.0
1577365983368,5256692.0,3759095.0,0.0
1577365983417,5271232.0,3771881.0,0.0
1577365983465,5222347.0,3732914.0,0.0
1577365983519,5152740.0,3678874.0,0.0
1577365983567,5122658.0,3658183.0,0.0
1577365983617,5131435.0,3665377.0,0.0
1577365983661,5150249.0,3680833.0,0.0
1577365983716,5149714.0,3681103.0,0.0
1577365983761,5134182.0,3671194.0,0.0
1577365983814,5133673.0,3666807.0,0.0
1577365983859,5146507.0,3676785.0,0.0
1577365983909,5186221.0,3701924.0,0.0
1577365983958,5226278.0,3736088.0,0.0
1577365984008,5254582.0,3761028.0,0.0
1577365984056,5259581.0,3763811.0,0.0
1577365984101,5203572.0,3714511.0,0.0
1577365984157,5165067.0,3683356.0,0.0
1577365984200,5161913.0,3681397.0,0.0
1577365984252,5188740.0,3697078.0,0.0
1577365984301,5211129.0,3714755.0,0.0
1577365984349,5224662.0,3719938.0,0.0
1577365984399,5234356.0,3724385.0,0.0
1577365984448,5248221.0,3738758.0,0.0
1577365984497,5267046.0,3749993.0,0.0
1577365984547,5280875.0,3759796.0,0.0
1577365984592,5288685.0,3768129.0,0.0
1577365984641,5281499.0,3765804.0,0.0
1577365984693,5229764.0,3724741.0,0.0
1577365984741,5166288.0,3671454.0,0.0
1577365984790,5153938.0,3654558.0,0.0
1577365984839,5160793.0,3661173.0,0.0
1577365984888,5186438.0,3679264.0,0.0
1577365984936,5195990.0,3692535.0,0.0
1577365984984,5194006.0,3693706.0,0.0
1577365985030,5192544.0,3692891.0,0.0
1577365985079,5206219.0,3698318.0,0.0
1577365985133,5223581.0,3711538.0,0.0
1577365985181,5240486.0,3724905.0,0.0
1577365985230,5256781.0,3737189.0,0.0
1577365985280,5243044.0,3728798.0,0.0
1577365985329,5170486.0,3673031.0,0.0
1577365985378,5122224.0,3634793.0,0.0
1577365985424,5112162.0,3626766.0,0.0
1577365985471,5142756.0,3650423.0,0.0
1577365985523,5195394.0,3686389.0,0.0
1577365985574,5230731.0,3714356.0,0.0
1577365985621,5246338.0,3724438.0,0.0
1577365985672,5269172.0,3739087.0,0.0
1577365985720,5310018.0,3762476.0,0.0
1577365985770,5345776.0,3785977.0,0.0
1577365985820,5376825.0,3806868.0,0.0
1577365985868,5360644.0,3798633.0,0.0
1577365985916,5312027.0,3755497.0,0.0
1577365985962,5284093.0,3734164.0,0.0
1577365986015,5303275.0,3745355.0,0.0
1577365986061,5329099.0,3766741.0,0.0
1577365986110,5352594.0,3784208.0,0.0
1577365986160,5353483.0,3788222.0,0.0
1577365986211,5338537.0,3777491.0,0.0
1577365986259,5332228.0,3772592.0,0.0
1577365986309,5345634.0,3780317.0,0.0
1577365986358,5369332.0,3794889.0,0.0
1577365986401,5351449.0,3786949.0,0.0
1577365986455,5271206.0,3725964.0,0.0
1577365986502,5210162.0,3681873.0,0.0
1577365986553,5203636.0,3675780.0,0.0
1577365986597,5223161.0,3692806.0,0.0
1577365986651,5233250.0,3703007.0,0.0
1577365986700,5236034.0,3701648.0,0.0
1577365986746,5225005.0,3699047.0,0.0
1577365986800,5225947.0,3701109.0,0.0
1577365986846,5234292.0,3706969.0,0.0
1577365986896,5248614.0,3722851.0,0.0
1577365986944,5250880.0,3725563.0,0.0
1577365986993,5175753.0,3671367.0,0.0
1577365987037,5121524.0,3632184.0,0.0
1577365987089,5127949.0,3629722.0,0.0
1577365987139,5160461.0,3658042.0,0.0
1577365987187,5195952.0,3681509.0,0.0
1577365987238,5205392.0,3689866.0,0.0
1577365987281,5201881.0,3686745.0,0.0
1577365987335,5212539.0,3691713.0,0.0
1577365987383,5238784.0,3709007.0,0.0
1577365987433,5261145.0,3728780.0,0.0
1577365987476,5285556.0,3745225.0,0.0
1577365987531,5247547.0,3718568.0,0.0
1577365987579,5193700.0,3676560.0,0.0
1577365987622,5177152.0,3663106.0,0.0
1577365987678,5187252.0,3673681.0,0.0
1577365987723,5210352.0,3686554.0,0.0
1577365987774,5214461.0,3690924.0,0.0
1577365987824,5194224.0,3678778.0,0.0
1577365987873,5185853.0,3673439.0,0.0
1577365987920,5199312.0,3680583.0,0.0
1577365987970,5219549.0,3697651.0,0.0
1577365988018,5252228.0,3722607.0,0.0
1577365988062,5220173.0,3697617.0,0.0
1577365988117,5133597.0,3638121.0,0.0
1577365988164,5093323.0,3604427.0,0.0
1577365988216,5103360.0,3614760.0,0.0
1577365988262,5131218.0,3634551.0,0.0
1577365988308,5139817.0,3639448.0,0.0
1577365988357,5131536.0,3636067.0,0.0
1577365988403,5133076.0,3639742.0,0.0
1577365988454,5152779.0,3653136.0,0.0
1577365988502,5179595.0,3672468.0,0.0
1577365988552,5206688.0,3693637.0,0.0
1577365988601,5200811.0,3691582.0,0.0
1577365988655,5128852.0,3636545.0,0.0
1577365988701,5102304.0,3612810.0,0.0
1577365988748,5130162.0,3633641.0,0.0
1577365988802,5173387.0,3667240.0,0.0
1577365988849,5190889.0,3679550.0,0.0
1577365988898,5202605.0,3685938.0,0.0
1577365988948,5224790.0,3697781.0,0.0
1577365988997,5250866.0,3716289.0,0.0
1577365989042,5280505.0,3734501.0,0.0
1577365989091,5307638.0,3753998.0,0.0
1577365989141,5335332.0,3774750.0,0.0
1577365989193,5315830.0,3758281.0,0.0
1577365989240,5265380.0,3712961.0,0.0
1577365989284,5249545.0,3699055.0,0.0
1577365989339,5263360.0,3714234.0,0.0
1577365989387,5275138.0,3725330.0,0.0
1577365989436,5276651.0,3725651.0,0.0
1577365989484,5272555.0,3718863.0,0.0
1577365989535,5283865.0,3730324.0,0.0
1577365989577,5291776.0,3736982.0,0.0
1577365989632,5295097.0,3736756.0,0.0
1577365989680,5309826.0,3749038.0,0.0
1577365989723,5312370.0,3751936.0,0.0
1577365989778,5266806.0,3711199.0,0.0
1577365989827,5221254.0,3674010.0,0.0
1577365989876,5227817.0,3679004.0,0.0
1577365989924,5250930.0,3698326.0,0.0
1577365989975,5268713.0,3708218.0,0.0
1577365990022,5261476.0,3704655.0,0.0
1577365990072,5260089.0,3699584.0,0.0
1577365990120,5265433.0,3705799.0,0.0
1577365990166,5265851.0,3709899.0,0.0
1577365990219,5285314.0,3720242.0,0.0
1577365990266,5322827.0,3751554.0,0.0
1577365990315,5356523.0,3774240.0,0.0
1577365990364,5291739.0,3726856.0,0.0
1577365990414,5245460.0,3685229.0,0.0
1577365990461,5247764.0,3684075.0,0.0
1577365990510,5269858.0,3701057.0,0.0
1577365990559,5296482.0,3721230.0,0.0
1577365990605,5309469.0,3724810.0,0.0
1577365990657,5319913.0,3731911.0,0.0
1577365990705,5333716.0,3744453.0,0.0
1577365990749,5364105.0,3763646.0,0.0
1577365990804,5378480.0,3776952.0,0.0
1577365990854,5387892.0,3788143.0,0.0
1577365990902,5397090.0,3795295.0,0.0
1577365990944,5369574.0,3769350.0,0.0
1577365991000,5320765.0,3727731.0,0.0
1577365991050,5300363.0,3712223.0,0.0
1577365991094,5300770.0,3712162.0,0.0
1577365991145,5312955.0,3728867.0,0.0
1577365991195,5320640.0,3736122.0,0.0
1577365991243,5327344.0,3745373.0,0.0
1577365991294,5344516.0,3756174.0,0.0
1577365991341,5362057.0,3765467.0,0.0
1577365991388,5378288.0,3781416.0,0.0
1577365991440,5391963.0,3793527.0,0.0
1577365991488,5408308.0,3808125.0,0.0
1577365991537,5409732.0,3809158.0,0.0
1577365991586,5353558.0,3760231.0,0.0
1577365991629,5295211.0,3714805.0,0.0
1577365991682,5283444.0,3706059.0,0.0
1577365991729,5306443.0,3724767.0,0.0
1577365991781,5349579.0,3758437.0,0.0
1577365991829,5375693.0,3777897.0,0.0
1577365991879,5387028.0,3787650.0,0.0
1577365991929,5410000.0,3797004.0,0.0
1577365991978,5431702.0,3811628.0,0.0
1577365992025,5456201.0,3829694.0,0.0
1577365992076,5479849.0,3846018.0,0.0
1577365992123,5506002.0,3863866.0,0.0
1577365992174,5525451.0,3873609.0,0.0
1577365992221,5474404.0,3831367.0,0.0
1577365992271,5437501.0,3802170.0,0.0
1577365992320,5428267.0,3791309.0,0.0
1577365992368,5432438.0,3796961.0,0.0
1577365992417,5438761.0,3803341.0,0.0
1577365992465,5436242.0,3802786.0,0.0
1577365992516,5437858.0,3803800.0,0.0
1577365992563,5450630.0,3813388.0,0.0
1577365992611,5475243.0,3830414.0,0.0
1577365992661,5490699.0,3842775.0,0.0
1577365992708,5509323.0,3857710.0,0.0
1577365992759,5531113.0,3876132.0,0.0
1577365992809,5546109.0,3884446.0,0.0
1577365992858,5496219.0,3844282.0,0.0
1577365992906,5464800.0,3814905.0,0.0
1577365992950,5459051.0,3812122.0,0.0
1577365993004,5470169.0,3820712.0,0.0
1577365993052,5473718.0,3826746.0,0.0
1577365993097,5464902.0,3824008.0,0.0
1577365993152,5465881.0,3820635.0,0.0
1577365993199,5475296.0,3831810.0,0.0
1577365993248,5503968.0,3855014.0,0.0
1577365993298,5550459.0,3885261.0,0.0
1577365993345,5584653.0,3917196.0,0.0
1577365993396,5612498.0,3939449.0,0.0
1577365993443,5622139.0,3942838.0,0.0
1577365993489,5581396.0,3905718.0,0.0
1577365993541,5559949.0,3887678.0,0.0
1577365993589,5570610.0,3892134.0,0.0
1577365993640,5595428.0,3908996.0,0.0
1577365993688,5602882.0,3919008.0,0.0
1577365993737,5601252.0,3914335.0,0.0
1577365993785,5599179.0,3910097.0,0.0
1577365993830,5609344.0,3918331.0,0.0
1577365993882,5629913.0,3938600.0,0.0
1577365993930,5646208.0,3950754.0,0.0
1577365993981,5666891.0,3967284.0,0.0
1577365994030,5690436.0,3983695.0,0.0
1577365994080,5690806.0,3981736.0,0.0
1577365994128,5633245.0,3934500.0,0.0
1577365994177,5596864.0,3905753.0,0.0
1577365994225,5590658.0,3901602.0,0.0
1577365994275,5596571.0,3908701.0,0.0
1577365994322,5598009.0,3911318.0,0.0
1577365994370,5588253.0,3906204.0,0.0
1577365994420,5588521.0,3905113.0,0.0
1577365994469,5610400.0,3925587.0,0.0
1577365994519,5659526.0,3958217.0,0.0
1577365994566,5693234.0,3985202.0,0.0
1577365994617,5726843.0,4007464.0,0.0
1577365994660,5757716.0,4030705.0,0.0
1577365994710,5759254.0,4031849.0,0.0
1577365994756,5717595.0,3996525.0,0.0
1577365994813,5689394.0,3975625.0,0.0
1577365994860,5688274.0,3977756.0,0.0
1577365994909,5694672.0,3981882.0,0.0
1577365994959,5700409.0,3987049.0,0.0
1577365995006,5698336.0,3986086.0,0.0
1577365995053,5700880.0,3989875.0,0.0
1577365995100,5710788.0,3994729.0,0.0
1577365995154,5727899.0,4008687.0,0.0
1577365995202,5750057.0,4023996.0,0.0
1577365995251,5780713.0,4047453.0,0.0
1577365995300,5810137.0,4070686.0,0.0
1577365995349,5836226.0,4092393.0,0.0
1577365995399,5854518.0,4113578.0,0.0
1577365995446,5800304.0,4074465.0,0.0
1577365995492,5742057.0,4027083.0,0.0
1577365995544,5719618.0,4010402.0,0.0
1577365995591,5722747.0,4014340.0,0.0
1577365995641,5748454.0,4031148.0,0.0
1577365995692,5782089.0,4054467.0,0.0
1577365995735,5805862.0,4074093.0,0.0
1577365995782,5833172.0,4092558.0,0.0
1577365995834,5852699.0,4104962.0,0.0
1577365995887,5872708.0,4124615.0,0.0
1577365995932,5896674.0,4144032.0,0.0
1577365995983,5917892.0,4161170.0,0.0
1577365996032,5929124.0,4169128.0,0.0
1577365996082,5940217.0,4182192.0,0.0
1577365996132,5905261.0,4159410.0,0.0
1577365996181,5848157.0,4121910.0,0.0
1577365996228,5823403.0,4102690.0,0.0
1577365996276,5833058.0,4110208.0,0.0
1577365996321,5864987.0,4130397.0,0.0
1577365996372,5891840.0,4152163.0,0.0
1577365996423,5899561.0,4162679.0,0.0
1577365996474,5911417.0,4181213.0,0.0
1577365996515,5918464.0,4191876.0,0.0
1577365996570,5908669.0,4188625.0,0.0
1577365996616,5906112.0,4182869.0,0.0
1577365996668,5914724.0,4190246.0,0.0
1577365996715,5936960.0,4199808.0,0.0
1577365996766,5923373.0,4197154.0,0.0
1577365996816,5906379.0,4181369.0,0.0
1577365996864,5913554.0,4185772.0,0.0
1577365996914,5944642.0,4206630.0,0.0
1577365996960,5967259.0,4230426.0,0.0
1577365997011,5962898.0,4236174.0,0.0
1577365997055,5946982.0,4224800.0,0.0
1577365997105,5943446.0,4221236.0,0.0
1577365997158,5942379.0,4222295.0,0.0
1577365997206,5953394.0,4237039.0,0.0
1577365997259,5963266.0,4242925.0,0.0
1577365997304,5984649.0,4257332.0,0.0
1577365997354,5981506.0,4251499.0,0.0
1577365997398,5966077.0,4240776.0,0.0
1577365997451,5961307.0,4250719.0,0.0
1577365997494,5960761.0,4263921.0,0.0
1577365997548,5963366.0,4266055.0,0.0
1577365997594,5966409.0,4267631.0,0.0
1577365997647,5951156.0,4261252.0,0.0
1577365997697,5936946.0,4252911.0,0.0
1577365997744,5960594.0,4255687.0,0.0
1577365997795,5999926.0,4280531.0,0.0
1577365997838,6043520.0,4306946.0,0.0
1577365997892,6074329.0,4334199.0,0.0
1577365997935,6065081.0,4340813.0,0.0
1577365997989,5995106.0,4294861.0,0.0
1577365998033,5936132.0,4250684.0,0.0
1577365998087,5926020.0,4235463.0,0.0
1577365998139,5920016.0,4243411.0,0.0
1577365998185,5913529.0,4245441.0,0.0
1577365998236,5916365.0,4244096.0,0.0
1577365998282,5924265.0,4247529.0,0.0
1577365998332,5935522.0,4258539.0,0.0
1577365998379,5955328.0,4275382.0,0.0
1577365998430,5960672.0,4299524.0,0.0
1577365998474,5969371.0,4310395.0,0.0
1577365998527,5953979.0,4294097.0,0.0
1577365998576,5901723.0,4263680.0,0.0
1577365998625,5852763.0,4236564.0,0.0
1577365998675,5841046.0,4217153.0,0.0
1577365998720,5871844.0,4230755.0,0.0
1577365998772,5913097.0,4260880.0,0.0
1577365998816,5936171.0,4282057.0,0.0
1577365998869,5941526.0,4292597.0,0.0
1577365998916,5929188.0,4292494.0,0.0
1577365998966,5909001.0,4280167.0,0.0
1577365999016,5913504.0,4279283.0,0.0
1577365999064,5922752.0,4289044.0,0.0
1577365999111,5871881.0,4259518.0,0.0
1577365999162,5828811.0,4221826.0,0.0
1577365999211,5834139.0,4221584.0,0.0
1577365999254,5854379.0,4245701.0,0.0
1577365999309,5866539.0,4271662.0,0.0
1577365999361,5865737.0,4282699.0,0.0
1577365999406,5897094.0,4311921.0,0.0
1577365999457,5935229.0,4342964.0,0.0
1577365999504,5995117.0,4400906.0,0.0
1577365999555,6057574.0,4445584.0,0.0
1577365999598,6093739.0,4471088.0,0.0
1577365999652,6142192.0,4490081.0,0.0
1577365999701,6160178.0,4499712.0,0.0
1577365999748,6189780.0,4511199.0,0.0
1577365999795,6233730.0,4531006.0,0.0
1577365999848,6276914.0,4549757.0,0.0
1577365999896,6308016.0,4566194.0,0.0
1577365999944,6376873.0,4616636.0,0.0
1577365999994,6439904.0,4691431.0,0.0
1577366000037,6493227.0,4734514.0,0.0
1577366000093,6509040.0,4728811.0,0.0
1577366000134,6557696.0,4786537.0,0.0
1577366000188,6609275.0,4836477.0,0.0
1577366000236,6537622.0,4781960.0,0.0
1577366000286,6536310.0,4768723.0,0.0
1577366000335,6562235.0,4762307.0,0.0
1577366000384,6559565.0,4748013.0,0.0
1577366000434,6565810.0,4734159.0,0.0
1577366000477,6562070.0,4694050.0,0.0
1577366000531,6566701.0,4669899.0,0.0
1577366000577,6607177.0,4706342.0,0.0
1577366000629,6628827.0,4732728.0,0.0
1577366000676,6702772.0,4807966.0,0.0
1577366000726,6817878.0,4898364.0,0.0
1577366000777,6964509.0,4923312.0,0.0
1577366000817,7009348.0,4927171.0,0.0
1577366000875,7000267.0,4967671.0,0.0
1577366000921,7049851.0,5022500.0,0.0
1577366000971,7089908.0,5058824.0,0.0
1577366001017,7127243.0,5085982.0,0.0
1577366001068,7196797.0,5133842.0,0.0
1577366001118,7227213.0,5128980.0,0.0
1577366001166,7243673.0,5110558.0,0.0
1577366001217,7289403.0,5153166.0,0.0
1577366001264,7481330.0,5258942.0,0.0
1577366001314,7654811.0,5330881.0,0.0
1577366001359,7696356.0,5352576.0,0.0
1577366001412,8141970.0,5332981.0,0.0
1577366001462,8141769.0,5340133.0,0.0
1577366001508,8102052.0,5350174.0,0.0
1577366001558,8097257.0,5355895.0,0.0
1577366001602,8057571.0,5365219.0,0.0
1577366001656,8072655.0,5380211.0,0.0
1577366001699,8073338.0,5429985.0,0.0
1577366001754,8064298.0,5487989.0,0.0
1577366001796,8067069.0,5522557.0,0.0
1577366001852,8079732.0,5556325.0,0.0
1577366001897,8073369.0,5570078.0,0.0
1577366001948,8013121.0,5512364.0,0.0
1577366001998,7935095.0,5460673.0,0.0
1577366002041,7938084.0,5459472.0,0.0
1577366002094,7990846.0,5463052.0,0.0
1577366002142,8031513.0,5452629.0,0.0
1577366002194,8059502.0,5447899.0,0.0
1577366002240,8074857.0,5450140.0,0.0
1577366002290,8104726.0,5489058.0,0.0
1577366002338,8133839.0,5525888.0,0.0
1577366002388,8214951.0,5518677.0,0.0
1577366002438,8289305.0,5540492.0,0.0
1577366002486,8333422.0,5591923.0,0.0
1577366002535,8329196.0,5620872.0,0.0
1577366002582,8306986.0,5629683.0,0.0
1577366002634,8301257.0,5652459.0,0.0
1577366002677,8316359.0,5686166.0,0.0
1577366002731,8322801.0,5704202.0,0.0
1577366002779,8247813.0,5657069.0,0.0
1577366002828,8213321.0,5635435.0,0.0
1577366002878,8286535.0,5652488.0,0.0
1577366002926,8388608.0,5684215.0,0.0
1577366002974,8425159.0,5693368.0,0.0
1577366003017,8449851.0,5688998.0,0.0
1577366003073,8452275.0,5707463.0,0.0
1577366003118,8470843.0,5733908.0,0.0
1577366003170,8527593.0,5742041.0,0.0
1577366003219,8559078.0,5731348.0,0.0
1577366003268,8619707.0,5759695.0,0.0
1577366003317,8668558.0,5813138.0,0.0
1577366003366,8688142.0,5839414.0,0.0
1577366003415,8655815.0,5829412.0,0.0
1577366003460,8652381.0,5831062.0,0.0
1577366003513,8640651.0,5841064.0,0.0
1577366003562,8568260.0,5808867.0,0.0
1577366003606,8577965.0,5834693.0,0.0
1577366003660,8461977.0,5786892.0,0.0
1577366003703,8579356.0,5847206.0,0.0
1577366003757,8659060.0,5849646.0,0.0
1577366003805,8693538.0,5852107.0,0.0
1577366003855,8674272.0,5846607.0,0.0
1577366003898,8668717.0,5853358.0,0.0
1577366003953,8704967.0,5889966.0,0.0
1577366004001,8745602.0,5903719.0,0.0
1577366004046,8902920.0,6030791.0,0.0
1577366004092,9043603.0,6229276.0,0.0
1577366004141,9086247.0,6283654.0,0.0
1577366004191,9066191.0,6319284.0,0.0
1577366004239,9027140.0,6330610.0,0.0
1577366004289,8999404.0,6323039.0,0.0
1577366004342,8971781.0,6321481.0,0.0
1577366004393,8943431.0,6295680.0,0.0
1577366004440,8873335.0,6221476.0,0.0
1577366004490,8866306.0,6197931.0,0.0
1577366004539,8877721.0,6185556.0,0.0
1577366004588,8917341.0,6205370.0,0.0
1577366004637,8913433.0,6197992.0,0.0
1577366004679,8915143.0,6193525.0,0.0
1577366004734,8914508.0,6188079.0,0.0
1577366004781,8908194.0,6195288.0,0.0
1577366004833,8897063.0,6200914.0,0.0
1577366004881,8920032.0,6163896.0,0.0
1577366004930,8901543.0,6172240.0,0.0
1577366004979,8969548.0,6247458.0,0.0
1577366005028,9013856.0,6294907.0,0.0
1577366005076,9029751.0,6319056.0,0.0
1577366005120,9006054.0,6297396.0,0.0
1577366005178,9004802.0,6300546.0,0.0
1577366005220,8980315.0,6291757.0,0.0
1577366005272,8852676.0,6187537.0,0.0
1577366005320,8858646.0,6171044.0,0.0
1577366005369,8895433.0,6196566.0,0.0
1577366005418,8968172.0,6243232.0,0.0
1577366005463,9007985.0,6259521.0,0.0
1577366005517,9093213.0,6306232.0,0.0
1577366005562,9108664.0,6286407.0,0.0
1577366005614,9106844.0,6301199.0,0.0
1577366005661,9080817.0,6296066.0,0.0
1577366005712,9089937.0,6260944.0,0.0
1577366005760,9037223.0,6244187.0,0.0
1577366005810,9101286.0,6320672.0,0.0
1577366005859,9099514.0,6361602.0,0.0
1577366005905,9092676.0,6358198.0,0.0
1577366005952,9067980.0,6353067.0,0.0
1577366006002,9043205.0,6368316.0,0.0
1577366006051,9068726.0,6375970.0,0.0
1577366006098,9203803.0,6388009.0,0.0
1577366006151,9340367.0,6417770.0,0.0
1577366006199,9547090.0,6560529.0,0.0
1577366006249,9630577.0,6560843.0,0.0
1577366006298,1.0379658E7,6561954.0,0.0
1577366006345,1.0200561E7,6511498.0,0.0
1577366006396,1.0135281E7,6464592.0,0.0
1577366006443,1.0110766E7,6463650.0,0.0
1577366006494,1.0016636E7,6472680.0,0.0
1577366006541,1.0025461E7,6489741.0,0.0
1577366006594,1.0070855E7,6500365.0,0.0
1577366006639,1.0105244E7,6588563.0,0.0
1577366006685,1.0066008E7,6615248.0,0.0
1577366006738,1.0045112E7,6621984.0,0.0
1577366006783,1.0014065E7,6593043.0,0.0
1577366006839,1.0040501E7,6608726.0,0.0
1577366006882,1.0065553E7,6623989.0,0.0
1577366006929,9967189.0,6517944.0,0.0
1577366006976,1.0000195E7,6510351.0,0.0
1577366007026,1.0083303E7,6542238.0,0.0
1577366007080,1.0103406E7,6538242.0,0.0
1577366007130,1.0083637E7,6527579.0,0.0
1577366007178,1.0053304E7,6493205.0,0.0
1577366007227,1.002667E7,6470593.0,0.0
1577366007276,1.0013077E7,6481434.0,0.0
1577366007323,1.001264E7,6496334.0,0.0
1577366007375,1.0014044E7,6485152.0,0.0
1577366007416,1.0007416E7,6475047.0,0.0
1577366007467,9987925.0,6522654.0,0.0
1577366007514,9849493.0,6503070.0,0.0
1577366007566,9810176.0,6508251.0,0.0
1577366007614,9797016.0,6509782.0,0.0
1577366007664,9802933.0,6506222.0,0.0
1577366007712,9805763.0,6491467.0,0.0
1577366007767,9743235.0,6439441.0,0.0
1577366007814,9760270.0,6427598.0,0.0
1577366007863,9834968.0,6443548.0,0.0
1577366007913,9838154.0,6434442.0,0.0
1577366007961,9805802.0,6431208.0,0.0
1577366008011,9771331.0,6418820.0,0.0
1577366008054,9756216.0,6424916.0,0.0
1577366008104,9739772.0,6430761.0,0.0
1577366008157,9775011.0,6430049.0,0.0
1577366008205,9771825.0,6408508.0,0.0
1577366008256,9819932.0,6465980.0,0.0
1577366008301,9789240.0,6478982.0,0.0
1577366008352,9760213.0,6473380.0,0.0
1577366008400,9707360.0,6454436.0,0.0
1577366008449,9677262.0,6451696.0,0.0
1577366008499,9655456.0,6434455.0,0.0
1577366008544,9551512.0,6357618.0,0.0
1577366008594,9581710.0,6362532.0,0.0
1577366008644,9627832.0,6369559.0,0.0
1577366008690,9704746.0,6401748.0,0.0
1577366008738,9767395.0,6428576.0,0.0
1577366008793,9766485.0,6417408.0,0.0
1577366008842,9779128.0,6410309.0,0.0
1577366008888,9766147.0,6420811.0,0.0
1577366008939,9772103.0,6443112.0,0.0
1577366008985,9791932.0,6430941.0,0.0
1577366009037,9796583.0,6445298.0,0.0
1577366009084,9803189.0,6487397.0,0.0
1577366009135,9790883.0,6500462.0,0.0
1577366009182,9771847.0,6485020.0,0.0
1577366009232,9767018.0,6484332.0,0.0
1577366009280,9762823.0,6476930.0,0.0
1577366009330,9664696.0,6405924.0,0.0
1577366009374,9680131.0,6406818.0,0.0
1577366009428,9765415.0,6445515.0,0.0
1577366009472,9858794.0,6494739.0,0.0
1577366009523,9863324.0,6485697.0,0.0
1577366009575,9856476.0,6459797.0,0.0
1577366009622,9863918.0,6439684.0,0.0
1577366009672,9872704.0,6448980.0,0.0
1577366009720,9859744.0,6462309.0,0.0
1577366009767,9876640.0,6444971.0,0.0
1577366009819,9854144.0,6465713.0,0.0
1577366009867,9834275.0,6491624.0,0.0
1577366009916,9815221.0,6541283.0,0.0
1577366009964,9780256.0,6529390.0,0.0
1577366010015,9777507.0,6517944.0,0.0
1577366010057,9766901.0,6503432.0,0.0
1577366010108,9675107.0,6423408.0,0.0
1577366010160,9705262.0,6420981.0,0.0
1577366010208,9442645.0,6238390.0,0.0
1577366010258,9553909.0,6331695.0,0.0
1577366010307,9606325.0,6377456.0,0.0
1577366010357,9599932.0,6377335.0,0.0
1577366010404,9580483.0,6380511.0,0.0
1577366010455,9600608.0,6395313.0,0.0
1577366010502,9641447.0,6429420.0,0.0
1577366010551,9755168.0,6479056.0,0.0
1577366010596,9772462.0,6448739.0,0.0
1577366010649,9800163.0,6473973.0,0.0
1577366010692,9754752.0,6502805.0,0.0
1577366010747,9700195.0,6496273.0,0.0
1577366010792,9665845.0,6486324.0,0.0
1577366010847,9675384.0,6500957.0,0.0
1577366010891,9676312.0,6503758.0,0.0
1577366010942,9656426.0,6477982.0,0.0
1577366010990,9694101.0,6479080.0,0.0
1577366011040,9644078.0,6426125.0,0.0
1577366011088,9740266.0,6469916.0,0.0
1577366011139,9757166.0,6471727.0,0.0
1577366011186,9751982.0,6475917.0,0.0
1577366011236,9748081.0,6469167.0,0.0
1577366011284,9729760.0,6482991.0,0.0
1577366011335,9683576.0,6485599.0,0.0
1577366011382,9714620.0,6469130.0,0.0
1577366011427,9705834.0,6449572.0,0.0
1577366011476,9780792.0,6533605.0,0.0
1577366011529,9761063.0,6549577.0,0.0
1577366011578,9768167.0,6569814.0,0.0
1577366011626,9730787.0,6551714.0,0.0
1577366011676,9724615.0,6565877.0,0.0
1577366011724,9682488.0,6561640.0,0.0
1577366011775,9650904.0,6525190.0,0.0
1577366011822,9647918.0,6498881.0,0.0
1577366011869,9619008.0,6487424.0,0.0
1577366011920,9668103.0,6503601.0,0.0
1577366011970,9695587.0,6512305.0,0.0
1577366012018,9704234.0,6506947.0,0.0
1577366012065,9723783.0,6516230.0,0.0
1577366012116,9720042.0,6518742.0,0.0
1577366012164,9709496.0,6554745.0,0.0
1577366012210,9753642.0,6524598.0,0.0
1577366012262,9727285.0,6527338.0,0.0
1577366012307,9747886.0,6564694.0,0.0
1577366012361,9728867.0,6580788.0,0.0
1577366012408,9704074.0,6568873.0,0.0
1577366012453,9701304.0,6569947.0,0.0
1577366012501,9722261.0,6575681.0,0.0
1577366012553,9674769.0,6535608.0,0.0
1577366012600,9652490.0,6508322.0,0.0
1577366012652,9567363.0,6449922.0,0.0
1577366012698,9687811.0,6521276.0,0.0
1577366012748,9729720.0,6536599.0,0.0
1577366012801,9752753.0,6543047.0,0.0
1577366012853,9766919.0,6547006.0,0.0
1577366012899,9787836.0,6556665.0,0.0
1577366012943,9784888.0,6573398.0,0.0
1577366012996,9826261.0,6566300.0,0.0
1577366013040,9799587.0,6543529.0,0.0
1577366013092,9817930.0,6562690.0,0.0
1577366013142,9792625.0,6605479.0,0.0
1577366013189,9773134.0,6620958.0,0.0
1577366013233,9754968.0,6623349.0,0.0
1577366013286,9770225.0,6629662.0,0.0
1577366013332,9759480.0,6621453.0,0.0
1577366013383,9650133.0,6547538.0,0.0
1577366013431,9747292.0,6589155.0,0.0
1577366013485,9769077.0,6587042.0,0.0
1577366013532,9820248.0,6597835.0,0.0
1577366013582,9867736.0,6612579.0,0.0
1577366013629,9943800.0,6652409.0,0.0
1577366013680,1.0031061E7,6710762.0,0.0
1577366013729,1.0001916E7,6691709.0,0.0
1577366013778,9997244.0,6713816.0,0.0
1577366013827,9963409.0,6675085.0,0.0
1577366013870,9984088.0,6671112.0,0.0
1577366013923,9946133.0,6699871.0,0.0
1577366013971,9836632.0,6701500.0,0.0
1577366014021,9730709.0,6674926.0,0.0
1577366014067,9671840.0,6645540.0,0.0
1577366014120,9686424.0,6652131.0,0.0
1577366014168,9670200.0,6613822.0,0.0
1577366014212,9713393.0,6616116.0,0.0
1577366014266,9636440.0,6503831.0,0.0
1577366014313,9786410.0,6596846.0,0.0
1577366014362,9801034.0,6609078.0,0.0
1577366014411,9793297.0,6606843.0,0.0
1577366014461,9792305.0,6603294.0,0.0
1577366014511,9769770.0,6605418.0,0.0
1577366014560,9745845.0,6608824.0,0.0
1577366014604,9794030.0,6560891.0,0.0
1577366014651,9783203.0,6547102.0,0.0
1577366014706,9801052.0,6597499.0,0.0
1577366014751,9780832.0,6623373.0,0.0
1577366014803,9767850.0,6629699.0,0.0
1577366014854,9729244.0,6614801.0,0.0
1577366014902,9713077.0,6631909.0,0.0
1577366014951,9676096.0,6623058.0,0.0
1577366015000,9615328.0,6577444.0,0.0
1577366015047,9604167.0,6543143.0,0.0
1577366015092,9687829.0,6578772.0,0.0
1577366015141,9777329.0,6606806.0,0.0
1577366015192,9814133.0,6613447.0,0.0
1577366015242,9827509.0,6617432.0,0.0
1577366015292,9830200.0,6617456.0,0.0
1577366015341,9817930.0,6640167.0,0.0
1577366015391,9784373.0,6649584.0,0.0
1577366015440,9855370.0,6611141.0,0.0
1577366015488,9821752.0,6622854.0,0.0
1577366015534,9869440.0,6707623.0,0.0
1577366015584,9831267.0,6714443.0,0.0
1577366015633,9815992.0,6714033.0,0.0
1577366015682,9797272.0,6702756.0,0.0
1577366015733,9816487.0,6714734.0,0.0
1577366015781,9738663.0,6661187.0,0.0
1577366015830,9691136.0,6616430.0,0.0
1577366015876,9739850.0,6628395.0,0.0
1577366015927,9836412.0,6663567.0,0.0
1577366015973,9888849.0,6690635.0,0.0
1577366016026,9900920.0,6680094.0,0.0
1577366016074,9900881.0,6669843.0,0.0
1577366016123,9899754.0,6663204.0,0.0
1577366016174,9889205.0,6668708.0,0.0
1577366016221,9909845.0,6671377.0,0.0
1577366016271,9850481.0,6635543.0,0.0
1577366016318,9910222.0,6708588.0,0.0
1577366016368,9864945.0,6723898.0,0.0
1577366016419,9832220.0,6736950.0,0.0
1577366016465,9813518.0,6703420.0,0.0
1577366016513,9807207.0,6694378.0,0.0
1577366016562,9795175.0,6673538.0,0.0
1577366016609,9722478.0,6615102.0,0.0
1577366016655,9704789.0,6587561.0,0.0
1577366016707,9736903.0,6590279.0,0.0
1577366016752,9817358.0,6626885.0,0.0
1577366016808,9851452.0,6645141.0,0.0
1577366016861,9854439.0,6633441.0,0.0
1577366016905,9880501.0,6635615.0,0.0
1577366016955,9885923.0,6654739.0,0.0
1577366016999,9898922.0,6668698.0,0.0
1577366017049,9892451.0,6614462.0,0.0
1577366017096,9889642.0,6659957.0,0.0
1577366017146,9837443.0,6690334.0,0.0
1577366017195,9803271.0,6713793.0,0.0
1577366017244,9742698.0,6685698.0,0.0
1577366017295,9740522.0,6688872.0,0.0
1577366017341,9749568.0,6691770.0,0.0
1577366017391,9712661.0,6649222.0,0.0
1577366017438,9691630.0,6636823.0,0.0
1577366017489,9691054.0,6597280.0,0.0
1577366017536,9823630.0,6667550.0,0.0
1577366017585,9809760.0,6645033.0,0.0
1577366017633,9835324.0,6655307.0,0.0
1577366017682,9837443.0,6654075.0,0.0
1577366017735,9841500.0,6679226.0,0.0
1577366017780,9858378.0,6680808.0,0.0
1577366017831,9871633.0,6652084.0,0.0
1577366017878,9902346.0,6690829.0,0.0
1577366017929,9892430.0,6724356.0,0.0
1577366017979,9815516.0,6719635.0,0.0
1577366018030,9749208.0,6701006.0,0.0
1577366018076,9753703.0,6695983.0,0.0
1577366018127,9763537.0,6700366.0,0.0
1577366018179,9718400.0,6647424.0,0.0
1577366018218,9710723.0,6641640.0,0.0
1577366018269,9768544.0,6638537.0,0.0
1577366018319,9858396.0,6683088.0,0.0
1577366018369,9875512.0,6680723.0,0.0
1577366018417,9882360.0,6682315.0,0.0
1577366018466,9860494.0,6667621.0,0.0
1577366018513,9843061.0,6669639.0,0.0
1577366018567,9821098.0,6656997.0,0.0
1577366018618,9842151.0,6645927.0,0.0
1577366018665,9811441.0,6650864.0,0.0
1577366018714,9861642.0,6708310.0,0.0
1577366018763,9845635.0,6711534.0,0.0
1577366018813,9806496.0,6693230.0,0.0
1577366018859,9766446.0,6691685.0,0.0
1577366018910,9783719.0,6720854.0,0.0
1577366018953,9703441.0,6656286.0,0.0
1577366019007,9762784.0,6670121.0,0.0
1577366019059,9745212.0,6627514.0,0.0
1577366019100,9823235.0,6667333.0,0.0
1577366019154,9824106.0,6669663.0,0.0
1577366019203,9839559.0,6669518.0,0.0
1577366019253,9855566.0,6677645.0,0.0
1577366019299,9803566.0,6683862.0,0.0
1577366019350,9774894.0,6686589.0,0.0
1577366019398,9807939.0,6656574.0,0.0
1577366019447,9810254.0,6676920.0,0.0
1577366019497,9825610.0,6729960.0,0.0
1577366019544,9759857.0,6733377.0,0.0
1577366019594,9751367.0,6732964.0,0.0
1577366019642,9753070.0,6728582.0,0.0
1577366019692,9729639.0,6717077.0,0.0
1577366019739,9639708.0,6670218.0,0.0
1577366019783,9677344.0,6678200.0,0.0
1577366019834,9717372.0,6658217.0,0.0
1577366019881,9774972.0,6698168.0,0.0
1577366019930,9784234.0,6701706.0,0.0
1577366019978,9763377.0,6700138.0,0.0
1577366020035,9767928.0,6698784.0,0.0
1577366020082,9757777.0,6710278.0,0.0
1577366020133,9745194.0,6692614.0,0.0
1577366020175,9729955.0,6659727.0,0.0
1577366020229,9711616.0,6696840.0,0.0
1577366020280,9689372.0,6727410.0,0.0
1577366020322,9657457.0,6723330.0,0.0
1577366020377,9613507.0,6706742.0,0.0
1577366020424,9619640.0,6703349.0,0.0
1577366020474,9638005.0,6710484.0,0.0
1577366020523,9608362.0,6683426.0,0.0
1577366020572,9585034.0,6648595.0,0.0
1577366020615,9624234.0,6660089.0,0.0
1577366020667,9692995.0,6703108.0,0.0
1577366020717,9699328.0,6706911.0,0.0
1577366020767,9695960.0,6708022.0,0.0
1577366020817,9704728.0,6709699.0,0.0
1577366020866,9691175.0,6719093.0,0.0
1577366020916,9710168.0,6714274.0,0.0
1577366020956,9749624.0,6674082.0,0.0
1577366021012,9753404.0,6728740.0,0.0
1577366021059,9666776.0,6740150.0,0.0
1577366021105,9619008.0,6745040.0,0.0
1577366021158,9552483.0,6717016.0,0.0
1577366021207,9576565.0,6734535.0,0.0
1577366021256,9577137.0,6720468.0,0.0
1577366021298,9563328.0,6702648.0,0.0
1577366021355,9551594.0,6677161.0,0.0
1577366021397,9577536.0,6682255.0,0.0
1577366021448,9569838.0,6686856.0,0.0
1577366021498,9504935.0,6668515.0,0.0
1577366021549,9474421.0,6682075.0,0.0
1577366021594,9471395.0,6700246.0,0.0
1577366021640,9467616.0,6717607.0,0.0
1577366021698,9491242.0,6662044.0,0.0
1577366021744,9494684.0,6672331.0,0.0
1577366021796,9525692.0,6744786.0,0.0
1577366021838,9445077.0,6750568.0,0.0
1577366021892,9363751.0,6771143.0,0.0
1577366021939,9267367.0,6748793.0,0.0
1577366021989,9262538.0,6741549.0,0.0
1577366022039,9246670.0,6705353.0,0.0
1577366022086,9312995.0,6711389.0,0.0
1577366022137,9310919.0,6665352.0,0.0
1577366022180,9380135.0,6693122.0,0.0
1577366022236,9400476.0,6702140.0,0.0
1577366022278,9402830.0,6691469.0,0.0
1577366022332,9384469.0,6687327.0,0.0
1577366022382,9309336.0,6689223.0,0.0
1577366022429,9260024.0,6653194.0,0.0
1577366022474,9283591.0,6665135.0,0.0
1577366022527,9269603.0,6681374.0,0.0
1577366022573,9209447.0,6694391.0,0.0
1577366022617,9158773.0,6696528.0,0.0
1577366022668,9112568.0,6685275.0,0.0
1577366022716,9092881.0,6693206.0,0.0
1577366022772,8981656.0,6664315.0,0.0
1577366022819,8976512.0,6676087.0,0.0
1577366022862,8888554.0,6603172.0,0.0
1577366022919,8943011.0,6624023.0,0.0
1577366022967,8887310.0,6575874.0,0.0
1577366023016,8904444.0,6586608.0,0.0
1577366023060,8935591.0,6622526.0,0.0
1577366023113,8963729.0,6668661.0,0.0
1577366023159,8956743.0,6665207.0,0.0
1577366023212,8934065.0,6595169.0,0.0
1577366023260,8865820.0,6613423.0,0.0
1577366023304,8812888.0,6657130.0,0.0
1577366023358,8775253.0,6653871.0,0.0
1577366023407,8767534.0,6663469.0,0.0
1577366023456,8764469.0,6656757.0,0.0
1577366023498,8775630.0,6651927.0,0.0
1577366023554,8765358.0,6607967.0,0.0
1577366023599,8835783.0,6631656.0,0.0
1577366023653,8839779.0,6596785.0,0.0
1577366023700,8892750.0,6637075.0,0.0
1577366023749,8909116.0,6651250.0,0.0
1577366023798,8895185.0,6626017.0,0.0
1577366023847,8924330.0,6643536.0,0.0
1577366023895,8930208.0,6667259.0,0.0
1577366023941,8934936.0,6640106.0,0.0
1577366023993,8987434.0,6606349.0,0.0
1577366024040,8947580.0,6658928.0,0.0
1577366024093,8860497.0,6672223.0,0.0
1577366024134,8788096.0,6674045.0,0.0
1577366024182,8751687.0,6662829.0,0.0
1577366024235,8742186.0,6659629.0,0.0
1577366024281,8740188.0,6646408.0,0.0
1577366024332,8738883.0,6607967.0,0.0
1577366024378,8792110.0,6597692.0,0.0
1577366024434,8850545.0,6581851.0,0.0
1577366024483,8981002.0,6647569.0,0.0
1577366024531,9035221.0,6679914.0,0.0
1577366024579,9027207.0,6693931.0,0.0
1577366024629,9029223.0,6680372.0,0.0
1577366024678,9017095.0,6678285.0,0.0
1577366024722,9064266.0,6681012.0,0.0
1577366024776,9107601.0,6668058.0,0.0
1577366024821,9143715.0,6703143.0,0.0
1577366024876,9151747.0,6724575.0,0.0
1577366024921,9125845.0,6722727.0,0.0
1577366024971,9035637.0,6686505.0,0.0
1577366025019,9009635.0,6686928.0,0.0
1577366025064,8968992.0,6657481.0,0.0
1577366025117,8975107.0,6650116.0,0.0
1577366025160,8981358.0,6618120.0,0.0
1577366025216,9057521.0,6644321.0,0.0
1577366025262,9072184.0,6639587.0,0.0
1577366025313,9121692.0,6668867.0,0.0
1577366025361,9128636.0,6671015.0,0.0
1577366025411,9078968.0,6675386.0,0.0
1577366025459,9028768.0,6683355.0,0.0
1577366025509,9025763.0,6664871.0,0.0
1577366025557,9064288.0,6649886.0,0.0
1577366025603,9102240.0,6685420.0,0.0
1577366025655,9072640.0,6701453.0,0.0
1577366025702,9047288.0,6705208.0,0.0
1577366025754,8997326.0,6682738.0,0.0
1577366025802,8997447.0,6695560.0,0.0
1577366025851,8946296.0,6657590.0,0.0
1577366025900,8918513.0,6599708.0,0.0
1577366025949,8919957.0,6581610.0,0.0
1577366025997,8972611.0,6614656.0,0.0
1577366026041,9055146.0,6673768.0,0.0
1577366026094,9123968.0,6707659.0,0.0
1577366026142,9108273.0,6697554.0,0.0
1577366026193,9116686.0,6698229.0,0.0
1577366026240,9115555.0,6709373.0,0.0
1577366026290,9088231.0,6711280.0,0.0
1577366026340,9158158.0,6698253.0,0.0
1577366026389,9153290.0,6700778.0,0.0
1577366026437,9203573.0,6754505.0,0.0
1577366026482,9163857.0,6743699.0,0.0
1577366026535,9122364.0,6732990.0,0.0
1577366026585,9098282.0,6719153.0,0.0
1577366026634,9110531.0,6720468.0,0.0
1577366026681,9086666.0,6695827.0,0.0
1577366026727,9141240.0,6735490.0,0.0
1577366026780,9003480.0,6577069.0,0.0
1577366026829,9144209.0,6718429.0,0.0
1577366026873,9168131.0,6695042.0,0.0
1577366026922,9161603.0,6683138.0,0.0
1577366026976,9168529.0,6675809.0,0.0
1577366027023,9156103.0,6660885.0,0.0
1577366027069,9161365.0,6678695.0,0.0
1577366027121,9175057.0,6695343.0,0.0
1577366027171,9232679.0,6672765.0,0.0
1577366027220,9185962.0,6649984.0,0.0
1577366027263,9330645.0,6781127.0,0.0
1577366027317,9371370.0,6798876.0,0.0
1577366027364,9371349.0,6828142.0,0.0
1577366027415,9357496.0,6809827.0,0.0
1577366027464,9353578.0,6796413.0,0.0
1577366027514,9347406.0,6767049.0,0.0
1577366027560,9336504.0,6739388.0,0.0
1577366027606,9375783.0,6727810.0,0.0
1577366027659,9579473.0,6820269.0,0.0
1577366027704,9678570.0,6881978.0,0.0
1577366027757,9698158.0,6879685.0,0.0
1577366027804,9675246.0,6852688.0,0.0
1577366027854,9643644.0,6830147.0,0.0
1577366027904,9622176.0,6824133.0,0.0
1577366027953,9634065.0,6817082.0,0.0
1577366028001,9668913.0,6812012.0,0.0
1577366028051,9693728.0,6826621.0,0.0
1577366028095,9639292.0,6829277.0,0.0
1577366028145,9566158.0,6820766.0,0.0
1577366028197,9519598.0,6793140.0,0.0
1577366028244,9527096.0,6807183.0,0.0
1577366028294,9492071.0,6779667.0,0.0
1577366028342,9478638.0,6760686.0,0.0
1577366028393,9475886.0,6732530.0,0.0
1577366028440,9491537.0,6722280.0,0.0
1577366028490,9521180.0,6734607.0,0.0
1577366028538,9513877.0,6741742.0,0.0
1577366028587,9487936.0,6740512.0,0.0
1577366028636,9456316.0,6725323.0,0.0
1577366028684,9458097.0,6738965.0,0.0
1577366028730,9469930.0,6741163.0,0.0
1577366028782,9555374.0,6759261.0,0.0
1577366028833,9566986.0,6766650.0,0.0
1577366028883,9594254.0,6816262.0,0.0
1577366028927,9497038.0,6809524.0,0.0
1577366028979,9418524.0,6776962.0,0.0
1577366029025,9384725.0,6758163.0,0.0
1577366029073,9409578.0,6762522.0,0.0
1577366029126,9393472.0,6735175.0,0.0
1577366029168,9364323.0,6688160.0,0.0
1577366029218,9283651.0,6622949.0,0.0
1577366029268,9369507.0,6697795.0,0.0
1577366029317,9457642.0,6750171.0,0.0
1577366029368,9441059.0,6733533.0,0.0
1577366029415,9444049.0,6743868.0,0.0
1577366029464,9454812.0,6753757.0,0.0
1577366029516,9467061.0,6766229.0,0.0
1577366029565,9495872.0,6767544.0,0.0
1577366029613,9521696.0,6761736.0,0.0
1577366029662,9572686.0,6810079.0,0.0
1577366029713,9521557.0,6810177.0,0.0
1577366029760,9520014.0,6827008.0,0.0
1577366029806,9471217.0,6795832.0,0.0
1577366029853,9500046.0,6804440.0,0.0
1577366029907,9536792.0,6808016.0,0.0
1577366029956,9548686.0,6746402.0,0.0
1577366030005,9664796.0,6796472.0,0.0
1577366030055,9719093.0,6820052.0,0.0
1577366030098,9757443.0,6846179.0,0.0
1577366030153,9765020.0,6837428.0,0.0
1577366030200,9697624.0,6806627.0,0.0
1577366030249,9649482.0,6785475.0,0.0
1577366030298,9630606.0,6804080.0,0.0
1577366030346,9592455.0,6798659.0,0.0
1577366030395,9630823.0,6774391.0,0.0
1577366030444,9634186.0,6784930.0,0.0
1577366030495,9627576.0,6826561.0,0.0
1577366030541,9564732.0,6830834.0,0.0
1577366030588,9491242.0,6821718.0,0.0
1577366030639,9425763.0,6805818.0,0.0
1577366030689,9425169.0,6806519.0,0.0
1577366030733,9390997.0,6761363.0,0.0
1577366030786,9409223.0,6748346.0,0.0
1577366030836,9399864.0,6718561.0,0.0
1577366030886,9443512.0,6736442.0,0.0
1577366030935,9451527.0,6742226.0,0.0
1577366030982,9471889.0,6747841.0,0.0
1577366031025,9444284.0,6734244.0,0.0
1577366031075,9397824.0,6751908.0,0.0
1577366031130,9305912.0,6736902.0,0.0
1577366031178,9348792.0,6729150.0,0.0
1577366031227,9393134.0,6716437.0,0.0
1577366031275,9446503.0,6804345.0,0.0
1577366031323,9404928.0,6793200.0,0.0
1577366031373,9392167.0,6797440.0,0.0
1577366031422,9348533.0,6771143.0,0.0
1577366031468,9325422.0,6772447.0,0.0
1577366031520,9277795.0,6747708.0,0.0
1577366031569,9239843.0,6701405.0,0.0
1577366031617,9221361.0,6665233.0,0.0
1577366031666,9295484.0,6708757.0,0.0
1577366031715,9338503.0,6733268.0,0.0
1577366031763,9368917.0,6749205.0,0.0
1577366031815,9370478.0,6743096.0,0.0
1577366031861,9399921.0,6755362.0,0.0
1577366031909,9321031.0,6750568.0,0.0
1577366031959,9297781.0,6740692.0,0.0
1577366032009,9348572.0,6718887.0,0.0
1577366032059,9401763.0,6795784.0,0.0
1577366032102,9321841.0,6784279.0,0.0
1577366032155,9312938.0,6810333.0,0.0
1577366032204,9296433.0,6798659.0,0.0
1577366032252,9336128.0,6813800.0,0.0
1577366032301,9318894.0,6782830.0,0.0
1577366032349,9247936.0,6722243.0,0.0
1577366032399,9256821.0,6708022.0,0.0
1577366032447,9280782.0,6691722.0,0.0
1577366032497,9414428.0,6776311.0,0.0
1577366032547,9462748.0,6790484.0,0.0
1577366032593,9466446.0,6780366.0,0.0
1577366032643,9454023.0,6773135.0,0.0
1577366032692,9448696.0,6780886.0,0.0
1577366032736,9508359.0,6798066.0,0.0
1577366032790,9568551.0,6794602.0,0.0
1577366032833,9596195.0,6827574.0,0.0
1577366032881,9531847.0,6841905.0,0.0
1577366032931,9534734.0,6865123.0,0.0
1577366032982,9497216.0,6838211.0,0.0
1577366033031,9469276.0,6825643.0,0.0
1577366033078,9491992.0,6821599.0,0.0
1577366033128,9441596.0,6774970.0,0.0
1577366033180,9440526.0,6755905.0,0.0
1577366033230,9418165.0,6730973.0,0.0
1577366033279,9471413.0,6762400.0,0.0
1577366033328,9480693.0,6769755.0,0.0
1577366033378,9462848.0,6757909.0,0.0
1577366033424,9476696.0,6772458.0,0.0
1577366033471,9453269.0,6770839.0,0.0
1577366033522,9467992.0,6783095.0,0.0
1577366033571,9508476.0,6753622.0,0.0
1577366033620,9482890.0,6770453.0,0.0
1577366033671,9417255.0,6793515.0,0.0
1577366033720,9308682.0,6782756.0,0.0
1577366033767,9285134.0,6768039.0,0.0
1577366033815,9326648.0,6793660.0,0.0
1577366033865,9342616.0,6791124.0,0.0
1577366033911,9350986.0,6788950.0,0.0
1577366033958,9391690.0,6783253.0,0.0
1577366034011,9367136.0,6717125.0,0.0
1577366034061,9398140.0,6750520.0,0.0
1577366034106,9379303.0,6743686.0,0.0
1577366034159,9348632.0,6729960.0,0.0
1577366034207,9366460.0,6759165.0,0.0
1577366034252,9375367.0,6772373.0,0.0
1577366034304,9398656.0,6770418.0,0.0
1577366034351,9453112.0,6768377.0,0.0
1577366034395,9476323.0,6790968.0,0.0
1577366034446,9417969.0,6778858.0,0.0
1577366034493,9383676.0,6777493.0,0.0
1577366034543,9331004.0,6759250.0,0.0
1577366034592,9309116.0,6742514.0,0.0
1577366034647,9324017.0,6740293.0,0.0
1577366034693,9372576.0,6757150.0,0.0
1577366034740,9381084.0,6707128.0,0.0
1577366034794,9426496.0,6739232.0,0.0
1577366034842,9395214.0,6729910.0,0.0
1577366034896,9367075.0,6696044.0,0.0
1577366034940,9350097.0,6695367.0,0.0
1577366034988,9326314.0,6715083.0,0.0
1577366035036,9312661.0,6697866.0,0.0
1577366035082,9361454.0,6676399.0,0.0
1577366035132,9348711.0,6650320.0,0.0
1577366035183,9383836.0,6722100.0,0.0
1577366035231,9306247.0,6690599.0,0.0
1577366035282,9319128.0,6723137.0,0.0
1577366035331,9315310.0,6719130.0,0.0
1577366035380,9297543.0,6716075.0,0.0
1577366035429,9241703.0,6648209.0,0.0
1577366035474,9225557.0,6620246.0,0.0
1577366035525,9364583.0,6666741.0,0.0
1577366035576,9476419.0,6710833.0,0.0
1577366035619,9520170.0,6727762.0,0.0
1577366035671,9507132.0,6704327.0,0.0
1577366035717,9483960.0,6676182.0,0.0
1577366035767,9491459.0,6695936.0,0.0
1577366035815,9456615.0,6685407.0,0.0
1577366035864,9486670.0,6688004.0,0.0
1577366035912,9497532.0,6672199.0,0.0
1577366035963,9548604.0,6738796.0,0.0
1577366036014,9451804.0,6710569.0,0.0
1577366036059,9483367.0,6754987.0,0.0
1577366036109,9458929.0,6742395.0,0.0
1577366036157,9487441.0,6753792.0,0.0
1577366036207,9467416.0,6714528.0,0.0
1577366036252,9457287.0,6694016.0,0.0
1577366036304,9435541.0,6640045.0,0.0
1577366036354,9519420.0,6680361.0,0.0
1577366036401,9531072.0,6694486.0,0.0
1577366036451,9509763.0,6689319.0,0.0
1577366036498,9501432.0,6671292.0,0.0
1577366036549,9514908.0,6695862.0,0.0
1577366036596,9488096.0,6680361.0,0.0
1577366036646,9547477.0,6672694.0,0.0
1577366036695,9516312.0,6679673.0,0.0
1577366036743,9500124.0,6714456.0,0.0
1577366036795,9457425.0,6729573.0,0.0
1577366036841,9410944.0,6713346.0,0.0
1577366036890,9415040.0,6706609.0,0.0
1577366036938,9446997.0,6723076.0,0.0
1577366036989,9403207.0,6672308.0,0.0
1577366037036,9394264.0,6639635.0,0.0
1577366037085,9425429.0,6632946.0,0.0
1577366037134,9506161.0,6669663.0,0.0
1577366037183,9488728.0,6679152.0,0.0
1577366037235,9477212.0,6673527.0,0.0
1577366037280,9470008.0,6665064.0,0.0
1577366037331,9457344.0,6666016.0,0.0
1577366037378,9490528.0,6689223.0,0.0
1577366037428,9564970.0,6677367.0,0.0
1577366037475,9560597.0,6686396.0,0.0
1577366037525,9547872.0,6734112.0,0.0
1577366037573,9443118.0,6738000.0,0.0
1577366037622,9408451.0,6719889.0,0.0
1577366037673,9399288.0,6706573.0,0.0
1577366037724,9391946.0,6688485.0,0.0
1577366037775,9325184.0,6604875.0,0.0
1577366037815,9494328.0,6686989.0,0.0
1577366037865,9374574.0,6572843.0,0.0
1577366037914,9529155.0,6718622.0,0.0
1577366037965,9528661.0,6708456.0,0.0
1577366038013,9481525.0,6679311.0,0.0
1577366038063,9460156.0,6688004.0,0.0
1577366038111,9424814.0,6691479.0,0.0
1577366038157,9413198.0,6675325.0,0.0
1577366038213,9487996.0,6656926.0,0.0
1577366038261,9495356.0,6676605.0,0.0
1577366038311,9515463.0,6724853.0,0.0
1577366038355,9490193.0,6739714.0,0.0
1577366038407,9448896.0,6738881.0,0.0
1577366038456,9357617.0,6713756.0,0.0
1577366038506,9313589.0,6701839.0,0.0
1577366038555,9291249.0,6678452.0,0.0
1577366038598,9346752.0,6687822.0,0.0
1577366038653,9294830.0,6620487.0,0.0
1577366038701,9364721.0,6670930.0,0.0
1577366038750,9346218.0,6660922.0,0.0
1577366038797,9337194.0,6651480.0,0.0
1577366038844,9320892.0,6647857.0,0.0
1577366038895,9273440.0,6660208.0,0.0
1577366038941,9206122.0,6626970.0,0.0
1577366038992,9225813.0,6623976.0,0.0
1577366039036,9213130.0,6643113.0,0.0
1577366039086,9153251.0,6652954.0,0.0
1577366039137,9086016.0,6641893.0,0.0
1577366039190,9066446.0,6649682.0,0.0
1577366039239,9038407.0,6630966.0,0.0
1577366039287,8981297.0,6617263.0,0.0
1577366039337,8903395.0,6577759.0,0.0
1577366039384,8860376.0,6537613.0,0.0
1577366039434,8859783.0,6541561.0,0.0
1577366039481,8844725.0,6534679.0,0.0
1577366039532,8838392.0,6548154.0,0.0
1577366039575,8850069.0,6556350.0,0.0
1577366039630,8869162.0,6572036.0,0.0
1577366039677,8882638.0,6582176.0,0.0
1577366039726,8793180.0,6523608.0,0.0
1577366039776,8720501.0,6521591.0,0.0
1577366039824,8622869.0,6506318.0,0.0
1577366039874,8588401.0,6508478.0,0.0
1577366039917,8542613.0,6504966.0,0.0
1577366039972,8529194.0,6481650.0,0.0
1577366040014,8533390.0,6479019.0,0.0
1577366040062,8529592.0,6465629.0,0.0
1577366040112,8535288.0,6456888.0,0.0
1577366040166,8372224.0,6343649.0,0.0
1577366040216,8319054.0,6342274.0,0.0
1577366040262,8296039.0,6345244.0,0.0
1577366040313,8315175.0,6364839.0,0.0
1577366040361,8321585.0,6367917.0,0.0
1577366040411,8357383.0,6386173.0,0.0
1577366040457,8405226.0,6405816.0,0.0
1577366040508,8515840.0,6399490.0,0.0
1577366040557,8541998.0,6454486.0,0.0
1577366040602,8442051.0,6445889.0,0.0
1577366040649,8386055.0,6432065.0,0.0
1577366040699,8347210.0,6413496.0,0.0
1577366040754,8380533.0,6405744.0,0.0
1577366040799,8374912.0,6397316.0,0.0
1577366040850,8430279.0,6393187.0,0.0
1577366040901,8434531.0,6389432.0,0.0
1577366040944,8418464.0,6369052.0,0.0
1577366040997,8357916.0,6367904.0,0.0
1577366041045,8275224.0,6357679.0,0.0
1577366041089,8242851.0,6336043.0,0.0
1577366041141,8227655.0,6334340.0,0.0
1577366041193,8265528.0,6354178.0,0.0
1577366041237,8319964.0,6362496.0,0.0
1577366041289,8243644.0,6305726.0,0.0
1577366041339,8224469.0,6322097.0,0.0
1577366041387,8121137.0,6248918.0,0.0
1577366041436,7997667.0,6176054.0,0.0
1577366041485,7906190.0,6108344.0,0.0
1577366041534,7877713.0,6067282.0,0.0
1577366041577,7906268.0,6058843.0,0.0
1577366041632,7923640.0,6026775.0,0.0
1577366041678,7948928.0,6032570.0,0.0
1577366041729,7945464.0,6037304.0,0.0
1577366041778,7942439.0,6013433.0,0.0
1577366041822,7963335.0,6009751.0,0.0
1577366041877,7934542.0,6016041.0,0.0
1577366041918,7883946.0,6027439.0,0.0
1577366041974,7909966.0,6025712.0,0.0
1577366042018,7916458.0,6045659.0,0.0
1577366042071,7844846.0,6021981.0,0.0
1577366042118,7825159.0,5970813.0,0.0
1577366042169,7812298.0,5946014.0,0.0
1577366042218,7821162.0,5913862.0,0.0
1577366042267,7820092.0,5902210.0,0.0
1577366042316,7678851.0,5799343.0,0.0
1577366042358,7576469.0,5730560.0,0.0
1577366042415,7500743.0,5655389.0,0.0
1577366042460,7512241.0,5631192.0,0.0
1577366042511,7499537.0,5601418.0,0.0
1577366042560,7530919.0,5607480.0,0.0
1577366042605,7582940.0,5648314.0,0.0
1577366042659,7628234.0,5692008.0,0.0
1577366042707,7631637.0,5665000.0,0.0
1577366042757,7594257.0,5642469.0,0.0
1577366042806,7576746.0,5636384.0,0.0
1577366042854,7552508.0,5600355.0,0.0
1577366042902,7578172.0,5589406.0,0.0
1577366042953,7586997.0,5572623.0,0.0
1577366042998,7591310.0,5561057.0,0.0
1577366043045,7591747.0,5549973.0,0.0
1577366043094,7627047.0,5545591.0,0.0
1577366043142,7573639.0,5484340.0,0.0
1577366043193,7524746.0,5441165.0,0.0
1577366043241,7511331.0,5416341.0,0.0
1577366043289,7541525.0,5405860.0,0.0
1577366043339,7569208.0,5415823.0,0.0
1577366043392,7580369.0,5452018.0,0.0
1577366043440,7621685.0,5496148.0,0.0
1577366043489,7658883.0,5524727.0,0.0
1577366043538,7730951.0,5560671.0,0.0
1577366043587,7640145.0,5527480.0,0.0
1577366043637,7534005.0,5438147.0,0.0
1577366043683,7432120.0,5357676.0,0.0
1577366043736,7421496.0,5310661.0,0.0
1577366043781,7460199.0,5325522.0,0.0
1577366043832,7478520.0,5322250.0,0.0
1577366043876,7551043.0,5341509.0,0.0
1577366043925,7538300.0,5310854.0,0.0
1577366043972,7551281.0,5320452.0,0.0
1577366044023,7522133.0,5315731.0,0.0
1577366044072,7494215.0,5288818.0,0.0
1577366044119,7486496.0,5278229.0,0.0
1577366044176,7483331.0,5295557.0,0.0
1577366044220,7510062.0,5325691.0,0.0
1577366044269,7554485.0,5358533.0,0.0
1577366044320,7555100.0,5370823.0,0.0
1577366044369,7504227.0,5358858.0,0.0
1577366044418,7491541.0,5327333.0,0.0
1577366044462,7415637.0,5249121.0,0.0
1577366044516,7358510.0,5176944.0,0.0
1577366044560,7346720.0,5152989.0,0.0
1577366044610,7268163.0,5048734.0,0.0
1577366044660,7513546.0,5187182.0,0.0
1577366044711,7560245.0,5163578.0,0.0
1577366044759,7748028.0,5252308.0,0.0
1577366044809,7772760.0,5259457.0,0.0
1577366044858,7794727.0,5277869.0,0.0
1577366044905,7777034.0,5292066.0,0.0
1577366044957,7776067.0,5304745.0,0.0
1577366045004,7872074.0,5295906.0,0.0
1577366045053,7972000.0,5290871.0,0.0
1577366045097,7996536.0,5352532.0,0.0
1577366045151,7965728.0,5379614.0,0.0
1577366045199,7954250.0,5403990.0,0.0
1577366045248,7993944.0,5426677.0,0.0
1577366045297,8002513.0,5420470.0,0.0
1577366045341,8099612.0,5488180.0,0.0
1577366045396,8157489.0,5506013.0,0.0
1577366045441,8366030.0,5554054.0,0.0
1577366045493,8489738.0,5597941.0,0.0
1577366045540,8547221.0,5620870.0,0.0
1577366045590,8552920.0,5598665.0,0.0
1577366045639,8573678.0,5606695.0,0.0
1577366045686,8588935.0,5618080.0,0.0
1577366045737,8562439.0,5594211.0,0.0
1577366045781,8618339.0,5617778.0,0.0
1577366045834,8598492.0,5595708.0,0.0
1577366045882,8634268.0,5666013.0,0.0
1577366045934,8577201.0,5665264.0,0.0
1577366045980,8541009.0,5650729.0,0.0
1577366046030,8531253.0,5660483.0,0.0
1577366046078,8542197.0,5671133.0,0.0
1577366046123,8557788.0,5685005.0,0.0
1577366046176,8642439.0,5727457.0,0.0
1577366046225,8663136.0,5682904.0,0.0
1577366046275,8858677.0,5786098.0,0.0
1577366046321,8830183.0,5765417.0,0.0
1577366046372,8815182.0,5751651.0,0.0
1577366046420,8815224.0,5763544.0,0.0
1577366046465,8775747.0,5776355.0,0.0
1577366046511,8765120.0,5801129.0,0.0
1577366046562,8816963.0,5801576.0,0.0
1577366046617,8792448.0,5800309.0,0.0
