time,value
1574255309964,4859670.0
1574255310030,4814676.0
1574255310055,4813045.0
1574255310100,4833026.0
1574255310149,4832865.0
1574255310192,4826844.0
1574255310247,4830187.0
1574255310297,4824995.0
1574255310346,4807473.0
1574255310399,4753806.0
1574255310442,4691280.0
1574255310499,4674574.0
1574255310545,4677539.0
1574255310598,4687201.0
1574255310644,4675447.0
1574255310688,4660752.0
1574255310759,4657019.0
1574255310846,4670736.0
1574255310848,4699127.0
1574255310947,4696704.0
1574255310948,4658960.0
1574255310982,4563575.0
1574255311033,4444440.0
1574255311081,4383913.0
1574255311134,4342321.0
1574255311180,4421933.0
1574255311235,4554279.0
1574255311278,4694600.0
1574255311330,4797419.0
1574255311378,4866023.0
1574255311428,4858372.0
1574255311476,4768328.0
1574255311527,4639785.0
1574255311576,4566827.0
1574255311624,4530933.0
1574255311674,4496350.0
1574255311723,4456194.0
1574255311774,4384695.0
1574255311823,4304693.0
1574255311876,4328225.0
1574255311922,4386165.0
1574255311974,4424196.0
1574255312021,4428240.0
1574255312071,4429836.0
1574255312119,4402514.0
1574255312171,4381283.0
1574255312218,4390084.0
1574255312268,4374412.0
1574255312316,4293020.0
1574255312366,4199415.0
1574255312415,4146886.0
1574255312465,4114762.0
1574255312513,4075961.0
1574255312563,4030497.0
1574255312618,3995660.0
1574255312666,3969017.0
1574255312719,3948773.0
1574255312758,3928712.0
1574255312811,3880743.0
1574255312859,3805545.0
1574255312909,3760656.0
1574255312961,3748717.0
1574255313006,3738962.0
1574255313054,3716903.0
1574255313103,3696912.0
1574255313155,3685766.0
1574255313204,3591946.0
1574255313253,3589310.0
1574255313303,3571065.0
1574255313355,3513892.0
1574255313402,3499966.0
1574255313458,3528506.0
1574255313505,3562969.0
1574255313555,3580611.0
1574255313602,3616853.0
1574255313653,3646575.0
1574255313696,3667002.0
1574255313752,3673378.0
1574255313800,3637825.0
1574255313850,3558438.0
1574255313897,3502275.0
1574255313948,3469314.0
1574255313999,3449632.0
1574255314047,3427636.0
1574255314099,3410362.0
1574255314145,3397619.0
1574255314195,3396284.0
1574255314244,3395480.0
1574255314290,3393273.0
1574255314342,3348886.0
1574255314393,3296983.0
1574255314441,3277444.0
1574255314491,3273006.0
1574255314536,3277320.0
1574255314590,3273258.0
1574255314635,3271421.0
1574255314681,3276304.0
1574255314736,3282537.0
1574255314782,3293039.0
1574255314833,3308166.0
1574255314881,3300490.0
1574255314935,3246346.0
1574255314978,3207119.0
1574255315033,3194593.0
1574255315082,3187126.0
1574255315132,3172841.0
1574255315181,3163034.0
1574255315230,3165450.0
1574255315277,3177161.0
1574255315329,3180013.0
1574255315379,3185131.0
1574255315427,3190802.0
1574255315478,3178477.0
1574255315525,3131843.0
1574255315576,3108571.0
1574255315620,3113354.0
1574255315675,3133454.0
1574255315722,3137186.0
1574255315773,3137001.0
1574255315815,3151221.0
1574255315867,3175718.0
1574255315915,3208663.0
1574255315963,3221162.0
1574255316016,3222420.0
1574255316068,3234852.0
1574255316121,3243099.0
1574255316166,3227672.0
1574255316217,3206422.0
1574255316266,3217017.0
1574255316316,3238938.0
1574255316363,3242152.0
1574255316415,3240750.0
1574255316460,3242731.0
1574255316513,3228519.0
1574255316557,3285950.0
1574255316611,3320917.0
1574255316660,3357653.0
1574255316709,3428618.0
1574255316761,3499296.0
1574255316807,3598782.0
1574255316857,3603220.0
1574255316906,3586492.0
1574255316956,3580956.0
1574255317000,3636307.0
1574255317054,3723999.0
1574255317099,3805651.0
1574255317152,3852948.0
1574255317197,3775357.0
1574255317253,3778645.0
1574255317297,3766582.0
1574255317349,3783637.0
1574255317402,3733479.0
1574255317449,3670517.0
1574255317500,3662396.0
1574255317547,3641793.0
1574255317597,3631760.0
1574255317646,3607456.0
1574255317690,3587777.0
1574255317744,3563985.0
1574255317795,3538767.0
1574255317841,3532944.0
1574255317894,3548641.0
1574255317936,3523850.0
1574255317996,3498036.0
1574255318042,3493733.0
1574255318090,3498264.0
1574255318143,3491921.0
1574255318188,3459766.0
1574255318231,3425237.0
1574255318282,3415614.0
1574255318331,3442602.0
1574255318379,3468566.0
1574255318432,3467912.0
1574255318481,3465142.0
1574255318530,3472182.0
1574255318579,3491553.0
1574255318629,3484052.0
1574255318681,3473802.0
1574255318731,3463641.0
1574255318783,3446696.0
1574255318829,3425907.0
1574255318878,3430044.0
1574255318928,3463088.0
1574255318979,3542365.0
1574255319022,3637406.0
1574255319077,3714881.0
1574255319125,3789181.0
1574255319175,3841926.0
1574255319222,3810171.0
1574255319276,3777345.0
1574255319321,3807244.0
1574255319374,3860959.0
1574255319424,3876085.0
1574255319470,3879391.0
1574255319519,3844459.0
1574255319569,3834837.0
1574255319618,3855540.0
1574255319663,3858988.0
1574255319717,3833258.0
1574255319767,3757657.0
1574255319816,3764384.0
1574255319863,3746608.0
1574255319914,3774098.0
1574255319964,3852395.0
1574255320015,3868501.0
1574255320064,3905489.0
1574255320112,3960464.0
1574255320164,3980875.0
1574255320210,3949431.0
1574255320259,3899936.0
1574255320308,3829877.0
1574255320358,3774921.0
1574255320407,3741507.0
1574255320457,3741314.0
1574255320506,3742270.0
1574255320556,3652195.0
1574255320604,3629998.0
1574255320656,3587415.0
1574255320700,3625534.0
1574255320757,3681726.0
1574255320802,3705575.0
1574255320852,3648371.0
1574255320902,3520546.0
1574255320948,3528029.0
1574255321000,3549362.0
1574255321049,3580980.0
1574255321099,3570679.0
1574255321148,3577608.0
1574255321197,3614931.0
1574255321247,3643337.0
1574255321296,3555478.0
1574255321340,3453356.0
1574255321397,3441611.0
1574255321440,3470362.0
1574255321496,3463558.0
1574255321546,3524278.0
1574255321593,3511712.0
1574255321641,3564076.0
1574255321693,3585477.0
1574255321736,3626508.0
1574255321791,3603673.0
1574255321835,3561660.0
1574255321890,3548875.0
1574255321938,3551585.0
1574255321988,3561299.0
1574255322038,3597826.0
1574255322085,3672389.0
1574255322136,3582793.0
1574255322182,3630226.0
1574255322236,3646852.0
1574255322286,3681944.0
1574255322333,3671826.0
1574255322387,3630754.0
1574255322432,3624435.0
1574255322481,3634344.0
1574255322529,3636039.0
1574255322580,3635427.0
1574255322625,3664235.0
1574255322678,3693647.0
1574255322728,3716859.0
1574255322777,3711473.0
1574255322820,3605595.0
1574255322877,3556762.0
1574255322923,3471250.0
1574255322975,3474204.0
1574255323026,3572827.0
1574255323075,3644503.0
1574255323122,3611853.0
1574255323173,3721289.0
1574255323220,3666517.0
1574255323271,3573950.0
1574255323319,3498398.0
1574255323369,3428994.0
1574255323417,3383493.0
1574255323466,3369289.0
1574255323517,3392316.0
1574255323566,3442074.0
1574255323617,3493934.0
1574255323667,3514672.0
1574255323714,3472282.0
1574255323763,3428004.0
1574255323813,3350036.0
1574255323862,3292235.0
1574255323907,3304541.0
1574255323963,3348971.0
1574255324012,3405413.0
1574255324054,3448305.0
1574255324110,3472936.0
1574255324152,3425363.0
1574255324205,3422811.0
1574255324254,3421210.0
1574255324303,3353148.0
1574255324354,3363358.0
1574255324406,3384523.0
1574255324456,3401571.0
1574255324507,3412971.0
1574255324554,3410480.0
1574255324602,3435286.0
1574255324654,3444230.0
1574255324701,3471049.0
1574255324745,3440790.0
1574255324797,3408381.0
1574255324846,3409078.0
1574255324896,3433541.0
1574255324945,3478625.0
1574255324999,3502023.0
1574255325048,3513581.0
1574255325097,3532659.0
1574255325149,3553204.0
1574255325196,3575117.0
1574255325244,3565167.0
1574255325289,3573154.0
1574255325343,3660980.0
1574255325394,3792077.0
1574255325441,3913224.0
1574255325492,4009691.0
1574255325540,4052014.0
1574255325590,4036821.0
1574255325639,3983727.0
1574255325684,3934474.0
1574255325738,3889172.0
1574255325789,3795332.0
1574255325837,3768746.0
1574255325889,3716616.0
1574255325936,3841178.0
1574255325985,3682440.0
1574255326030,3720886.0
1574255326083,3921974.0
1574255326130,4068130.0
1574255326184,4206776.0
1574255326232,4313579.0
1574255326281,4353259.0
1574255326331,4348328.0
1574255326380,4323370.0
1574255326428,4305174.0
1574255326479,4284737.0
1574255326525,4356238.0
1574255326578,4535767.0
1574255326627,4678272.0
1574255326676,4715101.0
1574255326724,4686218.0
1574255326775,4651326.0
1574255326823,4626210.0
1574255326874,4689221.0
1574255326916,4715394.0
1574255326973,4757810.0
1574255327022,4961038.0
1574255327072,4975668.0
1574255327120,4924972.0
1574255327168,4918964.0
1574255327217,4902792.0
1574255327270,4930466.0
1574255327313,5010383.0
1574255327367,5109351.0
1574255327417,5212200.0
1574255327466,5260227.0
1574255327516,5273469.0
1574255327563,5298050.0
1574255327610,5255121.0
1574255327662,5191415.0
1574255327714,5261228.0
1574255327757,5345345.0
1574255327812,5400852.0
1574255327859,5361438.0
1574255327908,5305843.0
1574255327958,5297789.0
1574255328006,5206007.0
1574255328057,5129260.0
1574255328107,5172055.0
1574255328156,5189845.0
1574255328205,5194439.0
1574255328254,5189566.0
1574255328304,5224750.0
1574255328354,5182728.0
1574255328401,5217989.0
1574255328453,5184239.0
1574255328500,5135510.0
1574255328547,5160486.0
1574255328595,5090519.0
1574255328650,5015237.0
1574255328698,4974772.0
1574255328748,4967269.0
1574255328798,4974829.0
1574255328847,4948748.0
1574255328892,4902570.0
1574255328939,4912579.0
1574255328989,4928424.0
1574255329038,4870322.0
1574255329089,4777441.0
1574255329136,4755644.0
1574255329192,4789241.0
1574255329237,4797005.0
1574255329289,4780544.0
1574255329339,4880022.0
1574255329391,4918426.0
1574255329439,4921478.0
1574255329488,4937228.0
1574255329538,4910555.0
1574255329587,4884299.0
1574255329632,4866537.0
1574255329685,4889577.0
1574255329735,4983403.0
1574255329777,5074915.0
1574255329831,5053744.0
1574255329878,5060979.0
1574255329928,5096464.0
1574255329980,5171756.0
1574255330031,5127671.0
1574255330081,5081293.0
1574255330134,5103416.0
1574255330179,5072499.0
1574255330228,5022673.0
1574255330278,4979878.0
1574255330326,4964658.0
1574255330376,4979829.0
1574255330425,4952368.0
1574255330475,4872905.0
1574255330524,4920437.0
1574255330570,4930052.0
1574255330622,4898324.0
1574255330671,4879290.0
1574255330720,4880225.0
1574255330775,4896830.0
1574255330820,4894990.0
1574255330870,4864119.0
1574255330919,4914043.0
1574255330968,4941870.0
1574255331020,4916788.0
1574255331066,4924657.0
1574255331117,4974638.0
1574255331161,5048072.0
1574255331210,5185588.0
1574255331263,5018010.0
1574255331311,4924745.0
1574255331362,4714621.0
1574255331410,4734088.0
1574255331460,4809949.0
1574255331513,4805046.0
1574255331560,4906394.0
1574255331608,5023240.0
1574255331658,4911299.0
1574255331708,4942717.0
1574255331757,4889528.0
1574255331806,5024877.0
1574255331852,5043728.0
1574255331900,5048736.0
1574255331950,5026304.0
1574255331999,5083479.0
1574255332049,5007916.0
1574255332097,5021053.0
1574255332149,5090230.0
1574255332196,5121322.0
1574255332246,5132649.0
1574255332294,5069752.0
1574255332344,5028085.0
1574255332394,5013532.0
1574255332443,4946608.0
1574255332494,4986205.0
1574255332542,5015159.0
1574255332593,5056489.0
1574255332641,5074588.0
1574255332694,5068001.0
1574255332738,5052936.0
1574255332793,5025013.0
1574255332842,5069657.0
1574255332894,5041243.0
1574255332940,5033874.0
1574255332990,4978673.0
1574255333040,4956702.0
1574255333089,4927750.0
1574255333134,4834714.0
1574255333188,4732818.0
1574255333233,4723204.0
1574255333286,4662966.0
1574255333339,4632346.0
1574255333385,4626460.0
1574255333437,4622039.0
1574255333484,4592345.0
1574255333538,4552708.0
1574255333575,4584937.0
1574255333627,4722434.0
1574255333678,4754383.0
1574255333726,4722598.0
1574255333774,4685968.0
1574255333828,4694800.0
1574255333872,4685476.0
1574255333926,4670923.0
1574255333979,4706397.0
1574255334027,4752485.0
1574255334077,4718764.0
1574255334125,4691718.0
1574255334174,4725024.0
1574255334216,4741428.0
1574255334268,4851271.0
1574255334316,4829021.0
1574255334365,4835850.0
1574255334416,4935637.0
1574255334466,5002465.0
1574255334513,4947072.0
1574255334568,4926285.0
1574255334614,5011220.0
1574255334666,5072363.0
1574255334717,5147184.0
1574255334764,5031919.0
1574255334820,5054478.0
1574255334860,5116535.0
1574255334914,5119695.0
1574255334959,5075600.0
1574255335009,5040674.0
1574255335055,4984124.0
1574255335111,4992851.0
1574255335154,4939857.0
1574255335205,4913176.0
1574255335253,4911394.0
1574255335307,4910006.0
1574255335351,4892034.0
1574255335406,4855346.0
1574255335457,4826662.0
1574255335505,4887921.0
1574255335557,4880485.0
1574255335603,4864024.0
1574255335652,4874522.0
1574255335702,4868069.0
1574255335752,4857522.0
1574255335800,4846358.0
1574255335850,4880833.0
1574255335895,4820410.0
1574255335949,4772538.0
1574255335992,4745916.0
1574255336047,4769871.0
1574255336095,4806174.0
1574255336146,4816914.0
1574255336197,4762213.0
1574255336240,4794904.0
1574255336294,4767010.0
1574255336343,4785235.0
1574255336393,4792131.0
1574255336442,4784637.0
1574255336493,4757784.0
1574255336540,4773117.0
1574255336591,4808708.0
1574255336638,4733405.0
1574255336688,4695619.0
1574255336734,4696832.0
1574255336787,4699162.0
1574255336838,4687451.0
1574255336885,4638096.0
1574255336940,4607910.0
1574255336984,4599058.0
1574255337033,4581046.0
1574255337084,4558555.0
1574255337134,4520758.0
1574255337182,4513448.0
1574255337233,4527368.0
1574255337281,4596658.0
1574255337324,4638943.0
1574255337373,4785657.0
1574255337423,4808649.0
1574255337474,4867019.0
1574255337541,4963013.0
1574255337579,5024117.0
1574255337621,5113482.0
1574255337707,5152973.0
1574255337727,5013733.0
1574255337777,5009178.0
1574255337823,5111363.0
1574255337872,5146481.0
1574255337921,5136532.0
1574255337971,5139181.0
1574255338022,5126013.0
1574255338070,5123413.0
1574255338114,5040414.0
1574255338169,5060632.0
1574255338216,5099767.0
1574255338266,5122334.0
1574255338317,5124626.0
1574255338365,5092524.0
1574255338417,5036137.0
1574255338465,4971613.0
1574255338515,5053003.0
1574255338562,5022894.0
1574255338615,4984529.0
1574255338661,4940627.0
1574255338711,4919214.0
1574255338756,4895664.0
1574255338810,4803447.0
1574255338854,4760519.0
1574255338907,4827075.0
1574255338959,4744866.0
1574255339001,4673454.0
1574255339050,4643894.0
1574255339100,4650416.0
1574255339152,4651119.0
1574255339200,4633077.0
1574255339250,4615866.0
1574255339298,4611407.0
1574255339354,4547382.0
1574255339396,4523552.0
1574255339451,4496390.0
1574255339498,4474006.0
1574255339549,4459499.0
1574255339599,4443973.0
1574255339647,4470826.0
1574255339691,4396602.0
1574255339739,4282059.0
1574255339790,4249551.0
1574255339840,4255311.0
1574255339895,4285401.0
1574255339943,4329555.0
1574255339993,4307902.0
1574255340036,4295208.0
1574255340086,4355840.0
1574255340136,4332222.0
1574255340191,4344783.0
1574255340242,4330971.0
1574255340289,4339216.0
1574255340341,4351660.0
1574255340388,4400282.0
1574255340437,4431366.0
1574255340486,4488984.0
1574255340536,4548866.0
1574255340585,4597845.0
1574255340630,4638039.0
1574255340681,4662436.0
1574255340734,4631306.0
1574255340778,4610106.0
1574255340833,4623735.0
1574255340881,4701242.0
1574255340926,4725284.0
1574255340982,4735089.0
1574255341032,4737865.0
1574255341078,4730053.0
1574255341127,4756087.0
1574255341177,4706878.0
1574255341227,4787632.0
1574255341276,4730506.0
1574255341325,4751349.0
1574255341374,4763138.0
1574255341419,4760701.0
1574255341474,4768956.0
1574255341516,4768820.0
1574255341572,4735918.0
1574255341620,4718484.0
1574255341670,4748988.0
1574255341720,4773146.0
1574255341769,4788711.0
1574255341817,4747294.0
1574255341866,4692670.0
1574255341916,4654201.0
1574255341959,4607573.0
1574255342015,4683568.0
1574255342060,4600657.0
1574255342115,4658005.0
1574255342158,4682036.0
1574255342215,4686045.0
1574255342259,4688875.0
1574255342312,4698315.0
1574255342359,4658911.0
1574255342410,4710952.0
1574255342452,4749287.0
1574255342502,4782142.0
1574255342554,4775736.0
1574255342603,4765133.0
1574255342657,4735388.0
1574255342701,4717878.0
1574255342755,4785456.0
1574255342803,4828606.0
1574255342855,4908235.0
1574255342897,4948573.0
1574255342954,4991311.0
1574255343000,5022508.0
1574255343052,5021517.0
1574255343102,5031340.0
1574255343151,4981601.0
1574255343199,5017693.0
1574255343248,5077902.0
1574255343298,5124136.0
1574255343347,5117076.0
1574255343397,5106460.0
1574255343446,5097821.0
1574255343497,5097965.0
1574255343543,5103774.0
1574255343595,5146242.0
1574255343641,5177496.0
1574255343696,5193100.0
1574255343743,5196097.0
1574255343792,5209898.0
1574255343839,5196212.0
1574255343884,5190115.0
1574255343933,5147763.0
1574255343984,5178758.0
1574255344035,5200314.0
1574255344083,5186165.0
1574255344131,5173471.0
1574255344182,5162046.0
1574255344236,5158483.0
1574255344281,5134384.0
1574255344336,5182736.0
1574255344383,5215802.0
1574255344434,5187783.0
1574255344485,5185501.0
1574255344534,5186415.0
1574255344586,5186271.0
1574255344626,5171911.0
1574255344680,5130743.0
1574255344730,5123173.0
1574255344780,5130906.0
1574255344824,5115534.0
1574255344877,5094690.0
1574255344927,5069994.0
1574255344977,5056788.0
1574255345025,5031814.0
1574255345072,4994893.0
1574255345123,5009698.0
1574255345175,4956125.0
1574255345223,4876651.0
1574255345272,4839086.0
1574255345323,4816077.0
1574255345371,4844499.0
1574255345420,4811414.0
1574255345470,4800115.0
1574255345519,4807397.0
1574255345568,4786543.0
1574255345618,4805904.0
1574255345666,4944335.0
1574255345717,5002195.0
1574255345763,4988651.0
1574255345817,4982546.0
1574255345864,4923818.0
1574255345913,4902601.0
1574255345966,4812099.0
1574255346013,4730689.0
1574255346062,4728328.0
1574255346112,4739732.0
1574255346159,4772443.0
1574255346211,4767589.0
1574255346259,4739907.0
1574255346304,4743653.0
1574255346358,4723059.0
1574255346406,4698902.0
1574255346457,4723165.0
1574255346505,4700704.0
1574255346557,4713177.0
1574255346602,4702756.0
1574255346656,4681421.0
1574255346705,4741408.0
1574255346754,4718100.0
1574255346805,4656367.0
1574255346853,4635881.0
1574255346902,4646428.0
1574255346952,4648586.0
1574255347000,4623715.0
1574255347044,4626460.0
1574255347099,4642738.0
1574255347149,4608314.0
1574255347198,4568978.0
1574255347243,4539629.0
1574255347297,4534995.0
1574255347343,4526549.0
1574255347390,4535757.0
1574255347444,4585890.0
1574255347490,4579061.0
1574255347539,4565046.0
1574255347589,4640022.0
1574255347642,4731448.0
1574255347694,4780765.0
1574255347741,4799422.0
1574255347791,4853467.0
1574255347839,4761317.0
1574255347888,4744405.0
1574255347938,4805278.0
1574255347986,4875495.0
1574255348037,4872876.0
1574255348087,4879926.0
1574255348137,4874552.0
1574255348189,4808053.0
1574255348235,4776470.0
1574255348284,4742930.0
1574255348333,4729051.0
1574255348382,4679436.0
1574255348433,4620960.0
1574255348480,4589397.0
1574255348531,4592026.0
1574255348580,4572145.0
1574255348625,4535862.0
1574255348679,4560453.0
1574255348727,4573031.0
1574255348778,4555771.0
1574255348825,4543559.0
1574255348877,4544416.0
1574255348925,4533040.0
1574255348972,4651861.0
1574255349025,4737046.0
1574255349071,4775285.0
1574255349118,4775728.0
1574255349173,4767453.0
1574255349222,4764294.0
1574255349273,4763138.0
1574255349320,4733212.0
1574255349372,4734474.0
1574255349420,4758005.0
1574255349466,4785948.0
1574255349518,4810307.0
1574255349565,4763485.0
1574255349618,4722944.0
1574255349668,4712196.0
1574255349716,4707744.0
1574255349769,4779522.0
1574255349815,4866161.0
1574255349864,4869822.0
1574255349914,4840907.0
1574255349963,4828318.0
1574255350014,4836843.0
1574255350062,4825534.0
1574255350113,4784792.0
1574255350160,4776846.0
1574255350211,4841591.0
1574255350260,4847236.0
1574255350303,4840252.0
1574255350354,4796369.0
1574255350410,4720286.0
1574255350457,4675709.0
1574255350508,4695426.0
1574255350556,4723157.0
1574255350605,4786641.0
1574255350654,4852870.0
1574255350703,4872279.0
1574255350754,4895386.0
1574255350802,4916711.0
1574255350854,4915833.0
1574255350901,4958890.0
1574255350951,4922008.0
1574255351000,4966710.0
1574255351050,5046011.0
1574255351100,5112068.0
1574255351148,5131312.0
1574255351197,5106490.0
1574255351247,5020487.0
1574255351297,4927479.0
1574255351345,4898092.0
1574255351395,4882228.0
1574255351443,4829301.0
1574255351494,4809632.0
1574255351542,4829821.0
1574255351595,4820987.0
1574255351637,4776622.0
1574255351686,4744953.0
1574255351740,4719746.0
1574255351791,4724581.0
1574255351839,4761752.0
1574255351893,4762445.0
1574255351938,4726286.0
1574255351987,4695070.0
1574255352037,4653141.0
1574255352085,4700117.0
1574255352136,4701080.0
1574255352184,4684570.0
1574255352235,4672231.0
1574255352282,4667993.0
1574255352329,4674226.0
1574255352376,4643364.0
1574255352428,4621452.0
1574255352480,4676855.0
1574255352530,4683568.0
1574255352574,4702053.0
1574255352627,4699162.0
1574255352678,4675295.0
1574255352726,4634532.0
1574255352777,4577318.0
1574255352821,4699048.0
1574255352872,4762571.0
1574255352920,4758274.0
1574255352970,4761077.0
1574255353017,4780976.0
1574255353068,4794057.0
1574255353117,4772376.0
1574255353166,4733972.0
1574255353215,4766971.0
1574255353267,4819004.0
1574255353313,4824821.0
1574255353365,4828578.0
1574255353413,4816847.0
1574255353463,4794674.0
1574255353512,4774148.0
1574255353561,4798864.0
1574255353612,4893517.0
1574255353660,4923473.0
1574255353711,4899297.0
1574255353762,4865237.0
1574255353809,4859958.0
1574255353861,4882787.0
1574255353911,4849594.0
1574255353954,4812184.0
1574255354009,4878703.0
1574255354055,4885156.0
1574255354105,4897196.0
1574255354152,4887363.0
1574255354203,4885465.0
1574255354257,4864227.0
1574255354306,4815930.0
1574255354349,4803334.0
1574255354404,4809758.0
1574255354451,4784898.0
1574255354502,4759883.0
1574255354551,4786746.0
1574255354601,4772703.0
1574255354653,4795733.0
1574255354700,4770738.0
1574255354750,4732200.0
1574255354800,4728088.0
1574255354848,4733047.0
1574255354898,4750559.0
1574255354947,4755328.0
1574255354997,4751185.0
1574255355049,4749133.0
1574255355093,4781179.0
1574255355145,4860450.0
1574255355194,4863437.0
1574255355242,4811548.0
1574255355295,4796763.0
1574255355342,4797996.0
1574255355395,4817377.0
1574255355441,4778473.0
1574255355486,4763650.0
1574255355534,4808679.0
1574255355588,4804673.0
1574255355638,4824773.0
1574255355687,4834830.0
1574255355738,4846350.0
1574255355785,4858341.0
1574255355838,4853825.0
1574255355884,4891946.0
1574255355932,4907704.0
1574255355983,4898180.0
1574255356032,4886245.0
1574255356082,4896138.0
1574255356135,4888748.0
1574255356180,4902907.0
1574255356230,4869735.0
1574255356279,4872693.0
1574255356328,4907233.0
1574255356374,4960893.0
1574255356427,5019975.0
1574255356474,5017914.0
1574255356526,5031206.0
1574255356572,5044778.0
1574255356620,5005614.0
1574255356674,5037458.0
1574255356722,5081975.0
1574255356770,5220244.0
1574255356822,5197049.0
1574255356872,5193014.0
1574255356921,5187870.0
1574255356970,5173461.0
1574255357019,5130579.0
1574255357068,5156085.0
1574255357112,5164127.0
1574255357167,5182100.0
1574255357211,5186070.0
1574255357265,5176187.0
1574255357318,5161421.0
1574255357365,5131899.0
1574255357417,5151008.0
1574255357457,5141455.0
1574255357516,5125571.0
1574255357562,5090635.0
1574255357612,5076226.0
1574255357660,5086321.0
1574255357710,5072574.0
1574255357758,5013252.0
1574255357809,5027334.0
1574255357852,5062221.0
1574255357907,5044305.0
1574255357953,5054699.0
1574255358001,5047541.0
1574255358052,5047552.0
1574255358098,5024946.0
1574255358153,5027844.0
1574255358199,5040963.0
1574255358249,4972210.0
1574255358298,4927441.0
1574255358349,4892005.0
1574255358401,4886013.0
1574255358451,4896388.0
1574255358498,4868213.0
1574255358549,4851049.0
1574255358597,4851193.0
1574255358647,4834935.0
1574255358694,4820920.0
1574255358747,4833702.0
1574255358797,4834503.0
1574255358845,4844038.0
1574255358897,4821613.0
1574255358944,4919812.0
1574255358993,4941242.0
1574255359042,4918588.0
1574255359092,4899411.0
1574255359141,4899817.0
1574255359191,4911412.0
1574255359238,4871499.0
1574255359289,4839174.0
1574255359335,4890030.0
1574255359387,4913387.0
1574255359439,4918637.0
1574255359485,4913147.0
1574255359538,4895809.0
1574255359584,4877750.0
1574255359633,4854497.0
1574255359683,4950615.0
1574255359732,5029829.0
1574255359782,5075100.0
1574255359832,5045914.0
1574255359881,5057540.0
1574255359930,5089267.0
1574255359978,5075677.0
1574255360023,5038132.0
1574255360075,5056154.0
1574255360124,5086455.0
1574255360174,5108167.0
1574255360223,5114071.0
1574255360278,5104197.0
1574255360320,5096454.0
1574255360378,5058956.0
1574255360424,5068550.0
1574255360474,5099613.0
1574255360522,5095509.0
1574255360572,5066863.0
1574255360617,5045422.0
1574255360671,5004623.0
1574255360720,5009284.0
1574255360769,4966623.0
1574255360817,4954776.0
1574255360868,4940974.0
1574255360914,4952358.0
1574255360966,4967982.0
1574255361018,4962665.0
1574255361067,4954266.0
1574255361116,4935503.0
1574255361164,4934462.0
1574255361208,4990569.0
1574255361256,4998101.0
1574255361306,4972344.0
1574255361355,4968183.0
1574255361412,4955971.0
1574255361461,4968657.0
1574255361511,4940367.0
1574255361554,4885272.0
1574255361608,4914206.0
1574255361657,4918985.0
1574255361707,4942659.0
1574255361759,4926671.0
1574255361806,4898555.0
1574255361856,4882123.0
1574255361900,4841090.0
1574255361954,4894634.0
1574255362003,4915200.0
1574255362056,4900721.0
1574255362097,4889654.0
1574255362152,4874426.0
1574255362194,4870775.0
1574255362251,4854826.0
1574255362299,4805597.0
1574255362348,4817300.0
1574255362400,4825738.0
1574255362446,4836668.0
1574255362500,4852156.0
1574255362545,4841398.0
1574255362596,4819254.0
1574255362644,4769477.0
1574255362693,4853709.0
1574255362744,4882728.0
1574255362792,4841697.0
1574255362837,4839336.0
1574255362892,4858581.0
1574255362936,4870083.0
1574255362991,4842073.0
1574255363040,4810278.0
1574255363083,4776661.0
1574255363135,4799876.0
1574255363182,4833028.0
1574255363234,4867423.0
1574255363282,4834637.0
1574255363330,4804951.0
1574255363384,4737383.0
1574255363435,4742093.0
1574255363484,4759777.0
1574255363533,4696263.0
1574255363577,4699867.0
1574255363628,4662176.0
1574255363676,4678261.0
1574255363731,4673995.0
1574255363781,4650589.0
1574255363828,4617898.0
1574255363882,4677298.0
1574255363927,4668976.0
1574255363977,4691563.0
1574255364021,4692738.0
1574255364076,4686035.0
1574255364119,4670526.0
1574255364175,4604568.0
1574255364224,4533849.0
1574255364274,4464577.0
1574255364316,4411946.0
1574255364373,4404626.0
1574255364418,4411938.0
1574255364467,4415183.0
1574255364520,4423111.0
1574255364569,4407669.0
1574255364618,4335410.0
1574255364667,4327822.0
1574255364717,4361417.0
1574255364765,4395948.0
1574255364817,4417158.0
1574255364865,4477742.0
1574255364914,4485688.0
1574255364956,4488464.0
1574255365012,4529785.0
1574255365058,4480363.0
1574255365106,4429698.0
1574255365156,4413980.0
1574255365207,4470452.0
1574255365261,4497865.0
1574255365309,4530690.0
1574255365358,4476694.0
1574255365408,4521415.0
1574255365456,4742631.0
1574255365507,4910421.0
1574255365556,5031302.0
1574255365605,5138517.0
1574255365655,5177573.0
1574255365697,5046944.0
1574255365753,5078471.0
1574255365799,5131349.0
1574255365855,5166910.0
1574255365903,5145258.0
1574255365951,5143572.0
1574255366003,5100990.0
1574255366048,5045674.0
1574255366099,5058196.0
1574255366147,5083788.0
1574255366196,5072690.0
1574255366246,5089999.0
1574255366295,5051558.0
1574255366345,5001356.0
1574255366395,4991455.0
1574255366440,4986658.0
1574255366493,5021285.0
1574255366541,5031312.0
1574255366594,5064031.0
1574255366643,5117413.0
1574255366690,5242666.0
1574255366739,5314320.0
1574255366789,5339430.0
1574255366837,5310504.0
1574255366887,5235106.0
1574255366937,5287580.0
1574255366986,5257567.0
1574255367037,5241067.0
1574255367079,5269221.0
1574255367135,5253012.0
1574255367180,5227237.0
1574255367233,5227467.0
1574255367285,5227062.0
1574255367329,5289016.0
1574255367384,5220427.0
1574255367430,5176880.0
1574255367480,5147599.0
1574255367528,5134606.0
1574255367577,5126523.0
1574255367623,5103002.0
1574255367676,5055238.0
1574255367726,5112866.0
1574255367776,5118742.0
1574255367820,5129116.0
1574255367875,5128894.0
1574255367922,5107088.0
1574255367974,5078499.0
1574255368022,5067509.0
1574255368074,5075340.0
1574255368115,5167286.0
1574255368170,5208848.0
1574255368219,5203157.0
1574255368270,5181358.0
1574255368318,5171929.0
1574255368367,5176600.0
1574255368416,5159291.0
1574255368465,5150220.0
1574255368517,5117230.0
1574255368559,5144565.0
1574255368616,5140626.0
1574255368662,5144864.0
1574255368713,5133094.0
1574255368764,5117181.0
1574255368812,5108252.0
1574255368860,5146934.0
1574255368911,5217190.0
1574255368960,5257183.0
1574255369005,5251171.0
1574255369052,5241309.0
1574255369104,5286599.0
1574255369153,5307066.0
1574255369203,5285000.0
1574255369253,5267555.0
1574255369301,5276080.0
1574255369356,5272218.0
1574255369406,5290114.0
1574255369454,5305784.0
1574255369506,5298860.0
1574255369551,5291365.0
1574255369601,5265668.0
1574255369651,5301845.0
1574255369700,5334718.0
1574255369751,5374567.0
1574255369798,5397203.0
1574255369848,5408337.0
1574255369898,5434217.0
1574255369945,5420212.0
1574255369997,5401161.0
1574255370045,5360534.0
1574255370097,5394515.0
1574255370141,5419828.0
1574255370191,5455244.0
1574255370241,5434642.0
1574255370289,5439439.0
1574255370342,5424999.0
1574255370391,5408664.0
1574255370440,5459974.0
1574255370490,5460321.0
1574255370538,5467266.0
1574255370589,5488042.0
1574255370638,5488243.0
1574255370687,5481193.0
1574255370737,5470973.0
1574255370786,5401835.0
1574255370832,5428228.0
1574255370888,5463228.0
1574255370934,5465569.0
1574255370982,5478794.0
1574255371032,5461148.0
1574255371082,5459155.0
1574255371133,5376329.0
1574255371181,5345093.0
1574255371231,5230878.0
1574255371279,5153590.0
1574255371325,5104747.0
1574255371378,5102039.0
1574255371424,5111007.0
1574255371477,5093197.0
1574255371526,5040512.0
1574255371577,5041444.0
1574255371628,5033382.0
1574255371675,4996098.0
1574255371724,5007888.0
1574255371773,4997571.0
1574255371822,5002272.0
1574255371872,4965333.0
1574255371921,4987034.0
1574255371971,4997532.0
1574255372020,4945511.0
1574255372066,4906731.0
1574255372115,4869745.0
1574255372167,4872596.0
1574255372218,4877220.0
1574255372264,4847620.0
1574255372317,4815536.0
1574255372366,4837652.0
1574255372416,4832873.0
1574255372464,4825390.0
1574255372514,4849865.0
1574255372562,4860854.0
1574255372614,4874292.0
1574255372661,4849517.0
1574255372706,4885022.0
1574255372760,4891841.0
1574255372811,4864881.0
1574255372859,4804585.0
1574255372905,4788809.0
1574255372958,4801233.0
1574255373007,4804709.0
1574255373057,4742170.0
1574255373110,4748932.0
1574255373149,4788567.0
1574255373200,4761463.0
1574255373251,4719756.0
1574255373299,4729744.0
1574255373350,4731891.0
1574255373398,4683520.0
1574255373445,4733964.0
1574255373499,4695493.0
1574255373551,4672772.0
1574255373599,4675911.0
1574255373645,4647440.0
1574255373698,4671008.0
1574255373745,4685226.0
1574255373793,4649423.0
1574255373846,4625893.0
1574255373892,4621663.0
1574255373941,4616068.0
1574255373991,4604674.0
1574255374039,4618764.0
1574255374090,4630708.0
1574255374138,4653025.0
1574255374189,4660577.0
1574255374236,4679446.0
1574255374287,4734358.0
1574255374335,4741178.0
1574255374388,4755250.0
1574255374435,4734569.0
1574255374486,4731402.0
1574255374533,4736737.0
1574255374587,4715875.0
1574255374632,4725477.0
1574255374682,4694337.0
1574255374736,4682739.0
1574255374784,4760519.0
1574255374834,4800761.0
1574255374882,4779310.0
1574255374933,4734744.0
1574255374981,4707986.0
1574255375030,4672733.0
1574255375081,4605907.0
1574255375127,4589647.0
1574255375175,4573244.0
1574255375227,4582519.0
1574255375274,4596437.0
1574255375323,4601620.0
1574255375377,4563063.0
1574255375427,4546679.0
1574255375476,4565250.0
1574255375525,4577704.0
1574255375575,4630698.0
1574255375623,4679629.0
1574255375673,4701379.0
1574255375722,4669785.0
1574255375774,4680659.0
1574255375821,4672434.0
1574255375867,4646737.0
1574255375920,4622242.0
1574255375967,4622242.0
1574255376013,4632317.0
1574255376071,4646158.0
1574255376118,4601409.0
1574255376166,4600242.0
1574255376216,4625824.0
1574255376265,4655299.0
1574255376315,4668456.0
1574255376363,4668312.0
1574255376409,4685234.0
1574255376461,4677983.0
1574255376510,4737247.0
1574255376561,4837768.0
1574255376612,4814766.0
1574255376660,4889394.0
1574255376712,4935001.0
1574255376759,4973943.0
1574255376808,4978769.0
1574255376857,4971276.0
1574255376905,4966605.0
1574255376957,4888740.0
1574255377005,4933365.0
1574255377055,4987832.0
1574255377104,5006886.0
1574255377153,5021651.0
1574255377203,5016104.0
1574255377248,4988363.0
1574255377301,5035782.0
1574255377352,4970949.0
1574255377400,4949036.0
1574255377451,4946464.0
1574255377499,4964120.0
1574255377548,4964908.0
1574255377598,4948573.0
1574255377646,4917607.0
1574255377695,4944865.0
1574255377745,4962492.0
1574255377794,4963204.0
1574255377844,4982739.0
1574255377893,4972470.0
1574255377942,4971767.0
1574255377992,4971160.0
1574255378041,5017683.0
1574255378093,5125658.0
1574255378168,5116353.0
1574255378189,5191617.0
1574255378233,5180714.0
1574255378284,5221717.0
1574255378334,5228720.0
1574255378384,5237398.0
1574255378433,5217430.0
1574255378486,5275820.0
1574255378533,5290124.0
1574255378579,5364260.0
1574255378633,5374971.0
1574255378679,5343571.0
1574255378731,5388379.0
1574255378775,5369337.0
1574255378830,5344304.0
1574255378877,5391587.0
1574255378927,5464510.0
1574255378975,5465541.0
1574255379026,5462497.0
1574255379080,5473227.0
1574255379127,5456536.0
1574255379176,5409820.0
1574255379225,5369654.0
1574255379276,5388515.0
1574255379324,5398089.0
1574255379374,5379884.0
1574255379423,5384643.0
1574255379475,5373633.0
1574255379522,5335499.0
1574255379575,5304206.0
1574255379621,5342878.0
1574255379670,5306160.0
1574255379719,5313962.0
1574255379768,5293167.0
1574255379814,5274038.0
1574255379868,5273325.0
1574255379917,5250911.0
1574255379959,5259205.0
1574255380012,5241492.0
1574255380058,5251346.0
1574255380111,5284037.0
1574255380156,5282870.0
1574255380218,5272949.0
1574255380262,5246596.0
1574255380314,5198803.0
1574255380360,5195180.0
1574255380411,5180204.0
1574255380458,5188892.0
1574255380508,5181494.0
1574255380556,5184355.0
1574255380607,5192909.0
1574255380651,5157154.0
1574255380706,5139730.0
1574255380756,5173518.0
1574255380804,5199362.0
1574255380857,5238891.0
1574255380903,5257750.0
1574255380957,5245702.0
1574255381002,5251490.0
1574255381053,5210987.0
1574255381096,5243351.0
1574255381150,5246665.0
1574255381198,5216747.0
1574255381248,5218423.0
1574255381294,5201056.0
1574255381342,5199351.0
1574255381391,5205024.0
1574255381445,5151693.0
1574255381497,5094979.0
1574255381545,5097146.0
1574255381597,5127921.0
1574255381642,5145673.0
1574255381693,5160072.0
1574255381741,5152743.0
1574255381792,5160033.0
1574255381840,5088719.0
1574255381890,5112374.0
1574255381937,5064013.0
1574255381988,5059649.0
1574255382032,5025330.0
1574255382089,5023886.0
1574255382134,5031765.0
1574255382186,5022047.0
1574255382238,4984655.0
1574255382285,4929318.0
1574255382337,4937295.0
1574255382378,4972162.0
1574255382433,4990299.0
1574255382481,4990077.0
1574255382532,4990405.0
1574255382575,4936736.0
1574255382630,4954804.0
1574255382674,4954814.0
1574255382728,4945895.0
1574255382774,4934944.0
1574255382826,4951915.0
1574255382878,4968945.0
1574255382925,4962299.0
1574255382978,4990502.0
1574255383023,4952242.0
1574255383076,4967954.0
1574255383122,5037978.0
1574255383173,5127893.0
1574255383221,5203734.0
1574255383271,5261025.0
1574255383319,5269877.0
1574255383369,5121497.0
1574255383416,5089239.0
1574255383467,5114388.0
1574255383514,5260188.0
1574255383565,5360611.0
1574255383618,5422592.0
1574255383660,5444158.0
1574255383718,5508711.0
1574255383764,5458557.0
1574255383813,5347260.0
1574255383862,5432927.0
1574255383912,5584438.0
1574255383961,5569519.0
1574255384013,5634862.0
1574255384061,5661051.0
1574255384112,5470116.0
1574255384159,5455014.0
1574255384208,5502451.0
1574255384255,5555842.0
1574255384307,5490161.0
1574255384357,5435587.0
1574255384405,5410291.0
1574255384457,5356334.0
1574255384505,5271747.0
1574255384555,5185529.0
1574255384602,5157692.0
1574255384652,5171063.0
1574255384702,5156075.0
1574255384751,5144651.0
1574255384798,5105430.0
1574255384851,5050595.0
1574255384894,5043594.0
1574255384944,4967308.0
1574255384993,4964601.0
1574255385041,4934972.0
1574255385095,4931996.0
1574255385141,4944971.0
1574255385192,4894317.0
1574255385238,4877230.0
1574255385291,4793758.0
1574255385338,4781236.0
1574255385389,4791409.0
1574255385437,4787228.0
1574255385492,4781612.0
1574255385538,4776045.0
1574255385590,4767569.0
1574255385640,4786283.0
1574255385688,4723080.0
1574255385740,4709546.0
1574255385786,4682778.0
1574255385837,4675844.0
1574255385886,4684889.0
1574255385935,4667859.0
1574255385984,4590785.0
1574255386034,4516888.0
1574255386081,4490977.0
1574255386132,4496178.0
1574255386180,4540157.0
1574255386228,4551793.0
1574255386277,4559095.0
1574255386330,4495437.0
1574255386381,4461832.0
1574255386428,4438174.0
1574255386480,4413728.0
1574255386526,4390651.0
1574255386576,4412533.0
1574255386620,4434322.0
1574255386675,4444001.0
1574255386724,4376925.0
1574255386773,4350638.0
1574255386820,4362930.0
1574255386871,4389052.0
1574255386915,4415309.0
1574255386972,4435449.0
1574255387020,4472368.0
1574255387070,4491960.0
1574255387120,4523966.0
1574255387167,4632019.0
1574255387217,4694347.0
1574255387266,4719573.0
1574255387315,4738202.0
1574255387364,4769495.0
1574255387415,4805780.0
1574255387464,4778231.0
1574255387511,4829927.0
1574255387555,4854180.0
1574255387613,4877681.0
1574255387658,4922538.0
1574255387711,4940820.0
1574255387760,4946492.0
1574255387809,4945944.0
1574255387859,4921392.0
1574255387905,4969774.0
1574255387956,5021882.0
1574255388006,5056154.0
1574255388056,5081746.0
1574255388105,5058464.0
1574255388150,5085984.0
1574255388203,5067962.0
1574255388253,5046146.0
1574255388300,5044075.0
1574255388349,5081341.0
1574255388399,5101068.0
1574255388450,5145799.0
1574255388500,5131639.0
1574255388548,5118636.0
1574255388591,5077950.0
1574255388647,5149381.0
1574255388692,5180800.0
1574255388746,5178605.0
1574255388790,5152944.0
1574255388839,5135010.0
1574255388888,5161845.0
1574255388936,5180318.0
1574255388987,5160005.0
1574255389036,5079125.0
1574255389086,5095009.0
1574255389137,5101779.0
1574255389185,5160805.0
1574255389235,5149978.0
1574255389284,5108185.0
1574255389337,5024761.0
1574255389387,5080155.0
1574255389436,5076120.0
1574255389485,5093410.0
1574255389536,5137428.0
1574255389584,5138149.0
1574255389629,5135067.0
1574255389677,5116478.0
1574255389732,5037381.0
1574255389781,5023154.0
1574255389832,5074840.0
1574255389882,5095740.0
1574255389931,5133383.0
1574255389983,5125378.0
1574255390030,5147676.0
1574255390081,5114697.0
1574255390128,5129510.0
1574255390178,5158454.0
1574255390227,5183034.0
1574255390275,5176427.0
1574255390323,5197791.0
1574255390376,5190846.0
1574255390424,5160486.0
1574255390474,5159495.0
1574255390523,5122643.0
1574255390575,5166457.0
1574255390624,5196308.0
1574255390671,5241636.0
1574255390719,5248879.0
1574255390769,5230752.0
1574255390819,5211314.0
1574255390868,5146221.0
1574255390918,5214147.0
1574255390966,5257335.0
1574255391016,5256393.0
1574255391063,5225608.0
1574255391116,5193679.0
1574255391160,5220926.0
1574255391214,5173999.0
1574255391262,5095673.0
1574255391311,5087120.0
1574255391363,5139518.0
1574255391410,5144257.0
1574255391459,5177526.0
1574255391509,5185251.0
1574255391558,5160179.0
1574255391608,5159773.0
1574255391657,5125926.0
1574255391706,5170224.0
1574255391756,5182342.0
1574255391800,5171352.0
1574255391855,5184461.0
1574255391901,5188786.0
1574255391953,5199264.0
1574255392004,5152627.0
1574255392055,5111035.0
1574255392102,5130540.0
1574255392151,5158521.0
1574255392199,5195721.0
1574255392249,5209195.0
1574255392298,5155882.0
1574255392343,5109707.0
1574255392396,5088121.0
1574255392444,5081157.0
1574255392496,5134240.0
1574255392539,5148418.0
1574255392589,5148706.0
1574255392643,5143948.0
1574255392689,5143824.0
1574255392743,5123317.0
1574255392793,5062838.0
1574255392841,5065524.0
1574255392891,5131485.0
1574255392939,5177449.0
1574255392989,5215437.0
1574255393038,5195836.0
1574255393088,5180416.0
1574255393137,5178979.0
1574255393180,5158493.0
1574255393236,5236492.0
1574255393285,5254245.0
1574255393335,5265639.0
1574255393387,5264975.0
1574255393433,5265716.0
1574255393482,5301201.0
1574255393532,5264318.0
1574255393580,5233922.0
1574255393627,5235837.0
1574255393680,5293754.0
1574255393730,5332417.0
1574255393779,5330828.0
1574255393829,5328979.0
1574255393871,5309186.0
1574255393924,5286251.0
1574255393974,5242205.0
1574255394023,5330568.0
1574255394072,5326620.0
1574255394124,5287860.0
1574255394174,5296193.0
1574255394223,5270300.0
1574255394272,5278305.0
1574255394321,5246405.0
1574255394373,5205825.0
1574255394420,5190952.0
1574255394469,5223161.0
1574255394518,5231156.0
1574255394564,5232987.0
1574255394614,5207424.0
1574255394664,5207702.0
1574255394713,5205863.0
1574255394763,5221766.0
1574255394815,5260726.0
1574255394867,5293255.0
1574255394909,5300689.0
1574255394962,5300161.0
1574255395013,5307432.0
1574255395061,5326551.0
1574255395112,5299090.0
1574255395156,5273075.0
1574255395204,5299293.0
1574255395258,5322882.0
1574255395309,5340229.0
1574255395353,5372466.0
1574255395404,5354581.0
1574255395457,5345826.0
1574255395509,5304899.0
1574255395555,5364443.0
1574255395604,5385325.0
1574255395654,5385750.0
1574255395702,5368730.0
1574255395752,5371938.0
1574255395801,5391943.0
1574255395853,5388832.0
1574255395899,5329046.0
1574255395944,5320474.0
1574255395999,5373035.0
1574255396047,5381560.0
1574255396099,5408741.0
1574255396145,5399629.0
1574255396198,5384208.0
1574255396248,5361314.0
1574255396295,5302741.0
1574255396345,5354233.0
1574255396394,5364144.0
1574255396439,5384450.0
1574255396489,5392522.0
1574255396541,5391000.0
1574255396593,5413778.0
1574255396640,5404397.0
1574255396691,5321553.0
1574255396739,5324153.0
1574255396784,5358992.0
1574255396838,5352328.0
1574255396889,5362324.0
1574255396938,5352578.0
1574255396990,5333130.0
1574255397036,5282224.0
1574255397088,5288697.0
1574255397134,5310620.0
1574255397182,5284276.0
1574255397233,5268933.0
1574255397281,5239988.0
1574255397328,5251866.0
1574255397380,5247069.0
1574255397427,5149882.0
1574255397478,5132149.0
1574255397528,5170031.0
1574255397578,5167721.0
1574255397626,5180300.0
1574255397677,5190365.0
1574255397720,5137340.0
1574255397775,5107714.0
1574255397824,5054756.0
1574255397873,5103561.0
1574255397922,5142436.0
1574255397974,5152684.0
1574255398021,5164011.0
1574255398073,5163347.0
1574255398121,5177053.0
1574255398167,5154765.0
1574255398218,5048573.0
1574255398266,5048929.0
1574255398313,5077160.0
1574255398368,5087380.0
1574255398417,5118057.0
1574255398466,5114735.0
1574255398515,5107039.0
1574255398565,5090037.0
1574255398611,5089133.0
1574255398663,5152030.0
1574255398713,5148485.0
1574255398761,5140307.0
1574255398813,5141926.0
1574255398860,5145047.0
1574255398910,5156557.0
1574255398959,5112019.0
1574255399005,5088304.0
1574255399053,5119733.0
1574255399109,5127381.0
1574255399151,5137850.0
1574255399200,5128480.0
1574255399253,5102098.0
1574255399302,5105950.0
1574255399352,5065553.0
1574255399400,5121093.0
1574255399454,5152463.0
1574255399502,5125581.0
1574255399554,5096876.0
1574255399601,5055420.0
1574255399651,5047541.0
1574255399695,5041070.0
1574255399746,4974252.0
1574255399795,4989027.0
1574255399850,5023337.0
1574255399898,5020881.0
1574255399948,5016326.0
1574255399992,5000413.0
1574255400039,5005027.0
1574255400091,4996435.0
1574255400140,5006124.0
1574255400193,5063320.0
1574255400243,5086648.0
1574255400288,5080252.0
1574255400341,5066036.0
1574255400389,5054594.0
1574255400440,5043622.0
1574255400488,5018741.0
1574255400540,4983970.0
1574255400582,5018445.0
1574255400631,5039518.0
1574255400680,5051558.0
1574255400735,5036407.0
1574255400785,5017809.0
1574255400834,5002772.0
1574255400884,4985878.0
1574255400930,5025302.0
1574255400983,5071256.0
1574255401033,5055642.0
1574255401081,5034626.0
1574255401134,5002272.0
1574255401180,5021679.0
1574255401234,5014899.0
1574255401279,4956954.0
1574255401329,4926815.0
1574255401378,4930793.0
1574255401428,4950942.0
1574255401478,5010429.0
1574255401526,5017201.0
1574255401572,5038238.0
1574255401625,5053389.0
1574255401675,5026775.0
1574255401723,5109611.0
1574255401771,5105922.0
1574255401822,5113963.0
1574255401871,5134220.0
1574255401921,5109264.0
1574255401974,5125339.0
1574255402019,5091559.0
1574255402069,5041781.0
1574255402113,5025629.0
1574255402168,5052704.0
1574255402218,5076467.0
1574255402267,5134394.0
1574255402317,5130800.0
1574255402361,5115495.0
1574255402414,5059216.0
1574255402465,5086340.0
1574255402510,5154052.0
1574255402564,5111584.0
1574255402613,5115938.0
1574255402663,5065486.0
1574255402710,5011933.0
1574255402761,5017451.0
1574255402810,4926661.0
1574255402856,4896156.0
1574255402911,4931265.0
1574255402959,4945367.0
1574255403010,4978972.0
1574255403058,4985281.0
1574255403110,4945617.0
1574255403158,4935407.0
1574255403207,4891264.0
1574255403251,4999257.0
1574255403305,5039693.0
1574255403352,4985484.0
1574255403405,5001963.0
1574255403457,4999710.0
1574255403503,4960160.0
1574255403557,4937169.0
1574255403602,4882383.0
1574255403658,4864014.0
1574255403700,4841851.0
1574255403751,4841148.0
1574255403800,4837487.0
1574255403849,4809805.0
1574255403896,4794530.0
1574255403941,4789530.0
1574255403992,4818541.0
1574255404039,4917087.0
1574255404091,4969553.0
1574255404140,4962184.0
1574255404193,4940722.0
1574255404240,4955162.0
1574255404293,4977777.0
1574255404342,4941976.0
1574255404396,4904478.0
1574255404442,4939308.0
1574255404491,4953669.0
1574255404540,4971314.0
1574255404589,4989722.0
1574255404637,4983931.0
1574255404688,4982150.0
1574255404732,4947332.0
1574255404786,4977152.0
1574255404837,5016112.0
1574255404886,5005787.0
1574255404937,4991599.0
1574255404984,4965776.0
1574255405032,4964996.0
1574255405077,4944759.0
1574255405132,4949392.0
1574255405176,4884847.0
1574255405232,4901463.0
1574255405280,4899856.0
1574255405330,4937207.0
1574255405379,4953650.0
1574255405425,4959485.0
1574255405472,4946742.0
1574255405527,4911693.0
1574255405572,4929338.0
1574255405625,4903564.0
1574255405677,4868079.0
1574255405722,4868445.0
1574255405778,4864562.0
1574255405822,4862492.0
1574255405873,4814717.0
1574255405922,4780090.0
1574255405972,4755866.0
1574255406020,4765277.0
1574255406070,4789136.0
1574255406115,4806627.0
1574255406168,4825843.0
1574255406212,4814208.0
1574255406267,4813427.0
1574255406313,4825081.0
1574255406361,4775409.0
1574255406415,4759411.0
1574255406464,4759430.0
1574255406516,4763485.0
1574255406563,4769726.0
1574255406614,4690639.0
1574255406660,4668206.0
1574255406712,4674553.0
1574255406761,4695946.0
1574255406811,4708102.0
1574255406860,4689753.0
1574255406910,4713148.0
1574255406956,4655973.0
1574255407008,4600263.0
1574255407053,4570170.0
1574255407108,4517264.0
1574255407157,4508478.0
1574255407205,4513574.0
1574255407257,4528349.0
1574255407304,4514816.0
1574255407353,4441228.0
1574255407397,4406101.0
1574255407452,4369952.0
1574255407501,4396401.0
1574255407553,4388378.0
1574255407600,4426847.0
1574255407645,4444446.0
1574255407697,4423052.0
1574255407749,4396546.0
1574255407795,4366965.0
1574255407847,4327812.0
1574255407897,4325432.0
1574255407946,4353017.0
1574255407998,4331962.0
1574255408044,4279430.0
1574255408097,4237559.0
1574255408143,4217602.0
1574255408191,4171042.0
1574255408242,4158472.0
1574255408292,4185740.0
1574255408341,4199629.0
1574255408391,4229806.0
1574255408434,4206594.0
1574255408490,4194304.0
1574255408538,4227311.0
1574255408581,4189362.0
1574255408634,4190333.0
1574255408679,4182714.0
1574255408740,4183976.0
1574255408784,4149225.0
1574255408835,4116246.0
1574255408883,4122678.0
1574255408934,4100266.0
1574255408982,4139207.0
1574255409032,4182050.0
1574255409079,4216456.0
1574255409131,4220472.0
1574255409175,4178486.0
1574255409228,4237021.0
1574255409276,4337578.0
1574255409328,4349541.0
1574255409379,4348828.0
1574255409426,4322572.0
1574255409479,4342115.0
1574255409525,4336702.0
1574255409576,4315723.0
1574255409624,4303492.0
1574255409674,4290064.0
1574255409717,4301700.0
1574255409766,4306757.0
1574255409817,4340794.0
1574255409868,4319961.0
1574255409917,4318882.0
1574255409967,4318362.0
1574255410016,4350476.0
1574255410068,4431258.0
1574255410122,4412245.0
1574255410167,4396921.0
1574255410220,4374141.0
1574255410265,4371425.0
1574255410316,4359308.0
1574255410360,4344196.0
1574255410415,4383437.0
1574255410457,4385036.0
1574255410509,4411341.0
1574255410561,4432329.0
1574255410613,4454414.0
1574255410655,4455850.0
1574255410712,4471887.0
1574255410758,4479274.0
1574255410811,4584955.0
1574255410859,4649384.0
1574255410908,4615856.0
1574255410957,4659228.0
1574255411006,4748074.0
1574255411056,4804884.0
1574255411107,4827422.0
1574255411156,4848314.0
1574255411204,4905268.0
1574255411255,4739935.0
1574255411303,4775062.0
1574255411353,4846244.0
1574255411400,4833452.0
1574255411451,4857358.0
1574255411499,4862260.0
1574255411552,4772693.0
1574255411599,4797929.0
1574255411649,4747544.0
1574255411699,4749423.0
1574255411747,4717098.0
1574255411793,4705944.0
1574255411845,4693556.0
1574255411896,4691208.0
1574255411945,4647352.0
1574255411995,4639744.0
1574255412044,4642334.0
1574255412094,4672751.0
1574255412142,4724321.0
1574255412188,4763696.0
1574255412236,4775862.0
1574255412295,4714207.0
1574255412342,4767473.0
1574255412391,4757638.0
1574255412442,4746552.0
1574255412488,4738586.0
1574255412537,4719622.0
1574255412587,4725487.0
1574255412632,4705529.0
1574255412685,4660914.0
1574255412736,4647208.0
1574255412785,4668407.0
1574255412835,4710914.0
1574255412883,4731160.0
1574255412934,4730063.0
1574255412980,4732749.0
1574255413033,4702429.0
1574255413078,4663649.0
1574255413130,4635650.0
1574255413182,4605521.0
1574255413229,4615383.0
1574255413277,4596794.0
1574255413327,4604125.0
1574255413371,4609836.0
1574255413427,4524554.0
1574255413476,4501331.0
1574255413525,4485111.0
1574255413569,4490784.0
1574255413618,4514450.0
1574255413673,4541661.0
1574255413720,4576451.0
1574255413774,4543943.0
1574255413822,4516762.0
1574255413871,4517841.0
1574255413924,4443916.0
1574255413969,4437164.0
1574255414018,4469556.0
1574255414068,4502265.0
1574255414120,4513391.0
1574255414161,4465308.0
1574255414210,4423273.0
1574255414262,4419779.0
1574255414312,4450773.0
1574255414360,4488955.0
1574255414411,4509385.0
1574255414459,4533040.0
1574255414513,4476086.0
1574255414563,4499646.0
1574255414612,4563815.0
1574255414660,4529525.0
1574255414710,4506823.0
1574255414759,4484620.0
1574255414809,4485757.0
1574255414855,4477405.0
1574255414904,4415250.0
1574255414953,4404579.0
1574255415002,4406081.0
1574255415056,4427550.0
1574255415105,4452719.0
1574255415155,4467407.0
1574255415203,4482722.0
1574255415254,4472147.0
1574255415304,4499569.0
1574255415352,4598566.0
1574255415404,4597237.0
1574255415451,4583021.0
1574255415499,4546515.0
1574255415550,4535381.0
1574255415598,4492365.0
1574255415644,4482974.0
1574255415697,4470365.0
1574255415747,4485843.0
1574255415797,4466194.0
1574255415844,4464577.0
1574255415896,4507747.0
1574255415940,4487298.0
1574255415994,4469420.0
1574255416041,4429929.0
1574255416091,4484764.0
1574255416145,4528707.0
1574255416192,4489417.0
1574255416239,4470239.0
1574255416290,4452989.0
1574255416338,4457612.0
1574255416389,4437692.0
1574255416438,4384776.0
1574255416488,4371781.0
1574255416537,4334264.0
1574255416583,4315897.0
1574255416630,4351766.0
1574255416684,4339976.0
1574255416735,4346498.0
1574255416786,4352497.0
1574255416833,4374757.0
1574255416886,4469912.0
1574255416928,4474294.0
1574255416976,4491219.0
1574255417032,4488521.0
1574255417080,4487789.0
1574255417131,4466753.0
1574255417179,4450986.0
1574255417230,4472667.0
1574255417278,4450909.0
1574255417329,4467370.0
1574255417373,4481818.0
1574255417426,4501650.0
1574255417474,4490130.0
1574255417526,4514316.0
1574255417575,4492432.0
1574255417622,4500715.0
1574255417674,4521530.0
1574255417726,4516744.0
1574255417773,4520037.0
1574255417821,4498807.0
1574255417872,4466773.0
1574255417920,4459365.0
1574255417970,4453788.0
1574255418019,4399030.0
1574255418069,4422753.0
1574255418120,4449416.0
1574255418166,4479341.0
1574255418213,4481076.0
1574255418261,4480670.0
1574255418315,4471078.0
1574255418365,4580689.0
1574255418415,4630160.0
1574255418465,4597382.0
1574255418514,4581075.0
1574255418563,4560924.0
1574255418610,4548219.0
1574255418661,4514885.0
1574255418712,4490861.0
1574255418760,4483561.0
1574255418810,4507024.0
1574255418858,4506272.0
1574255418908,4488531.0
1574255418959,4481414.0
1574255419001,4496487.0
1574255419058,4553701.0
1574255419111,4563439.0
1574255419151,4535988.0
1574255419205,4487442.0
1574255419256,4533107.0
1574255419302,4522195.0
1574255419353,4470316.0
1574255419401,4532857.0
1574255419452,4521415.0
1574255419496,4573561.0
1574255419551,4594117.0
1574255419598,4569805.0
1574255419650,4580323.0
1574255419699,4621722.0
1574255419743,4700310.0
1574255419797,4698613.0
1574255419849,4672617.0
1574255419896,4656272.0
1574255419949,4670372.0
1574255419995,4640629.0
1574255420043,4538993.0
1574255420093,4538337.0
1574255420142,4560463.0
1574255420186,4566058.0
1574255420240,4597150.0
1574255420288,4616897.0
1574255420336,4590447.0
1574255420387,4516685.0
1574255420435,4583251.0
1574255420485,4577030.0
1574255420538,4555753.0
1574255420586,4520712.0
1574255420630,4489244.0
1574255420687,4470028.0
1574255420735,4412458.0
1574255420780,4389418.0
1574255420834,4366167.0
1574255420882,4361254.0
1574255420933,4341353.0
1574255420980,4381557.0
1574255421032,4362776.0
1574255421079,4321117.0
1574255421123,4285112.0
1574255421178,4310696.0
1574255421225,4321550.0
1574255421271,4292924.0
1574255421325,4247818.0
1574255421370,4277071.0
1574255421431,4317563.0
1574255421475,4249888.0
1574255421525,4293434.0
1574255421575,4347056.0
1574255421624,4417312.0
1574255421673,4424756.0
1574255421723,4424189.0
1574255421773,4410993.0
1574255421821,4351256.0
1574255421871,4323409.0
1574255421920,4418180.0
1574255421964,4512323.0
1574255422019,4495225.0
1574255422066,4505348.0
1574255422119,4514326.0
1574255422170,4497999.0
1574255422212,4457949.0
1574255422266,4432097.0
1574255422311,4397797.0
1574255422366,4395302.0
1574255422415,4415973.0
1574255422464,4394146.0
1574255422514,4363335.0
1574255422562,4347826.0
1574255422613,4312689.0
1574255422660,4288109.0
1574255422706,4293782.0
1574255422759,4268131.0
1574255422808,4290035.0
1574255422859,4314875.0
1574255422910,4319528.0
1574255422958,4317255.0
1574255423007,4264925.0
1574255423054,4297451.0
1574255423107,4288339.0
1574255423155,4331828.0
1574255423204,4340459.0
1574255423254,4300080.0
1574255423302,4305861.0
1574255423352,4302663.0
1574255423401,4337068.0
1574255423449,4373004.0
1574255423500,4347885.0
1574255423550,4361707.0
1574255423593,4403431.0
1574255423647,4405493.0
1574255423694,4396921.0
1574255423743,4388618.0
1574255423792,4365328.0
1574255423846,4334197.0
1574255423895,4442355.0
1574255423944,4516713.0
1574255423996,4551417.0
1574255424043,4570904.0
1574255424089,4594521.0
1574255424141,4549550.0
1574255424189,4526933.0
1574255424240,4517609.0
1574255424287,4576597.0
1574255424340,4573947.0
1574255424390,4572068.0
1574255424438,4584051.0
1574255424487,4624119.0
1574255424537,4668407.0
1574255424587,4580882.0
1574255424630,4656377.0
1574255424684,4731670.0
1574255424734,4813811.0
1574255424783,4870487.0
1574255424833,4910094.0
1574255424883,4907040.0
1574255424931,4842987.0
1574255424981,4841167.0
1574255425032,4833924.0
1574255425080,4804286.0
1574255425134,4860007.0
1574255425179,4904102.0
1574255425229,4910671.0
1574255425278,4866537.0
1574255425324,4795087.0
1574255425372,4779387.0
1574255425422,4774542.0
1574255425473,4798006.0
1574255425519,4901684.0
1574255425575,4907184.0
1574255425624,4811723.0
1574255425670,4765403.0
1574255425722,4714112.0
1574255425773,4736804.0
1574255425822,4718870.0
1574255425872,4700598.0
1574255425920,4666780.0
1574255425970,4654171.0
1574255426019,4637498.0
1574255426069,4588972.0
1574255426119,4631816.0
1574255426168,4603623.0
1574255426213,4647497.0
1574255426266,4681652.0
1574255426315,4699481.0
1574255426365,4660894.0
1574255426409,4666193.0
1574255426463,4644404.0
1574255426511,4578724.0
1574255426562,4576000.0
1574255426610,4581690.0
1574255426661,4599501.0
1574255426710,4617734.0
1574255426761,4561513.0
1574255426810,4550753.0
1574255426859,4535940.0
1574255426909,4542498.0
1574255426958,4649866.0
1574255427007,4719274.0
1574255427057,4760701.0
1574255427106,4752408.0
1574255427152,4747062.0
1574255427205,4808659.0
1574255427256,4833875.0
1574255427303,4878943.0
1574255427356,4872317.0
1574255427402,4882133.0
1574255427456,4870525.0
1574255427501,4844568.0
1574255427551,4881082.0
1574255427599,4931380.0
1574255427650,4966836.0
1574255427697,5014196.0
1574255427748,5007319.0
1574255427794,5013522.0
1574255427846,5016748.0
1574255427890,5028402.0
1574255427945,5082843.0
1574255427997,5076929.0
1574255428044,5067211.0
1574255428096,5050682.0
1574255428143,5043303.0
1574255428195,5056635.0
1574255428241,5016555.0
1574255428291,5016614.0
1574255428341,4995395.0
1574255428391,5004613.0
1574255428435,5034577.0
1574255428489,5048919.0
1574255428537,5044740.0
1574255428581,5045875.0
1574255428638,5014727.0
1574255428681,5071323.0
1574255428733,5133653.0
1574255428785,5126400.0
1574255428837,5229846.0
1574255428883,5269520.0
1574255428936,5295227.0
1574255428983,5291818.0
1574255429032,5211392.0
1574255429081,5161961.0
1574255429133,5165870.0
1574255429181,5196365.0
1574255429228,5247368.0
1574255429278,5199939.0
1574255429329,5160708.0
1574255429374,5096675.0
1574255429429,5144169.0
1574255429476,5239749.0
1574255429527,5254735.0
1574255429572,5244940.0
1574255429625,5210853.0
1574255429673,5238593.0
1574255429721,5263713.0
1574255429771,5176005.0
1574255429819,5135463.0
1574255429873,5174424.0
1574255429918,5160043.0
1574255429969,5157481.0
1574255430018,5171697.0
1574255430070,5130656.0
1574255430122,5093688.0
1574255430172,5063531.0
1574255430213,5108589.0
1574255430270,5130126.0
1574255430319,5081532.0
1574255430365,5037553.0
1574255430414,5035136.0
1574255430464,5022557.0
1574255430512,4977893.0
1574255430565,4912694.0
1574255430618,4933904.0
1574255430664,4965477.0
1574255430718,4979386.0
1574255430763,4998968.0
1574255430806,4980146.0
1574255430862,4959264.0
1574255430913,4929174.0
1574255430954,4940279.0
1574255431007,4963927.0
1574255431060,4948274.0
1574255431109,4924050.0
1574255431156,4905065.0
1574255431207,4933219.0
1574255431256,4967202.0
1574255431306,4881072.0
1574255431359,4907030.0
1574255431404,4919023.0
1574255431458,4912540.0
1574255431503,4879754.0
1574255431554,4872047.0
1574255431602,4858351.0
1574255431652,4854556.0
1574255431695,4821682.0
1574255431752,4857762.0
1574255431798,4863995.0
1574255431850,4810046.0
1574255431899,4759988.0
1574255431948,4742054.0
1574255431996,4760691.0
1574255432046,4740368.0
1574255432098,4671278.0
1574255432146,4673619.0
1574255432197,4662272.0
1574255432244,4669622.0
1574255432290,4667522.0
1574255432342,4675401.0
1574255432389,4675777.0
1574255432441,4654577.0
1574255432493,4740272.0
1574255432540,4782508.0
1574255432591,4797177.0
1574255432639,4800473.0
1574255432689,4782817.0
1574255432735,4784637.0
1574255432788,4770362.0
1574255432837,4724563.0
1574255432886,4744578.0
1574255432939,4756782.0
1574255432984,4736611.0
1574255433036,4750531.0
1574255433083,4744510.0
1574255433135,4745906.0
1574255433183,4731479.0
1574255433228,4728222.0
1574255433282,4780572.0
1574255433331,4719101.0
1574255433376,4700424.0
1574255433431,4667609.0
1574255433477,4670421.0
1574255433530,4657976.0
1574255433576,4638299.0
1574255433621,4596071.0
1574255433676,4615846.0
1574255433722,4617417.0
1574255433773,4629022.0
1574255433822,4630525.0
1574255433875,4654317.0
1574255433924,4647883.0
1574255433974,4660559.0
1574255434021,4699375.0
1574255434072,4731507.0
1574255434115,4789357.0
1574255434172,4835754.0
1574255434217,4829994.0
1574255434271,4860316.0
1574255434320,4846764.0
1574255434369,4892090.0
1574255434420,4844105.0
1574255434468,4878760.0
1574255434516,4966123.0
1574255434559,4990724.0
1574255434611,4999682.0
1574255434659,4979896.0
1574255434710,4946281.0
1574255434756,4973289.0
1574255434809,5037949.0
1574255434857,5077459.0
1574255434908,5108224.0
1574255434956,5112240.0
1574255435007,5131349.0
1574255435056,5132409.0
1574255435105,5078144.0
1574255435156,5039047.0
1574255435203,5124126.0
1574255435253,5097281.0
1574255435302,5128413.0
1574255435352,5147138.0
1574255435398,5118096.0
1574255435451,5109004.0
1574255435498,5049392.0
1574255435550,5136465.0
1574255435597,5155833.0
1574255435653,5127401.0
1574255435695,5159417.0
1574255435752,5166506.0
1574255435798,5167104.0
1574255435851,5091945.0
1574255435899,5084684.0
1574255435948,5073066.0
1574255435998,5079828.0
1574255436046,5117990.0
1574255436097,5122210.0
1574255436141,5096598.0
1574255436196,5069667.0
1574255436245,5025542.0
1574255436295,5038179.0
1574255436343,5070226.0
1574255436389,5043785.0
1574255436441,5052474.0
1574255436493,5031361.0
1574255436539,4989354.0
1574255436593,4983625.0
1574255436640,4935734.0
1574255436689,4924387.0
1574255436740,4898834.0
1574255436787,4911268.0
1574255436837,4930052.0
1574255436886,4948400.0
1574255436936,4940617.0
1574255436986,4928906.0
1574255437036,4893728.0
1574255437084,4953717.0
1574255437135,5017413.0
1574255437182,5052099.0
1574255437233,5041416.0
1574255437279,5033547.0
1574255437332,5014735.0
1574255437383,5032342.0
1574255437429,4971324.0
1574255437483,5014081.0
1574255437530,5039711.0
1574255437578,5076274.0
1574255437623,5073875.0
1574255437677,5067625.0
1574255437727,5042966.0
1574255437776,4990433.0
1574255437826,4960142.0
1574255437876,4966682.0
1574255437923,4990376.0
1574255437975,4930726.0
1574255438019,4867858.0
1574255438074,4822097.0
1574255438124,4844094.0
1574255438172,4843719.0
1574255438223,4789203.0
1574255438271,4778810.0
1574255438319,4728886.0
1574255438370,4665392.0
1574255438418,4704219.0
1574255438468,4709248.0
1574255438517,4713061.0
1574255438566,4695358.0
1574255438616,4644126.0
1574255438659,4679312.0
1574255438715,4676624.0
1574255438760,4619101.0
1574255438815,4589696.0
1574255438860,4610895.0
1574255438908,4627049.0
1574255438959,4598257.0
1574255439006,4523379.0
1574255439061,4470288.0
1574255439107,4463882.0
1574255439155,4462496.0
1574255439209,4508834.0
1574255439258,4539282.0
1574255439307,4555656.0
1574255439357,4525257.0
1574255439406,4503893.0
1574255439456,4550397.0
1574255439501,4547565.0
1574255439556,4592093.0
1574255439600,4683290.0
1574255439655,4709237.0
1574255439704,4732692.0
1574255439750,4745378.0
1574255439802,4691100.0
1574255439852,4708601.0
1574255439900,4712840.0
1574255439950,4720806.0
1574255439998,4776537.0
1574255440049,4779735.0
1574255440097,4753989.0
1574255440148,4735813.0
1574255440196,4730101.0
1574255440242,4767752.0
1574255440297,4825534.0
1574255440339,4830110.0
1574255440391,4829752.0
1574255440444,4836447.0
1574255440494,4870863.0
1574255440546,4881322.0
1574255440591,4827481.0
1574255440640,4865420.0
1574255440685,4915236.0
1574255440733,4908456.0
1574255440783,4950393.0
1574255440832,4930417.0
1574255440889,4903111.0
1574255440937,4900953.0
1574255440983,4903389.0
1574255441036,4961221.0
1574255441080,5006008.0
1574255441136,4974195.0
1574255441184,4953553.0
1574255441231,4967596.0
1574255441284,5000364.0
1574255441333,4937429.0
1574255441381,4928875.0
1574255441432,4976073.0
1574255441481,5008233.0
1574255441531,5031775.0
1574255441579,5068279.0
1574255441625,5054689.0
1574255441678,5054063.0
1574255441729,5035339.0
1574255441777,5030387.0
1574255441821,5095239.0
1574255441876,5092272.0
1574255441922,5059553.0
1574255441976,5053177.0
1574255442027,5031832.0
1574255442076,5058281.0
1574255442129,5037803.0
1574255442174,5001433.0
1574255442222,4977950.0
1574255442272,5026159.0
1574255442321,5059486.0
1574255442372,5104379.0
1574255442419,5096655.0
1574255442470,5096472.0
1574255442514,5081100.0
1574255442561,5053986.0
1574255442617,5125965.0
1574255442663,5091608.0
1574255442717,5071284.0
1574255442767,5071199.0
1574255442816,5041145.0
1574255442868,5050258.0
1574255442914,4993968.0
1574255442962,4954680.0
1574255443011,4997388.0
1574255443061,5050240.0
1574255443112,5092542.0
1574255443160,5123961.0
1574255443212,5099016.0
1574255443259,5082940.0
1574255443310,5041011.0
1574255443357,5067450.0
1574255443408,5132940.0
1574255443458,5151152.0
1574255443506,5166197.0
1574255443556,5169233.0
1574255443607,5186974.0
1574255443655,5193514.0
1574255443704,5134518.0
1574255443752,5118155.0
1574255443799,5153735.0
1574255443853,5189103.0
1574255443901,5188323.0
1574255443954,5199611.0
1574255443999,5143862.0
1574255444051,5126948.0
1574255444098,5091165.0
1574255444144,5159927.0
1574255444198,5190828.0
1574255444245,5187543.0
1574255444297,5160226.0
1574255444345,5218096.0
1574255444391,5242849.0
1574255444447,5265871.0
1574255444496,5191655.0
1574255444550,5207279.0
1574255444594,5122123.0
1574255444644,5154322.0
1574255444694,5221331.0
1574255444743,5269963.0
1574255444793,5261131.0
1574255444841,5248081.0
1574255444893,5178160.0
1574255444941,5234393.0
1574255444993,5199882.0
1574255445039,5140183.0
1574255445086,5120889.0
1574255445134,5105160.0
1574255445185,5131235.0
1574255445233,5136627.0
1574255445285,5049199.0
1574255445332,5011768.0
1574255445386,5030686.0
1574255445435,4999826.0
1574255445479,5063801.0
1574255445531,5083345.0
1574255445579,5075620.0
1574255445628,5068578.0
1574255445679,5063840.0
1574255445732,5163674.0
1574255445780,5132487.0
1574255445827,5111027.0
1574255445879,5093207.0
1574255445929,5052637.0
1574255445978,5062684.0
1574255446030,5012530.0
1574255446078,4942900.0
1574255446130,4975571.0
1574255446177,4993930.0
1574255446225,5000789.0
1574255446276,5035463.0
1574255446324,5028798.0
1574255446370,5024908.0
1574255446423,4992601.0
1574255446474,5026082.0
1574255446521,5068539.0
1574255446572,5049642.0
1574255446620,5045268.0
1574255446672,5032602.0
1574255446719,5017721.0
1574255446771,4998534.0
1574255446818,4954652.0
1574255446870,4899961.0
1574255446917,4951539.0
1574255446967,4954055.0
1574255447016,5009351.0
1574255447065,5039788.0
1574255447115,5010228.0
1574255447164,5005730.0
1574255447210,4968289.0
1574255447262,4991282.0
1574255447311,4968618.0
1574255447361,4993188.0
1574255447412,5055989.0
1574255447460,5056422.0
1574255447509,5055670.0
1574255447559,5033209.0
1574255447611,4951318.0
1574255447654,4916093.0
1574255447707,4969937.0
1574255447757,4989769.0
1574255447806,5013300.0
1574255447856,5023847.0
1574255447904,5036137.0
1574255447955,4976958.0
1574255448003,4975707.0
1574255448054,4984124.0
1574255448102,4952417.0
1574255448151,4936417.0
1574255448201,4911240.0
1574255448248,4924706.0
1574255448300,4911528.0
1574255448348,4822509.0
1574255448394,4807127.0
1574255448450,4815006.0
1574255448499,4803035.0
1574255448548,4800993.0
1574255448591,4819244.0
1574255448646,4834001.0
1574255448697,4827046.0
1574255448746,4800115.0
1574255448796,4878376.0
1574255448844,4843904.0
1574255448895,4801704.0
1574255448939,4802196.0
1574255448989,4810248.0
1574255449037,4814390.0
1574255449089,4773512.0
1574255449134,4749500.0
1574255449188,4757166.0
1574255449236,4739289.0
1574255449290,4742979.0
1574255449335,4773705.0
1574255449383,4784849.0
1574255449431,4806964.0
1574255449485,4763611.0
1574255449533,4754421.0
1574255449583,4749509.0
1574255449630,4770478.0
1574255449685,4712937.0
1574255449735,4697266.0
1574255449785,4700377.0
1574255449832,4664015.0
1574255449884,4591776.0
1574255449932,4555068.0
1574255449982,4545850.0
1574255450030,4595185.0
1574255450081,4600049.0
1574255450134,4604182.0
1574255450180,4598095.0
1574255450226,4558902.0
1574255450279,4609365.0
1574255450328,4558720.0
1574255450376,4519903.0
1574255450427,4515443.0
1574255450475,4528205.0
1574255450526,4531017.0
1574255450575,4488955.0
1574255450624,4440630.0
1574255450676,4475595.0
1574255450724,4513989.0
1574255450777,4523650.0
1574255450822,4548693.0
1574255450876,4553778.0
1574255450921,4522579.0
1574255450971,4495254.0
1574255451013,4526441.0
1574255451069,4623089.0
1574255451117,4638376.0
1574255451168,4663149.0
1574255451211,4683666.0
1574255451262,4693847.0
1574255451312,4667782.0
1574255451365,4579929.0
1574255451414,4583348.0
1574255451464,4643961.0
1574255451517,4664854.0
1574255451563,4724900.0
1574255451616,4717454.0
1574255451662,4688674.0
1574255451716,4688914.0
1574255451754,4722232.0
1574255451810,4758930.0
1574255451859,4850356.0
1574255451909,4949778.0
1574255451957,4977084.0
1574255452007,4961076.0
1574255452052,4963618.0
1574255452107,4943796.0
1574255452152,4868012.0
1574255452205,4924377.0
1574255452250,4925620.0
1574255452304,4954392.0
1574255452356,4978663.0
1574255452399,4958908.0
1574255452456,4961692.0
1574255452502,4934926.0
1574255452557,4978403.0
1574255452595,5000691.0
1574255452651,4995317.0
1574255452696,4969927.0
1574255452748,4962125.0
1574255452795,4962184.0
1574255452850,4913003.0
1574255452898,4902292.0
1574255452949,4927567.0
1574255452994,4941397.0
1574255453047,4947167.0
1574255453091,4971036.0
1574255453147,4958638.0
1574255453191,4946310.0
1574255453245,4921354.0
1574255453296,4925100.0
1574255453343,4953216.0
1574255453394,4927315.0
1574255453443,4874426.0
1574255453491,4838643.0
1574255453541,4820421.0
1574255453591,4815276.0
1574255453640,4775139.0
1574255453690,4765700.0
1574255453737,4728098.0
1574255453789,4719555.0
1574255453838,4714266.0
1574255453886,4738153.0
1574255453932,4752650.0
1574255453985,4744212.0
1574255454033,4732519.0
1574255454080,4793817.0
1574255454132,4795272.0
1574255454179,4782490.0
1574255454230,4735880.0
1574255454278,4737422.0
1574255454331,4764659.0
1574255454381,4722472.0
1574255454430,4729311.0
1574255454480,4729849.0
1574255454530,4740349.0
1574255454578,4774302.0
1574255454627,4787951.0
1574255454672,4780188.0
1574255454726,4772165.0
1574255454773,4716702.0
1574255454822,4751772.0
1574255454874,4752650.0
1574255454920,4720343.0
1574255454978,4689300.0
1574255455023,4685563.0
1574255455073,4701340.0
1574255455122,4653537.0
1574255455171,4598846.0
1574255455220,4560174.0
1574255455272,4560386.0
1574255455316,4603180.0
1574255455371,4617975.0
1574255455419,4642277.0
1574255455469,4665817.0
1574255455514,4674342.0
1574255455568,4718331.0
1574255455618,4756358.0
1574255455665,4771017.0
1574255455718,4738210.0
1574255455764,4729532.0
1574255455815,4750077.0
1574255455862,4742729.0
1574255455913,4661473.0
1574255455960,4652188.0
1574255456012,4663515.0
1574255456060,4677414.0
1574255456112,4687835.0
1574255456157,4693566.0
1574255456210,4665018.0
1574255456253,4637730.0
1574255456310,4606677.0
1574255456354,4674206.0
1574255456406,4655713.0
1574255456459,4630842.0
1574255456505,4609633.0
1574255456557,4592325.0
1574255456600,4563612.0
1574255456655,4513785.0
1574255456697,4482163.0
1574255456753,4493116.0
1574255456801,4485650.0
1574255456852,4506928.0
1574255456899,4503151.0
1574255456951,4515539.0
1574255456996,4515577.0
1574255457050,4518304.0
1574255457096,4569449.0
1574255457150,4581248.0
1574255457198,4540090.0
1574255457247,4508422.0
1574255457299,4443607.0
1574255457345,4465097.0
1574255457395,4467388.0
1574255457444,4409472.0
1574255457495,4432800.0
1574255457543,4420943.0
1574255457594,4392982.0
1574255457641,4425230.0
1574255457692,4418371.0
1574255457736,4439706.0
1574255457791,4430478.0
1574255457836,4454144.0
1574255457885,4520269.0
1574255457937,4485361.0
1574255457988,4462581.0
1574255458038,4427676.0
1574255458085,4426800.0
1574255458137,4422426.0
1574255458185,4394368.0
1574255458234,4364452.0
1574255458284,4319152.0
1574255458335,4312998.0
1574255458383,4309934.0
1574255458433,4336221.0
1574255458478,4376964.0
1574255458533,4367437.0
1574255458581,4465586.0
1574255458627,4503566.0
1574255458680,4457650.0
1574255458729,4451592.0
1574255458780,4438328.0
1574255458828,4438781.0
1574255458881,4446295.0
1574255458926,4392905.0
1574255458976,4337231.0
1574255459025,4313104.0
1574255459076,4292587.0
1574255459124,4315676.0
1574255459171,4322562.0
1574255459222,4339514.0
1574255459273,4340488.0
1574255459320,4375712.0
1574255459373,4424931.0
1574255459417,4406351.0
1574255459473,4364385.0
1574255459518,4343946.0
1574255459566,4342365.0
1574255459617,4333919.0
1574255459664,4289273.0
1574255459716,4300930.0
1574255459764,4303144.0
1574255459812,4319286.0
1574255459861,4330345.0
1574255459912,4347847.0
1574255459960,4350610.0
1574255460011,4329728.0
1574255460056,4356207.0
1574255460107,4422176.0
1574255460157,4397691.0
1574255460212,4364365.0
1574255460258,4333561.0
1574255460314,4348521.0
1574255460361,4338531.0
1574255460404,4282859.0
1574255460453,4277369.0
1574255460507,4284950.0
1574255460556,4253809.0
1574255460606,4262343.0
1574255460657,4311263.0
1574255460705,4303847.0
1574255460755,4303597.0
1574255460798,4285257.0
1574255460855,4304396.0
1574255460902,4283351.0
1574255460953,4277300.0
1574255460996,4273651.0
1574255461052,4257141.0
1574255461101,4199870.0
1574255461155,4137551.0
1574255461202,4133737.0
1574255461251,4115927.0
1574255461298,4108472.0
1574255461348,4199917.0
1574255461396,4248964.0
1574255461446,4232494.0
1574255461496,4229603.0
1574255461545,4200120.0
1574255461589,4232984.0
1574255461638,4229315.0
1574255461688,4221754.0
1574255461740,4242155.0
1574255461793,4162460.0
1574255461840,4124692.0
1574255461893,4106382.0
1574255461942,4090307.0
1574255461991,4055226.0
1574255462040,4054735.0
1574255462089,4039901.0
1574255462138,4020185.0
1574255462188,4046191.0
1574255462237,4061141.0
1574255462283,3993648.0
1574255462336,3993610.0
1574255462386,3980346.0
1574255462435,3955833.0
1574255462483,3966910.0
1574255462535,3963182.0
1574255462577,3971419.0
1574255462629,3966468.0
1574255462683,3993071.0
1574255462732,3921034.0
1574255462783,3935280.0
1574255462832,3909254.0
1574255462880,3902309.0
1574255462930,3911921.0
1574255462979,3922574.0
1574255463024,3882997.0
1574255463078,3913067.0
1574255463127,3878576.0
1574255463176,3881561.0
1574255463226,3869819.0
1574255463276,3866884.0
1574255463324,3858155.0
1574255463375,3860256.0
1574255463426,3828845.0
1574255463475,3784145.0
1574255463524,3741899.0
1574255463571,3763492.0
1574255463624,3775861.0
1574255463671,3829790.0
1574255463720,3832448.0
1574255463770,3852531.0
1574255463819,3899217.0
1574255463869,3846607.0
1574255463918,3825127.0
1574255463968,3826978.0
1574255464017,3813059.0
1574255464067,3808406.0
1574255464116,3825938.0
1574255464161,3811750.0
1574255464209,3813203.0
1574255464261,3812085.0
1574255464310,3819879.0
1574255464361,3863233.0
1574255464411,3900653.0
1574255464463,3898504.0
1574255464511,3968664.0
1574255464560,4036232.0
1574255464611,4010264.0
1574255464659,3955602.0
1574255464709,3934017.0
1574255464758,3964416.0
1574255464808,3961951.0
1574255464857,3941445.0
1574255464901,3984219.0
1574255464956,3989373.0
1574255464999,4057268.0
1574255465049,4400310.0
1574255465103,4487413.0
1574255465157,4509740.0
1574255465204,4467360.0
1574255465253,4382031.0
1574255465301,4285362.0
1574255465351,4189429.0
1574255465400,4161775.0
1574255465451,4134026.0
1574255465499,4111063.0
1574255465550,4097058.0
1574255465598,4044978.0
1574255465649,3965698.0
1574255465697,3912645.0
1574255465746,3947916.0
1574255465796,3988660.0
1574255465842,4041510.0
1574255465896,4090258.0
1574255465947,4111622.0
1574255465995,4023885.0
1574255466046,4167718.0
1574255466092,4180616.0
1574255466141,4133516.0
1574255466191,4128747.0
1574255466240,4135133.0
1574255466287,4154888.0
1574255466339,4133601.0
1574255466391,4018586.0
1574255466438,4022438.0
1574255466489,4066582.0
1574255466537,4076629.0
1574255466586,4075406.0
1574255466634,4098608.0
1574255466686,4125616.0
1574255466731,4089681.0
1574255466787,4094043.0
1574255466831,4257015.0
1574255466882,4319114.0
1574255466932,4346353.0
1574255466982,4368757.0
1574255467031,4385989.0
1574255467080,4403240.0
1574255467131,4363690.0
1574255467179,4380566.0
1574255467229,4481538.0
1574255467277,4499714.0
1574255467324,4505849.0
1574255467377,4574766.0
1574255467430,4559508.0
1574255467476,4527357.0
1574255467527,4496824.0
1574255467575,4523032.0
1574255467623,4504665.0
1574255467675,4445582.0
1574255467724,4403230.0
1574255467774,4365184.0
1574255467822,4271550.0
1574255467872,4242058.0
1574255467921,4213731.0
1574255467972,4118605.0
1574255468019,4092155.0
1574255468071,4121870.0
1574255468114,4144678.0
1574255468162,4118903.0
1574255468218,4111987.0
1574255468266,4113066.0
1574255468316,4102491.0
1574255468369,4087021.0
1574255468411,4025849.0
1574255468469,3982736.0
1574255468516,3983727.0
1574255468564,3969385.0
1574255468614,3951479.0
1574255468663,3970533.0
1574255468708,3964629.0
1574255468760,4019781.0
1574255468812,4023730.0
1574255468860,4014713.0
1574255468911,4006950.0
1574255468958,4023094.0
1574255469003,4028749.0
1574255469058,4061968.0
1574255469107,4114279.0
1574255469156,4058309.0
1574255469209,3944092.0
1574255469256,3920802.0
1574255469303,3937397.0
1574255469354,3937948.0
1574255469399,3927641.0
1574255469450,3935752.0
1574255469503,3956191.0
1574255469552,3935636.0
1574255469600,3918212.0
1574255469651,3922123.0
1574255469699,3971419.0
1574255469744,3962595.0
1574255469798,4059127.0
1574255469846,4116254.0
1574255469891,4104734.0
1574255469945,4060938.0
1574255469993,4031589.0
1574255470045,4038601.0
1574255470092,4041193.0
1574255470141,4026918.0
1574255470196,4011652.0
1574255470243,4004254.0
1574255470290,4024933.0
1574255470342,4069530.0
1574255470393,4107373.0
1574255470440,4128150.0
1574255470491,4129028.0
1574255470539,4080983.0
1574255470587,4192444.0
1574255470638,4113586.0
1574255470687,4076639.0
1574255470737,4017720.0
1574255470791,3975367.0
1574255470836,3978441.0
1574255470885,3972603.0
1574255470935,3951809.0
1574255470985,3949545.0
1574255471035,3934894.0
1574255471083,3926832.0
1574255471134,3959407.0
1574255471183,4006026.0
1574255471228,3997935.0
1574255471280,4006865.0
1574255471327,4058790.0
1574255471379,4060909.0
1574255471431,4034710.0
1574255471478,4017015.0
1574255471527,4018480.0
1574255471577,4031628.0
1574255471626,4034816.0
1574255471677,4006209.0
1574255471726,3960419.0
1574255471776,3927342.0
1574255471824,3909436.0
1574255471874,3919059.0
1574255471923,3933700.0
1574255471971,3931070.0
1574255472021,3911604.0
1574255472071,3901856.0
1574255472121,3842850.0
1574255472171,3821409.0
1574255472220,3807154.0
1574255472271,3798196.0
1574255472318,3804641.0
1574255472369,3794604.0
1574255472412,3800653.0
1574255472467,3749363.0
1574255472516,3759477.0
1574255472566,3802762.0
1574255472616,3843110.0
1574255472664,3876486.0
1574255472713,3877392.0
1574255472763,3878288.0
1574255472810,3890954.0
1574255472863,3910276.0
1574255472912,3889787.0
1574255472961,3874415.0
1574255473010,3893313.0
1574255473060,3929634.0
1574255473114,3891021.0
1574255473158,3820966.0
1574255473209,3856837.0
1574255473253,3886273.0
1574255473307,3862249.0
1574255473357,3905324.0
1574255473405,3939913.0
1574255473456,3923982.0
1574255473504,3879663.0
1574255473548,3925936.0
1574255473603,3927054.0
1574255473651,3871804.0
1574255473701,3858503.0
1574255473749,3884355.0
1574255473801,3896116.0
1574255473849,3882977.0
1574255473900,3849864.0
1574255473950,3812981.0
1574255473998,3776737.0
1574255474048,3784712.0
1574255474097,3806982.0
1574255474148,3833104.0
1574255474197,3799102.0
1574255474245,3713657.0
1574255474289,3711124.0
1574255474339,3710238.0
1574255474390,3668772.0
1574255474436,3698525.0
1574255474493,3732969.0
1574255474536,3706201.0
1574255474592,3652975.0
1574255474636,3634704.0
1574255474696,3616412.0
1574255474739,3625081.0
1574255474789,3637315.0
1574255474837,3686101.0
1574255474888,3706953.0
1574255474936,3686920.0
1574255474980,3667510.0
1574255475031,3762279.0
1574255475082,3774309.0
1574255475130,3729086.0
1574255475180,3739298.0
1574255475234,3769339.0
1574255475282,3732912.0
1574255475335,3671633.0
1574255475381,3657705.0
1574255475435,3740261.0
1574255475480,3808552.0
1574255475532,3848976.0
1574255475579,3931648.0
1574255475629,3961006.0
1574255475678,3984219.0
1574255475728,4064329.0
1574255475772,4182637.0
1574255475822,4276656.0
1574255475871,4364759.0
1574255475925,4416282.0
1574255475973,4431067.0
1574255476023,4443213.0
1574255476076,4459499.0
1574255476117,4440043.0
1574255476177,4450870.0
1574255476222,4518649.0
1574255476275,4578667.0
1574255476320,4622858.0
1574255476371,4617031.0
1574255476414,4640197.0
1574255476470,4661241.0
1574255476512,4667792.0
1574255476569,4697478.0
1574255476617,4748460.0
1574255476667,4783886.0
1574255476710,4766634.0
1574255476765,4757861.0
1574255476812,4756347.0
1574255476864,4703997.0
1574255476916,4684021.0
1574255476962,4697882.0
1574255477016,4739732.0
1574255477062,4713918.0
1574255477108,4710123.0
1574255477161,4654539.0
1574255477211,4639859.0
1574255477260,4633232.0
1574255477310,4667089.0
1574255477359,4722346.0
1574255477409,4736698.0
1574255477457,4683656.0
1574255477507,4610856.0
1574255477552,4575709.0
1574255477606,4555424.0
1574255477651,4502247.0
1574255477704,4503143.0
1574255477754,4464837.0
1574255477803,4442057.0
1574255477856,4361937.0
1574255477901,4336759.0
1574255477951,4355744.0
1574255478001,4390016.0
1574255478053,4346044.0
1574255478099,4372349.0
1574255478149,4331857.0
1574255478198,4277831.0
1574255478248,4236241.0
1574255478293,4219326.0
1574255478346,4203520.0
1574255478392,4222360.0
1574255478445,4348993.0
1574255478496,4326790.0
1574255478544,4298646.0
1574255478591,4341441.0
1574255478642,4411696.0
1574255478687,4474467.0
1574255478741,4535100.0
1574255478791,4501302.0
1574255478841,4444281.0
1574255478891,4366080.0
1574255478939,4283331.0
1574255478989,4324892.0
1574255479039,4352268.0
1574255479088,4377118.0
1574255479131,4353403.0
1574255479188,4336056.0
1574255479234,4298069.0
1574255479285,4336422.0
1574255479335,4378861.0
1574255479384,4307228.0
1574255479436,4274045.0
1574255479482,4274277.0
1574255479533,4191500.0
1574255479582,4082245.0
1574255479626,3958078.0
1574255479680,3888209.0
1574255479725,3868009.0
1574255479773,3877323.0
1574255479827,3891541.0
1574255479875,3878152.0
1574255479925,3863799.0
1574255479974,3719716.0
1574255480027,3654932.0
1574255480079,3635917.0
1574255480119,3635273.0
1574255480173,3650856.0
1574255480217,3680081.0
1574255480276,3694325.0
1574255480319,3552822.0
1574255480374,3462619.0
1574255480418,3461308.0
1574255480473,3451050.0
1574255480521,3458054.0
1574255480572,3475709.0
1574255480618,3481882.0
1574255480670,3426633.0
1574255480712,3372848.0
1574255480769,3363429.0
1574255480819,3377540.0
1574255480867,3442306.0
1574255480915,3497390.0
1574255480966,3563457.0
1574255481018,3579599.0
1574255481062,3632940.0
1574255481115,3727652.0
1574255481163,3688681.0
1574255481214,3688344.0
1574255481263,3723780.0
1574255481312,3742236.0
1574255481361,3753043.0
1574255481405,3711441.0
1574255481453,3661895.0
1574255481511,3653554.0
1574255481553,3649123.0
1574255481610,3680042.0
1574255481656,3729107.0
1574255481708,3798562.0
1574255481757,3764475.0
1574255481807,3706394.0
1574255481856,3818713.0
1574255481904,3815803.0
1574255481955,3764746.0
1574255482004,3761007.0
1574255482054,3831909.0
1574255482103,3849766.0
1574255482152,3760111.0
1574255482195,3720679.0
1574255482245,3697235.0
1574255482298,3711355.0
1574255482350,3756617.0
1574255482393,3779945.0
1574255482444,3801376.0
1574255482494,3772393.0
1574255482542,3738806.0
1574255482594,3811027.0
1574255482641,3782873.0
1574255482690,3701298.0
1574255482739,3709381.0
1574255482790,3733942.0
1574255482838,3740444.0
1574255482890,3710807.0
1574255482938,3667577.0
1574255482988,3674311.0
1574255483036,3665854.0
1574255483086,3739520.0
1574255483135,3852531.0
1574255483185,3852320.0
1574255483233,3808889.0
1574255483284,3898985.0
1574255483334,3965350.0
1574255483383,3941656.0
1574255483429,3926822.0
1574255483481,3917076.0
1574255483531,3927218.0
1574255483580,3891994.0
1574255483630,3829357.0
1574255483679,3830820.0
1574255483730,3864023.0
1574255483778,3881715.0
1574255483829,3910428.0
1574255483876,3920745.0
1574255483925,3893997.0
1574255483975,3885992.0
1574255484026,3931869.0
1574255484074,4032274.0
1574255484125,4034527.0
1574255484175,4023769.0
1574255484224,3984615.0
1574255484272,3895344.0
1574255484322,3814351.0
1574255484371,3765313.0
1574255484420,3733644.0
1574255484471,3744394.0
1574255484519,3721593.0
1574255484570,3724995.0
1574255484619,3683279.0
1574255484669,3615364.0
1574255484718,3601156.0
1574255484767,3574060.0
1574255484819,3627971.0
1574255484867,3653678.0
1574255484917,3598535.0
1574255484966,3576324.0
1574255485016,3573579.0
1574255485061,3557686.0
1574255485112,3534010.0
1574255485162,3526767.0
1574255485211,3602273.0
1574255485261,3655519.0
1574255485310,3649334.0
1574255485360,3640070.0
1574255485410,3611983.0
1574255485459,3616904.0
1574255485509,3630630.0
1574255485557,3709121.0
1574255485608,3672202.0
1574255485660,3663445.0
1574255485708,3645271.0
1574255485758,3630187.0
1574255485805,3624080.0
1574255485857,3599479.0
1574255485904,3570275.0
1574255485953,3565440.0
1574255486003,3587758.0
1574255486052,3560084.0
1574255486101,3536119.0
1574255486151,3537479.0
1574255486200,3561530.0
1574255486250,3635909.0
1574255486299,3649980.0
1574255486349,3705325.0
1574255486400,3739528.0
1574255486449,3692533.0
1574255486498,3663069.0
1574255486547,3673433.0
1574255486599,3659719.0
1574255486647,3651559.0
1574255486694,3634791.0
1574255486744,3649470.0
1574255486793,3719763.0
1574255486842,3746598.0
1574255486892,3723048.0
1574255486941,3732421.0
1574255486991,3751992.0
1574255487040,3766806.0
1574255487090,3819444.0
1574255487139,3949246.0
1574255487189,4110051.0
1574255487237,4073557.0
1574255487288,4049678.0
1574255487337,4007403.0
1574255487387,3989652.0
1574255487433,4004784.0
1574255487486,3969859.0
1574255487534,3974511.0
1574255487584,4074471.0
1574255487633,4020581.0
1574255487682,3914329.0
1574255487732,3903628.0
1574255487781,3909619.0
1574255487831,3917614.0
1574255487880,3939923.0
1574255487930,3970590.0
1574255487980,4020427.0
1574255488029,4007027.0
1574255488078,3987870.0
1574255488129,3956528.0
1574255488179,3973875.0
1574255488227,4014376.0
1574255488275,3991501.0
1574255488326,3953781.0
1574255488374,3962057.0
1574255488424,3935963.0
1574255488473,3966151.0
1574255488523,4037898.0
1574255488572,4039805.0
1574255488621,4084441.0
1574255488671,4023998.0
1574255488723,4106103.0
1574255488770,4083332.0
1574255488823,3959379.0
1574255488869,3956508.0
1574255488920,3965775.0
1574255488969,3981667.0
1574255489016,3945508.0
1574255489065,3846905.0
1574255489115,3817616.0
1574255489166,3825282.0
1574255489213,3824300.0
1574255489264,3858897.0
1574255489313,3888150.0
1574255489363,3932466.0
1574255489412,3943428.0
1574255489459,3987069.0
1574255489511,4010563.0
1574255489563,3924752.0
1574255489610,3913425.0
1574255489661,3935299.0
1574255489709,3961593.0
1574255489761,3963818.0
1574255489808,3866410.0
1574255489856,3844431.0
1574255489908,3846009.0
1574255489954,3808436.0
1574255490003,3817711.0
1574255490054,3830918.0
1574255490102,3823221.0
1574255490152,3741165.0
1574255490203,3715313.0
1574255490251,3765217.0
1574255490300,3736041.0
1574255490351,3704594.0
1574255490401,3688228.0
1574255490450,3699815.0
1574255490501,3620689.0
1574255490548,3554007.0
1574255490597,3521527.0
1574255490648,3450107.0
1574255490696,3367956.0
1574255490747,3628578.0
1574255490795,3885116.0
1574255490845,4065349.0
1574255490894,4259809.0
1574255490943,4433137.0
1574255490992,4224721.0
1574255491043,4221801.0
1574255491091,4247617.0
1574255491139,4457014.0
1574255491191,4410790.0
1574255491240,4256987.0
1574255491289,4269933.0
1574255491338,4287329.0
1574255491388,4252769.0
1574255491435,4219530.0
1574255491487,4189602.0
1574255491536,4306236.0
1574255491587,4309847.0
1574255491634,4228555.0
1574255491685,4224739.0
1574255491733,4163691.0
1574255491784,4190228.0
1574255491832,4136001.0
1574255491883,4136521.0
1574255491931,4084016.0
1574255491983,3928594.0
1574255492030,3779232.0
1574255492082,3738575.0
1574255492129,3782901.0
1574255492178,3814629.0
1574255492228,3735781.0
1574255492276,3725080.0
1574255492327,3750316.0
1574255492375,3773895.0
1574255492427,3719801.0
1574255492475,3846550.0
1574255492525,3930955.0
1574255492573,3995806.0
1574255492623,4009339.0
1574255492672,4020733.0
1574255492723,3976533.0
1574255492771,3922141.0
1574255492822,3905342.0
1574255492870,3908358.0
1574255492919,3934982.0
1574255492969,3947503.0
1574255493018,3958578.0
1574255493067,3973701.0
1574255493117,3985568.0
1574255493167,4061893.0
1574255493215,4109706.0
1574255493265,4168825.0
1574255493313,4244303.0
1574255493366,4282532.0
1574255493413,4268373.0
1574255493464,4255764.0
1574255493511,4251073.0
1574255493565,4229449.0
1574255493610,4192347.0
1574255493660,4216793.0
1574255493710,4250640.0
1574255493759,4223987.0
1574255493809,4120531.0
1574255493858,4071361.0
1574255493909,4086828.0
1574255493954,4114724.0
1574255494009,4189265.0
1574255494052,4261467.0
1574255494107,4273430.0
1574255494153,4230192.0
1574255494206,4199358.0
1574255494250,4190035.0
1574255494306,4191355.0
1574255494351,4128574.0
1574255494401,4143041.0
1574255494450,4181020.0
1574255494499,4115840.0
1574255494549,4050180.0
1574255494598,4029836.0
1574255494649,4032418.0
1574255494697,4043871.0
1574255494746,4079132.0
1574255494795,4156141.0
1574255494847,4135421.0
1574255494894,3992494.0
1574255494946,3921420.0
1574255494993,3898091.0
1574255495044,3904207.0
1574255495092,3895336.0
1574255495140,3863694.0
1574255495191,3848139.0
1574255495240,3739924.0
1574255495290,3698216.0
1574255495338,3723916.0
1574255495389,3772046.0
1574255495438,3817693.0
1574255495488,3811894.0
1574255495537,3888544.0
1574255495589,3887880.0
1574255495635,3790116.0
1574255495689,3759101.0
1574255495734,3754747.0
1574255495786,3772306.0
1574255495833,3778836.0
1574255495885,3783094.0
1574255495932,3758329.0
1574255495982,3697716.0
1574255496031,3670881.0
1574255496080,3691773.0
1574255496130,3724560.0
1574255496178,3765699.0
1574255496229,3782507.0
1574255496278,3819282.0
1574255496330,3777749.0
1574255496376,3682872.0
1574255496428,3648873.0
1574255496475,3659111.0
1574255496529,3673868.0
1574255496574,3679185.0
1574255496626,3655836.0
1574255496672,3589097.0
1574255496723,3515595.0
1574255496771,3504721.0
1574255496821,3550106.0
1574255496870,3592602.0
1574255496919,3638200.0
1574255496970,3678693.0
1574255497018,3690723.0
1574255497071,3797416.0
1574255497117,3828662.0
1574255497171,3773578.0
1574255497216,3762964.0
1574255497270,3779945.0
1574255497315,3812866.0
1574255497371,3794102.0
1574255497413,3726130.0
1574255497464,3729223.0
1574255497512,3744961.0
1574255497563,3781514.0
1574255497610,3812731.0
1574255497661,3844884.0
1574255497713,3850335.0
1574255497759,3771680.0
1574255497810,3845510.0
1574255497859,3937678.0
1574255497912,3938342.0
1574255497957,3902464.0
1574255498009,3895375.0
1574255498055,3921312.0
1574255498111,3872672.0
1574255498154,3779395.0
1574255498205,3805161.0
1574255498253,3852472.0
1574255498304,3851414.0
1574255498351,3867798.0
1574255498402,3883595.0
1574255498451,3874954.0
1574255498500,3821998.0
1574255498549,3825802.0
1574255498597,4001596.0
1574255498650,4096914.0
1574255498696,4061939.0
1574255498750,4057673.0
1574255498796,4061179.0
1574255498851,4076032.0
1574255498895,4065928.0
1574255498951,4034027.0
1574255498991,4036396.0
1574255499042,4063510.0
1574255499090,4085239.0
1574255499141,4097328.0
1574255499189,4040086.0
1574255499239,3992175.0
1574255499290,3987350.0
1574255499340,4029336.0
1574255499389,4132947.0
1574255499438,4147636.0
1574255499489,4130539.0
1574255499538,4127447.0
1574255499590,4142829.0
1574255499636,4079124.0
1574255499691,4041260.0
1574255499735,4051403.0
1574255499786,4071062.0
1574255499833,4086078.0
1574255499884,4093360.0
1574255499933,4082551.0
1574255499982,4070465.0
1574255500029,4116784.0
1574255500081,4145180.0
1574255500131,4198830.0
1574255500180,4227023.0
1574255500230,4284747.0
1574255500278,4370895.0
1574255500330,4394002.0
1574255500377,4428860.0
1574255500430,4425557.0
1574255500476,4379198.0
1574255500527,4389686.0
1574255500574,4442404.0
1574255500625,4448201.0
1574255500673,4464883.0
1574255500723,4432810.0
1574255500772,4426800.0
1574255500822,4439312.0
1574255500873,4459635.0
1574255500921,4534794.0
1574255500972,4620556.0
1574255501019,4652283.0
1574255501071,4777549.0
1574255501118,4772685.0
1574255501171,4773743.0
1574255501217,4767337.0
1574255501267,4736477.0
1574255501313,4744655.0
1574255501364,4672290.0
1574255501412,4679446.0
1574255501462,4724794.0
1574255501513,4757455.0
1574255501563,4769747.0
1574255501613,4802147.0
1574255501662,4789589.0
1574255501711,4781679.0
1574255501760,4835147.0
1574255501811,4890146.0
1574255501859,4878577.0
1574255501912,4906867.0
1574255501958,4920679.0
1574255502012,4875794.0
1574255502056,4851955.0
1574255502107,4843430.0
1574255502155,4883644.0
1574255502206,4931043.0
1574255502254,4940887.0
1574255502306,4978586.0
1574255502352,4937025.0
1574255502404,4969283.0
1574255502452,4952610.0
1574255502503,4947764.0
1574255502552,4997967.0
1574255502600,5029924.0
1574255502650,4974860.0
1574255502700,4957618.0
1574255502751,4946685.0
1574255502800,4899642.0
1574255502851,4843546.0
1574255502898,4903996.0
1574255502951,4891320.0
1574255502997,4911827.0
1574255503049,4901888.0
1574255503096,4871576.0
1574255503146,4856598.0
1574255503195,4795416.0
1574255503246,4882190.0
1574255503294,4898950.0
1574255503345,4867011.0
1574255503393,4794567.0
1574255503443,4763148.0
1574255503493,4755673.0
1574255503542,4685746.0
1574255503590,4610405.0
1574255503641,4604239.0
1574255503691,4597294.0
1574255503739,4589021.0
1574255503791,4605915.0
1574255503838,4629205.0
1574255503889,4640398.0
1574255503937,4621635.0
1574255503988,4626779.0
1574255504036,4649057.0
1574255504086,4645589.0
1574255504134,4607861.0
1574255504185,4566617.0
1574255504234,4562013.0
1574255504284,4509297.0
1574255504333,4401997.0
1574255504383,4486682.0
1574255504430,4495869.0
1574255504481,4538617.0
1574255504532,4516666.0
1574255504579,4497383.0
1574255504630,4468179.0
1574255504678,4478100.0
1574255504727,4492403.0
1574255504777,4539282.0
1574255504827,4550465.0
1574255504875,4536720.0
1574255504926,4499992.0
1574255504974,4517514.0
1574255505026,4468063.0
1574255505074,4401824.0
1574255505124,4373670.0
1574255505171,4460655.0
1574255505220,4473053.0
1574255505272,4449722.0
1574255505321,4418159.0
1574255505372,4338629.0
1574255505419,4276445.0
1574255505469,4268015.0
1574255505516,4375220.0
1574255505569,4419864.0
1574255505617,4416473.0
1574255505668,4406660.0
1574255505716,4397354.0
1574255505766,4384410.0
1574255505815,4380123.0
1574255505865,4329382.0
1574255505916,4333417.0
1574255505963,4411784.0
1574255506015,4383301.0
1574255506062,4341113.0
1574255506114,4241980.0
1574255506160,4203146.0
1574255506210,4208481.0
1574255506259,4242964.0
1574255506309,4405195.0
1574255506357,4479900.0
1574255506409,4474449.0
1574255506457,4438599.0
1574255506508,4391988.0
1574255506555,4365482.0
1574255506606,4365791.0
1574255506657,4326156.0
1574255506705,4368690.0
1574255506754,4470857.0
1574255506803,4464018.0
1574255506854,4490400.0
1574255506902,4471982.0
1574255506952,4496843.0
1574255506999,4550127.0
1574255507051,4567407.0
1574255507099,4708496.0
1574255507150,4741264.0
1574255507198,4739521.0
1574255507249,4751609.0
1574255507297,4764409.0
1574255507346,4762435.0
1574255507396,4738913.0
1574255507446,4699365.0
1574255507493,4691766.0
1574255507545,4690291.0
1574255507594,4708024.0
1574255507643,4729986.0
1574255507695,4707947.0
1574255507742,4720633.0
1574255507792,4720603.0
1574255507840,4648884.0
1574255507890,4653931.0
1574255507939,4532597.0
1574255507990,4473313.0
1574255508038,4470779.0
1574255508088,4475103.0
1574255508137,4481336.0
1574255508187,4452565.0
1574255508236,4416117.0
1574255508286,4384670.0
1574255508336,4379554.0
1574255508385,4407757.0
1574255508436,4439389.0
1574255508483,4459674.0
1574255508532,4476058.0
1574255508579,4454107.0
1574255508630,4552342.0
1574255508680,4543530.0
1574255508731,4460539.0
1574255508779,4434976.0
1574255508829,4438704.0
1574255508878,4481499.0
1574255508929,4496987.0
1574255508977,4485853.0
1574255509027,4459499.0
1574255509075,4514257.0
1574255509126,4580014.0
1574255509176,4623697.0
1574255509224,4590754.0
1574255509272,4595273.0
1574255509321,4546149.0
1574255509371,4526529.0
1574255509421,4617090.0
1574255509470,4627665.0
1574255509517,4582211.0
1574255509567,4629707.0
1574255509619,4678763.0
1574255509669,4723147.0
1574255509720,4670748.0
1574255509768,4614412.0
1574255509821,4607514.0
1574255509867,4630670.0
1574255509918,4665392.0
1574255509967,4747438.0
1574255510019,4777961.0
1574255510064,4810932.0
1574255510113,4850704.0
1574255510163,4703737.0
1574255510212,4669255.0
1574255510262,4608747.0
1574255510311,4536102.0
1574255510361,4555367.0
1574255510410,4549818.0
1574255510459,4526019.0
1574255510509,4506985.0
1574255510557,4483783.0
1574255510608,4475363.0
1574255510659,4514653.0
1574255510706,4567822.0
1574255510759,4581827.0
1574255510806,4572936.0
1574255510854,4572946.0
1574255510904,4572598.0
1574255510953,4625911.0
1574255511002,4671827.0
1574255511052,4770314.0
1574255511101,4927557.0
1574255511151,4942506.0
1574255511200,4949662.0
1574255511250,4974898.0
1574255511299,4895607.0
1574255511349,4901087.0
1574255511397,4851714.0
1574255511449,4856250.0
1574255511498,4898584.0
1574255511547,4978143.0
1574255511598,5060853.0
1574255511645,5054622.0
1574255511694,4931476.0
1574255511745,4940107.0
1574255511793,4897871.0
1574255511843,4946647.0
1574255511892,4937189.0
1574255511941,4919860.0
1574255511991,4919235.0
1574255512038,4860190.0
1574255512091,4882113.0
1574255512139,4875920.0
1574255512189,4903543.0
1574255512238,4925947.0
1574255512289,4919600.0
1574255512338,4928654.0
1574255512392,4946184.0
1574255512444,4910132.0
1574255512491,4934385.0
1574255512540,4932699.0
1574255512587,4951271.0
1574255512638,4921392.0
1574255512688,4927662.0
1574255512738,4922770.0
1574255512787,4890829.0
1574255512836,4845954.0
1574255512886,4908765.0
1574255512932,4908948.0
1574255512984,4901453.0
1574255513035,4876932.0
1574255513082,4868417.0
1574255513135,4869091.0
1574255513183,4887747.0
1574255513233,5000076.0
1574255513283,5093274.0
1574255513332,5199024.0
1574255513375,5193764.0
1574255513431,5224019.0
1574255513478,5224838.0
1574255513530,5177756.0
1574255513578,5105082.0
1574255513623,5138883.0
1574255513676,5124502.0
1574255513726,5163203.0
1574255513775,5170389.0
1574255513821,5155833.0
1574255513874,5154178.0
1574255513921,5138728.0
1574255513973,5095210.0
1574255514025,5140721.0
1574255514073,5160813.0
1574255514120,5188601.0
1574255514171,5188748.0
1574255514216,5209301.0
1574255514263,5207771.0
1574255514318,5165427.0
1574255514365,5077016.0
1574255514413,5087774.0
1574255514463,5091445.0
1574255514512,5124221.0
1574255514562,5148495.0
1574255514616,5150537.0
1574255514665,5176909.0
1574255514715,5166573.0
1574255514767,5142158.0
1574255514814,5218635.0
1574255514867,5231581.0
1574255514913,5274934.0
1574255514961,5276716.0
1574255515010,5290296.0
1574255515060,5299447.0
1574255515111,5214080.0
1574255515159,5152579.0
1574255515212,5138208.0
1574255515257,5142109.0
1574255515307,5215717.0
1574255515356,5248753.0
1574255515401,5210447.0
1574255515451,5209331.0
1574255515502,5196838.0
1574255515555,5181446.0
1574255515608,5202184.0
1574255515654,5213866.0
1574255515704,5192214.0
1574255515753,5174578.0
1574255515801,5152973.0
1574255515853,5117421.0
1574255515900,4981621.0
1574255515950,4994748.0
1574255515999,4990762.0
1574255516051,4949286.0
1574255516098,4890522.0
1574255516149,4748440.0
1574255516191,4689694.0
1574255516244,4655260.0
1574255516291,4732066.0
1574255516343,4809555.0
1574255516390,4824118.0
1574255516448,4774186.0
1574255516494,4792496.0
1574255516543,4786110.0
1574255516593,4781901.0
1574255516643,4658525.0
1574255516691,4700011.0
1574255516741,4763457.0
1574255516788,4759738.0
1574255516839,4773800.0
1574255516891,4724457.0
1574255516938,4703959.0
1574255516987,4730591.0
1574255517037,4753430.0
1574255517085,4900490.0
1574255517137,4975995.0
1574255517189,4895288.0
1574255517236,4839964.0
1574255517288,4775515.0
1574255517335,4781295.0
1574255517377,4725054.0
1574255517429,4680756.0
1574255517482,4704258.0
1574255517533,4742940.0
1574255517581,4676614.0
1574255517628,4641054.0
1574255517679,4634331.0
1574255517731,4633886.0
1574255517779,4642913.0
1574255517831,4700753.0
1574255517878,4843085.0
1574255517925,4820083.0
1574255517978,4770864.0
1574255518028,4745561.0
1574255518076,4740985.0
1574255518129,4759594.0
1574255518176,4715932.0
1574255518226,4718177.0
1574255518275,4744886.0
1574255518324,4759218.0
1574255518374,4793864.0
1574255518423,4821363.0
1574255518473,4806578.0
1574255518523,4821508.0
1574255518572,4767674.0
1574255518621,4809748.0
1574255518672,4814959.0
1574255518720,4740244.0
1574255518768,4681238.0
1574255518819,4665933.0
1574255518870,4679803.0
1574255518919,4662225.0
1574255518969,4584976.0
1574255519018,4526915.0
1574255519068,4526106.0
1574255519116,4534206.0
1574255519171,4577212.0
1574255519216,4664102.0
1574255519266,4656398.0
1574255519312,4651879.0
1574255519365,4571751.0
1574255519415,4625574.0
1574255519458,4538038.0
1574255519512,4452719.0
1574255519563,4457488.0
1574255519610,4486981.0
1574255519656,4468882.0
1574255519709,4376598.0
1574255519756,4325865.0
1574255519807,4330922.0
1574255519859,4317149.0
1574255519909,4333976.0
1574255519958,4350553.0
1574255520038,4371358.0
1574255520050,4322881.0
1574255520099,4290555.0
1574255520149,4266648.0
1574255520205,4255380.0
1574255520256,4168586.0
1574255520304,4144871.0
1574255520355,4138032.0
1574255520403,4113375.0
1574255520449,4053424.0
1574255520502,3995883.0
1574255520547,4003484.0
1574255520597,4071330.0
1574255520649,4066265.0
1574255520700,4073835.0
1574255520747,3995700.0
1574255520799,3966602.0
1574255520846,3977862.0
1574255520899,4028767.0
1574255520946,4162352.0
1574255520991,4230702.0
1574255521041,4242665.0
1574255521096,4243368.0
1574255521147,4316830.0
1574255521196,4338041.0
1574255521241,4296537.0
1574255521291,4292211.0
1574255521341,4417832.0
1574255521389,4412747.0
1574255521443,4412023.0
1574255521489,4427830.0
1574255521542,4392096.0
1574255521591,4382801.0
1574255521641,4391285.0
1574255521687,4458160.0
1574255521739,4558699.0
1574255521791,4605165.0
1574255521838,4602246.0
1574255521884,4607717.0
1574255521937,4691197.0
1574255521987,4709961.0
1574255522036,4624814.0
1574255522086,4634985.0
1574255522134,4678666.0
1574255522185,4652178.0
1574255522233,4686604.0
1574255522283,4717714.0
1574255522335,4724254.0
1574255522384,4722068.0
1574255522435,4677762.0
1574255522481,4791899.0
1574255522535,4865468.0
1574255522574,4891591.0
1574255522631,4887208.0
1574255522679,4872732.0
1574255522728,4879888.0
1574255522776,4843113.0
1574255522826,4801513.0
1574255522870,4819533.0
1574255522925,4850251.0
1574255522971,4855614.0
1574255523024,4954882.0
1574255523075,4965613.0
1574255523123,4942862.0
1574255523171,4916392.0
1574255523218,4897389.0
1574255523276,5004613.0
1574255523321,5026988.0
1574255523375,5045481.0
1574255523420,5040646.0
1574255523465,5058783.0
1574255523518,5058165.0
1574255523570,4984521.0
1574255523611,4901445.0
1574255523667,4892428.0
1574255523715,4958110.0
1574255523766,5038449.0
1574255523810,5036562.0
1574255523864,5059159.0
1574255523913,5052781.0
1574255523964,4983625.0
1574255524016,4991435.0
1574255524062,5014987.0
1574255524116,5043390.0
1574255524162,5022086.0
1574255524215,5001569.0
1574255524255,5020765.0
1574255524304,4947427.0
1574255524353,4880369.0
1574255524405,4873984.0
1574255524452,4845289.0
1574255524503,4840791.0
1574255524550,4836226.0
1574255524605,4803632.0
1574255524650,4752457.0
1574255524703,4701994.0
1574255524756,4693894.0
1574255524802,4727019.0
1574255524859,4676163.0
1574255524901,4599405.0
1574255524955,4568072.0
1574255524996,4481038.0
1574255525044,4421445.0
1574255525092,4365608.0
1574255525144,4325971.0
1574255525191,4371260.0
1574255525242,4386076.0
1574255525290,4351467.0
1574255525340,4289477.0
1574255525390,4265772.0
1574255525445,4270646.0
1574255525491,4260349.0
1574255525544,4322706.0
1574255525595,4348828.0
1574255525643,4324536.0
1574255525696,4242578.0
1574255525737,4180173.0
1574255525792,4171485.0
1574255525840,4166784.0
1574255525890,4122882.0
1574255525939,4150786.0
1574255525990,4166217.0
1574255526039,4247539.0
1574255526089,4278304.0
1574255526137,4299599.0
1574255526187,4328061.0
1574255526234,4360224.0
1574255526285,4379487.0
1574255526336,4408220.0
1574255526385,4464394.0
1574255526435,4505984.0
1574255526482,4448509.0
1574255526536,4410666.0
1574255526581,4421540.0
1574255526627,4384034.0
1574255526681,4304280.0
1574255526731,4302787.0
1574255526779,4279728.0
1574255526829,4229189.0
1574255526878,4252239.0
1574255526928,4272062.0
1574255526977,4269452.0
1574255527023,4277774.0
1574255527072,4278775.0
1574255527125,4332387.0
1574255527176,4314298.0
1574255527223,4252123.0
1574255527275,4213095.0
1574255527322,4200651.0
1574255527373,4208384.0
1574255527421,4183139.0
1574255527471,4149774.0
1574255527521,4139891.0
1574255527571,4166899.0
1574255527615,4187503.0
1574255527670,4223959.0
1574255527719,4245987.0
1574255527770,4297518.0
1574255527817,4303461.0
1574255527868,4368698.0
1574255527915,4457130.0
1574255527966,4517822.0
1574255528018,4534129.0
1574255528065,4547055.0
1574255528112,4567186.0
1574255528163,4549569.0
1574255528213,4488925.0
1574255528260,4502873.0
1574255528311,4561560.0
1574255528362,4576770.0
1574255528410,4636218.0
1574255528455,4612417.0
1574255528511,4562427.0
1574255528554,4483561.0
1574255528610,4529958.0
1574255528654,4628484.0
1574255528709,4579553.0
1574255528758,4659084.0
1574255528807,4848266.0
1574255528859,4886456.0
1574255528905,4891580.0
1574255528959,4888856.0
1574255529003,4877238.0
1574255529054,4787632.0
1574255529104,4808466.0
1574255529154,4841610.0
1574255529203,4882661.0
1574255529252,4837757.0
1574255529301,4843075.0
1574255529351,4831160.0
1574255529395,4789656.0
1574255529452,4877114.0
1574255529497,4748767.0
1574255529550,4838692.0
1574255529591,4980561.0
1574255529643,4978480.0
1574255529692,4936736.0
1574255529743,4863571.0
1574255529794,4838798.0
1574255529841,4824716.0
1574255529891,4814439.0
1574255529943,4804219.0
1574255529993,4774861.0
1574255530043,4729715.0
1574255530093,4711791.0
1574255530142,4700791.0
1574255530192,4721836.0
1574255530240,4797082.0
1574255530291,4833056.0
1574255530333,4934694.0
1574255530393,4965737.0
1574255530435,5016084.0
1574255530489,5029800.0
1574255530537,5001492.0
1574255530587,4960219.0
1574255530638,4914564.0
1574255530685,4918820.0
1574255530734,4940387.0
1574255530784,4986977.0
1574255530830,4983239.0
1574255530883,4982718.0
1574255530933,4987505.0
1574255530982,4931957.0
1574255531031,4966018.0
1574255531078,4961934.0
1574255531131,4931399.0
1574255531174,4938430.0
1574255531231,4935897.0
1574255531277,4968482.0
1574255531325,4889510.0
1574255531375,4831642.0
1574255531424,4888393.0
1574255531473,4852156.0
1574255531519,4861163.0
1574255531576,4853428.0
1574255531620,4838633.0
1574255531675,4822857.0
1574255531724,4748450.0
1574255531773,4774948.0
1574255531823,4793933.0
1574255531874,4736544.0
1574255531922,4672434.0
1574255531973,4657129.0
1574255532014,4660443.0
1574255532072,4600878.0
1574255532118,4457949.0
1574255532171,4470857.0
1574255532219,4494193.0
1574255532269,4481836.0
1574255532320,4515289.0
1574255532366,4571769.0
1574255532411,4591429.0
1574255532460,4614912.0
1574255532515,4589783.0
1574255532564,4636834.0
1574255532614,4642218.0
1574255532663,4598144.0
1574255532713,4576499.0
1574255532760,4462313.0
1574255532812,4345882.0
1574255532858,4271252.0
1574255532911,4236259.0
1574255532961,4288310.0
1574255533011,4333108.0
1574255533061,4300080.0
1574255533102,4232165.0
1574255533152,4218940.0
1574255533207,4222581.0
1574255533256,4228892.0
1574255533301,4270029.0
1574255533354,4309473.0
1574255533401,4292221.0
1574255533454,4244427.0
1574255533501,4191067.0
1574255533553,4147837.0
1574255533598,4139786.0
1574255533647,4106845.0
1574255533699,4089189.0
1574255533752,4076302.0
1574255533800,4056537.0
1574255533853,4069250.0
1574255533900,4073480.0
1574255533949,4090191.0
1574255533997,4093041.0
1574255534047,4103212.0
1574255534097,4136791.0
1574255534146,4113645.0
1574255534197,4027428.0
1574255534245,3962057.0
1574255534294,3949486.0
1574255534344,3960862.0
1574255534388,3954852.0
1574255534439,3938419.0
1574255534489,3892918.0
1574255534538,3852166.0
1574255534588,3831350.0
1574255534641,3875533.0
1574255534686,3920581.0
1574255534742,3981234.0
1574255534789,3987147.0
1574255534837,4030531.0
1574255534888,4020291.0
1574255534937,3928441.0
1574255534986,3881360.0
1574255535036,3895990.0
1574255535086,3901557.0
1574255535135,3897301.0
1574255535184,3853031.0
1574255535235,3826996.0
1574255535277,3837198.0
1574255535334,3830156.0
1574255535381,3867836.0
1574255535434,3930945.0
1574255535482,3998811.0
1574255535531,4021225.0
1574255535581,3981696.0
1574255535626,3967902.0
1574255535678,3905334.0
1574255535729,3887563.0
1574255535777,3891376.0
1574255535828,3893361.0
1574255535876,3896925.0
1574255535926,3827661.0
1574255535972,3813416.0
1574255536025,3846607.0
1574255536075,3876774.0
1574255536122,3927332.0
1574255536175,3999939.0
1574255536220,4056864.0
1574255536274,4031869.0
1574255536324,4106315.0
1574255536373,4175355.0
1574255536419,4164165.0
1574255536466,4152923.0
1574255536518,4177235.0
1574255536570,4186819.0
1574255536617,4153116.0
1574255536669,4054397.0
1574255536718,4083246.0
1574255536769,4112335.0
1574255536816,4087165.0
1574255536868,4114761.0
1574255536916,4136829.0
1574255536967,4123152.0
1574255537016,4071562.0
1574255537060,4127553.0
1574255537114,4133688.0
1574255537165,4059802.0
1574255537214,4050921.0
1574255537261,4050005.0
1574255537313,4053532.0
1574255537367,4017960.0
1574255537411,3981165.0
1574255537460,3992860.0
1574255537509,4016091.0
1574255537558,4008299.0
1574255537609,4031388.0
1574255537657,3999534.0
1574255537708,3975214.0
1574255537756,3964580.0
1574255537801,4072295.0
1574255537857,4141472.0
1574255537904,4131368.0
1574255537955,4128353.0
1574255538001,4123536.0
1574255538054,4091028.0
1574255538106,4083949.0
1574255538154,4023373.0
1574255538208,4071379.0
1574255538252,4132542.0
1574255538301,4164703.0
1574255538351,4196614.0
1574255538402,4234776.0
1574255538450,4254531.0
1574255538498,4302673.0
1574255538546,4312303.0
1574255538597,4382175.0
1574255538648,4416936.0
1574255538697,4370887.0
1574255538748,4413324.0
1574255538796,4429689.0
1574255538844,4425912.0
1574255538897,4373573.0
1574255538942,4409549.0
1574255538996,4459481.0
1574255539046,4431943.0
1574255539095,4428842.0
1574255539144,4440360.0
1574255539192,4411562.0
1574255539241,4417909.0
1574255539292,4437587.0
1574255539341,4548557.0
1574255539390,4587432.0
1574255539439,4577789.0
1574255539490,4566213.0
1574255539537,4572348.0
1574255539589,4593288.0
1574255539635,4529611.0
1574255539689,4533762.0
1574255539736,4620432.0
1574255539780,4603757.0
1574255539836,4638405.0
1574255539882,4692815.0
1574255539928,4630467.0
1574255539981,4641631.0
1574255540030,4583801.0
1574255540079,4665923.0
1574255540129,4626133.0
1574255540182,4595195.0
1574255540231,4606157.0
1574255540280,4639079.0
1574255540330,4665557.0
1574255540379,4624727.0
1574255540427,4597266.0
1574255540478,4648084.0
1574255540529,4618244.0
1574255540578,4648007.0
1574255540624,4697303.0
1574255540678,4669226.0
1574255540725,4627915.0
1574255540775,4663486.0
1574255540827,4738625.0
1574255540875,4710298.0
1574255540923,4702543.0
1574255540973,4681990.0
1574255541023,4740156.0
1574255541071,4739000.0
1574255541121,4672414.0
1574255541171,4597497.0
1574255541214,4593867.0
1574255541266,4549087.0
1574255541312,4578003.0
1574255541366,4563303.0
1574255541419,4574756.0
1574255541468,4565298.0
1574255541517,4548595.0
1574255541568,4634321.0
1574255541617,4679235.0
1574255541670,4711125.0
1574255541715,4712571.0
1574255541770,4696023.0
1574255541815,4701234.0
1574255541864,4625633.0
1574255541914,4550637.0
1574255541964,4604336.0
1574255542013,4653190.0
1574255542064,4663100.0
1574255542113,4709286.0
1574255542162,4692266.0
1574255542211,4639676.0
1574255542261,4650589.0
1574255542306,4709152.0
1574255542355,4798882.0
1574255542409,4839269.0
1574255542459,4875312.0
1574255542506,4868792.0
1574255542557,4891830.0
1574255542608,4869390.0
1574255542656,4805875.0
1574255542715,4819427.0
1574255542749,4850895.0
1574255542801,4849200.0
1574255542851,4853235.0
1574255542900,4787748.0
1574255542948,4701003.0
1574255543003,4627096.0
1574255543047,4605289.0
1574255543102,4707716.0
1574255543152,4701734.0
1574255543202,4695253.0
1574255543246,4597863.0
1574255543300,4498614.0
1574255543347,4455281.0
1574255543398,4373004.0
1574255543448,4396747.0
1574255543498,4384024.0
1574255543546,4346150.0
1574255543596,4275557.0
1574255543643,4238821.0
1574255543696,4287540.0
1574255543745,4314489.0
1574255543795,4245284.0
1574255543844,4285691.0
1574255543895,4250812.0
1574255543943,4223449.0
1574255543994,4217092.0
1574255544041,4174019.0
1574255544087,4196230.0
1574255544134,4148551.0
1574255544186,4142242.0
1574255544235,4208875.0
1574255544288,4139170.0
1574255544333,4085875.0
1574255544386,4104070.0
1574255544433,4124460.0
1574255544490,4155129.0
1574255544536,4138014.0
1574255544587,4212583.0
1574255544630,4179815.0
1574255544686,4067844.0
1574255544734,4040403.0
1574255544783,4047386.0
1574255544834,4082350.0
1574255544883,4069636.0
1574255544930,4036973.0
1574255544977,4056421.0
1574255545030,4038822.0
1574255545077,4009648.0
1574255545129,4010004.0
1574255545176,4023942.0
1574255545229,4028873.0
1574255545279,4005825.0
1574255545327,4217872.0
1574255545377,4288552.0
1574255545429,4183785.0
1574255545477,4180721.0
1574255545527,4178883.0
1574255545576,4200005.0
1574255545620,4205765.0
1574255545675,4148494.0
1574255545724,4038274.0
1574255545769,3997704.0
1574255545823,3983006.0
1574255545872,3997281.0
1574255545922,4021514.0
1574255545971,4031800.0
1574255546020,3989286.0
1574255546072,4082330.0
1574255546120,4067604.0
1574255546171,3990779.0
1574255546214,4013413.0
1574255546271,3999284.0
1574255546316,4001731.0
1574255546369,4000883.0
1574255546411,3935095.0
1574255546467,3893640.0
1574255546512,3898148.0
1574255546565,3946355.0
1574255546610,3974357.0
1574255546664,4005987.0
1574255546714,4013145.0
1574255546763,3988284.0
1574255546816,4073797.0
1574255546862,4136183.0
1574255546915,4118334.0
1574255546962,4106979.0
1574255547015,4163827.0
1574255547060,4205072.0
1574255547114,4199994.0
1574255547158,4111351.0
1574255547211,4129172.0
1574255547258,4175664.0
1574255547308,4213229.0
1574255547356,4273930.0
1574255547408,4309319.0
1574255547456,4307025.0
1574255547501,4311062.0
1574255547549,4308047.0
1574255547604,4324864.0
1574255547651,4299542.0
1574255547704,4279651.0
1574255547750,4260648.0
1574255547797,4251536.0
1574255547855,4212140.0
1574255547902,4138465.0
1574255547956,4150660.0
1574255548001,4184911.0
1574255548051,4219808.0
1574255548099,4282550.0
1574255548149,4278410.0
1574255548197,4240016.0
1574255548248,4210464.0
1574255548297,4244967.0
1574255548346,4277890.0
1574255548394,4320424.0
1574255548441,4374564.0
1574255548494,4386037.0
1574255548544,4351863.0
1574255548589,4318555.0
1574255548642,4287559.0
1574255548688,4235219.0
1574255548743,4241836.0
1574255548791,4297567.0
1574255548840,4289024.0
1574255548895,4319075.0
1574255548939,4352999.0
1574255548990,4387096.0
1574255549039,4366224.0
1574255549090,4320954.0
1574255549137,4320154.0
1574255549188,4347885.0
1574255549237,4455243.0
1574255549287,4500311.0
1574255549336,4514442.0
1574255549386,4521752.0
1574255549431,4451023.0
1574255549485,4439726.0
1574255549528,4456340.0
1574255549584,4476038.0
1574255549630,4473725.0
1574255549684,4473967.0
1574255549735,4486316.0
1574255549782,4472358.0
1574255549836,4486826.0
1574255549881,4537472.0
1574255549930,4543250.0
1574255549980,4484764.0
1574255550028,4450667.0
1574255550078,4444706.0
1574255550124,4442634.0
1574255550171,4422985.0
1574255550224,4534467.0
1574255550272,4570057.0
1574255550323,4565520.0
1574255550370,4582664.0
1574255550427,4555146.0
1574255550472,4559240.0
1574255550518,4563323.0
1574255550570,4604143.0
1574255550616,4677829.0
1574255550671,4691015.0
1574255550722,4794721.0
1574255550771,4993564.0
1574255550820,5060998.0
1574255550869,5115737.0
1574255550919,5154399.0
1574255550972,5038218.0
1574255551012,4989905.0
1574255551069,5027372.0
1574255551118,5115245.0
1574255551168,5172045.0
1574255551217,5189469.0
1574255551267,5214301.0
1574255551310,5095730.0
1574255551367,5101019.0
1574255551415,5040481.0
1574255551465,5014948.0
1574255551516,5019686.0
1574255551564,5038671.0
1574255551617,5027228.0
1574255551663,4993641.0
1574255551713,4993661.0
1574255551762,4925708.0
1574255551812,4884386.0
1574255551861,4930253.0
1574255551910,4969571.0
1574255551959,4982304.0
1574255552009,4942774.0
1574255552058,4912973.0
1574255552109,4970871.0
1574255552153,4934761.0
1574255552208,4902609.0
1574255552253,4891099.0
1574255552307,4873520.0
1574255552357,4863648.0
1574255552405,4799085.0
1574255552453,4771230.0
1574255552504,4762628.0
1574255552558,4782248.0
1574255552599,4802677.0
1574255552653,4811973.0
1574255552702,4810451.0
1574255552752,4747343.0
1574255552801,4683568.0
1574255552852,4786690.0
1574255552900,4842611.0
1574255552950,4812060.0
1574255552999,4806877.0
1574255553049,4851453.0
1574255553092,4863156.0
1574255553149,4814159.0
1574255553195,4692882.0
1574255553246,4733964.0
1574255553295,4799953.0
1574255553345,4815825.0
1574255553396,4824860.0
1574255553444,4820709.0
1574255553489,4810999.0
1574255553542,4835301.0
1574255553593,4897842.0
1574255553635,4994488.0
1574255553691,5018906.0
1574255553736,5016846.0
1574255553792,5035213.0
1574255553835,5093245.0
1574255553887,5089826.0
1574255553937,5001723.0
1574255553989,5011480.0
1574255554035,5093410.0
1574255554089,5082871.0
1574255554138,5023433.0
1574255554181,5003948.0
1574255554232,4945086.0
1574255554280,4943238.0
1574255554330,4913647.0
1574255554380,5026072.0
1574255554430,5071681.0
1574255554483,5045443.0
1574255554533,5062944.0
1574255554582,5089229.0
1574255554631,5116661.0
1574255554681,5081736.0
1574255554731,5057001.0
1574255554773,5118539.0
1574255554831,5145490.0
1574255554875,5163337.0
1574255554929,5138834.0
1574255554978,5113435.0
1574255555027,5129587.0
1574255555079,5166902.0
1574255555126,5143795.0
1574255555171,5171015.0
1574255555218,5200180.0
1574255555271,5272939.0
1574255555320,5285713.0
1574255555370,5308982.0
1574255555419,5298657.0
1574255555472,5216670.0
1574255555521,5179857.0
1574255555572,5215331.0
1574255555616,5210467.0
1574255555670,5246616.0
1574255555713,5245200.0
1574255555771,5233219.0
1574255555814,5250872.0
1574255555869,5172449.0
1574255555917,5256179.0
1574255555968,5281444.0
1574255556018,5321110.0
1574255556066,5315167.0
1574255556115,5290095.0
1574255556165,5291192.0
1574255556214,5265428.0
1574255556264,5209658.0
1574255556314,5181003.0
1574255556362,5219588.0
1574255556414,5185722.0
1574255556457,5236154.0
1574255556513,5243495.0
1574255556557,5209504.0
1574255556607,5186232.0
1574255556656,5174501.0
1574255556706,5227776.0
1574255556758,5256604.0
1574255556805,5278035.0
