time,value
1577104031695,4653628.0
1577104031749,4656741.0
1577104031782,4658730.0
1577104031835,4657816.0
1577104031883,4660337.0
1577104031932,4670945.0
1577104031986,4691248.0
1577104032027,4716672.0
1577104032080,4722267.0
1577104032127,4730814.0
1577104032176,4725827.0
1577104032226,4742867.0
1577104032278,4780279.0
1577104032324,4822599.0
1577104032377,4855446.0
1577104032426,4879140.0
1577104032474,4903765.0
1577104032521,4902078.0
1577104032573,4897802.0
1577104032619,4846120.0
1577104032670,4747548.0
1577104032717,4732895.0
1577104032761,4739468.0
1577104032812,4738391.0
1577104032863,4718195.0
1577104032911,4710385.0
1577104032959,4703345.0
1577104033008,4689617.0
1577104033060,4699426.0
1577104033111,4698207.0
1577104033153,4699901.0
1577104033209,4710367.0
1577104033256,4710393.0
1577104033307,4720402.0
1577104033355,4719837.0
1577104033407,4739584.0
1577104033453,4765572.0
1577104033496,4777006.0
1577104033547,4789894.0
1577104033594,4807497.0
1577104033647,4813720.0
1577104033698,4816239.0
1577104033744,4815622.0
1577104033789,4809155.0
1577104033847,4820949.0
1577104033895,4866531.0
1577104033942,4913584.0
1577104033987,4922382.0
1577104034040,4948217.0
1577104034094,4977568.0
1577104034138,5002849.0
1577104034184,5011163.0
1577104034232,4985559.0
1577104034292,4945089.0
1577104034335,4906321.0
1577104034385,4890215.0
1577104034433,4873022.0
1577104034483,4851017.0
1577104034529,4861472.0
1577104034579,4859060.0
1577104034623,4865473.0
1577104034678,4857563.0
1577104034728,4843717.0
1577104034778,4807623.0
1577104034817,4796322.0
1577104034870,4821441.0
1577104034918,4810546.0
1577104034968,4820122.0
1577104035013,4850935.0
1577104035066,4862864.0
1577104035118,4898017.0
1577104035165,4924454.0
1577104035224,4932030.0
1577104035278,4958728.0
1577104035362,4914490.0
1577104035363,4915216.0
1577104035451,4771508.0
1577104035472,4783400.0
1577104035506,4786421.0
1577104035552,4760246.0
1577104035605,4755474.0
1577104035653,4715676.0
1577104035706,4726993.0
1577104035751,4711533.0
1577104035800,4743127.0
1577104035850,4772244.0
1577104035899,4788163.0
1577104035947,4798447.0
1577104035996,4798466.0
1577104036046,4822141.0
1577104036094,4753214.0
1577104036145,4832069.0
1577104036191,4893281.0
1577104036241,4929771.0
1577104036291,4933052.0
1577104036340,4966422.0
1577104036390,4974770.0
1577104036437,4981164.0
1577104036492,4987910.0
1577104036538,4990203.0
1577104036591,4993397.0
1577104036636,4997012.0
1577104036684,4992294.0
1577104036735,4992967.0
1577104036784,4991622.0
1577104036833,4980313.0
1577104036882,4975219.0
1577104036928,4954666.0
1577104036982,4853851.0
1577104037031,4786045.0
1577104037077,4702852.0
1577104037126,4650256.0
1577104037175,4584236.0
1577104037223,4545271.0
1577104037269,4515453.0
1577104037323,4481403.0
1577104037371,4503419.0
1577104037420,4445998.0
1577104037468,4439381.0
1577104037518,4437337.0
1577104037571,4426370.0
1577104037617,4425329.0
1577104037667,4433570.0
1577104037716,4448814.0
1577104037764,4432753.0
1577104037815,4436224.0
1577104037862,4430010.0
1577104037909,4423633.0
1577104037956,4424728.0
1577104038013,4420738.0
1577104038058,4418952.0
1577104038109,4415473.0
1577104038152,4395708.0
1577104038205,4370698.0
1577104038255,4344476.0
1577104038303,4324451.0
1577104038347,4309699.0
1577104038400,4286033.0
1577104038451,4274070.0
1577104038499,4262054.0
1577104038548,4248988.0
1577104038597,4242001.0
1577104038647,4232155.0
1577104038693,4232701.0
1577104038744,4232092.0
1577104038791,4225420.0
1577104038843,4213241.0
1577104038893,4206372.0
1577104038939,4209781.0
1577104038992,4204885.0
1577104039038,4202642.0
1577104039087,4195541.0
1577104039136,4201136.0
1577104039184,4201925.0
1577104039231,4203154.0
1577104039284,4221807.0
1577104039332,4216874.0
1577104039373,4252934.0
1577104039433,4255166.0
1577104039479,4255355.0
1577104039528,4222291.0
1577104039577,4213898.0
1577104039621,4202723.0
1577104039669,4225501.0
1577104039723,4294749.0
1577104039775,4329474.0
1577104039821,4338592.0
1577104039875,4335319.0
1577104039919,4315062.0
1577104039969,4313681.0
1577104040013,4301539.0
1577104040066,4276581.0
1577104040110,4257239.0
1577104040158,4242736.0
1577104040211,4227626.0
1577104040261,4170995.0
1577104040315,4130068.0
1577104040359,4094392.0
1577104040410,4054513.0
1577104040450,4017980.0
1577104040500,3992387.0
1577104040549,3963394.0
1577104040599,3980395.0
1577104040650,3975527.0
1577104040699,3951762.0
1577104040752,3941485.0
1577104040796,3926186.0
1577104040845,3907919.0
1577104040896,3884952.0
1577104040948,3871536.0
1577104040993,3859126.0
1577104041045,3847944.0
1577104041089,3827935.0
1577104041144,3809454.0
1577104041195,3832500.0
1577104041241,3844356.0
1577104041290,3841978.0
1577104041338,3849916.0
1577104041390,3852964.0
1577104041433,3844939.0
1577104041486,3842992.0
1577104041530,3840499.0
1577104041584,3835873.0
1577104041634,3834967.0
1577104041682,3827874.0
1577104041731,3811902.0
1577104041779,3796039.0
1577104041829,3775152.0
1577104041877,3761395.0
1577104041920,3727687.0
1577104041972,3696379.0
1577104042020,3683009.0
1577104042070,3665854.0
1577104042118,3654948.0
1577104042172,3644806.0
1577104042219,3624657.0
1577104042270,3612379.0
1577104042316,3603340.0
1577104042367,3593510.0
1577104042412,3583567.0
1577104042464,3573361.0
1577104042516,3569156.0
1577104042562,3559478.0
1577104042611,3556985.0
1577104042660,3549220.0
1577104042711,3527850.0
1577104042758,3495925.0
1577104042809,3474868.0
1577104042852,3454045.0
1577104042905,3434684.0
1577104042954,3417216.0
1577104043006,3399216.0
1577104043053,3374161.0
1577104043101,3363651.0
1577104043151,3361086.0
1577104043194,3357409.0
1577104043249,3360020.0
1577104043293,3359776.0
1577104043347,3361426.0
1577104043394,3359660.0
1577104043444,3361822.0
1577104043493,3354225.0
1577104043542,3339097.0
1577104043591,3329466.0
1577104043640,3323018.0
1577104043690,3320354.0
1577104043736,3322463.0
1577104043788,3316597.0
1577104043836,3312786.0
1577104043885,3310240.0
1577104043938,3307190.0
1577104043982,3306786.0
1577104044031,3308858.0
1577104044080,3315565.0
1577104044130,3320246.0
1577104044177,3319844.0
1577104044222,3306760.0
1577104044276,3289945.0
1577104044319,3264117.0
1577104044377,3242910.0
1577104044423,3236085.0
1577104044473,3234606.0
1577104044521,3232345.0
1577104044571,3229305.0
1577104044614,3232686.0
1577104044669,3233735.0
1577104044718,3237995.0
1577104044762,3246317.0
1577104044812,3249349.0
1577104044859,3258808.0
1577104044910,3265024.0
1577104044957,3268370.0
1577104045008,3270808.0
1577104045053,3268601.0
1577104045109,3271149.0
1577104045154,3276700.0
1577104045202,3287281.0
1577104045257,3293693.0
1577104045304,3297011.0
1577104045354,3305236.0
1577104045403,3306823.0
1577104045453,3314328.0
1577104045498,3319942.0
1577104045545,3327636.0
1577104045593,3334397.0
1577104045649,3343841.0
1577104045697,3349526.0
1577104045746,3354252.0
1577104045793,3352728.0
1577104045843,3351178.0
1577104045893,3355436.0
1577104045941,3361812.0
1577104045993,3365741.0
1577104046033,3371991.0
1577104046088,3372206.0
1577104046138,3375301.0
1577104046186,3380429.0
1577104046235,3392904.0
1577104046277,3401782.0
1577104046327,3413467.0
1577104046376,3426397.0
1577104046425,3446038.0
1577104046476,3455928.0
1577104046525,3459695.0
1577104046580,3464080.0
1577104046627,3465209.0
1577104046676,3470303.0
1577104046724,3476949.0
1577104046774,3479389.0
1577104046823,3479298.0
1577104046872,3480545.0
1577104046915,3490238.0
1577104046965,3499511.0
1577104047016,3517007.0
1577104047063,3522675.0
1577104047112,3535132.0
1577104047158,3549184.0
1577104047214,3556796.0
1577104047263,3562975.0
1577104047312,3567254.0
1577104047356,3572545.0
1577104047411,3582220.0
1577104047458,3595591.0
1577104047507,3604146.0
1577104047555,3610398.0
1577104047605,3614612.0
1577104047654,3624413.0
1577104047703,3634744.0
1577104047752,3643014.0
1577104047797,3654832.0
1577104047850,3665684.0
1577104047900,3671153.0
1577104047949,3677781.0
1577104047998,3679286.0
1577104048046,3688372.0
1577104048095,3677529.0
1577104048144,3717516.0
1577104048190,3739452.0
1577104048241,3744796.0
1577104048292,3769350.0
1577104048340,3775323.0
1577104048390,3774587.0
1577104048441,3788460.0
1577104048487,3805220.0
1577104048536,3815911.0
1577104048585,3812870.0
1577104048634,3790173.0
1577104048683,3784460.0
1577104048732,3783285.0
1577104048780,3786057.0
1577104048831,3794019.0
1577104048882,3806728.0
1577104048928,3809202.0
1577104048976,3815588.0
1577104049026,3814987.0
1577104049075,3814251.0
1577104049119,3817963.0
1577104049173,3826159.0
1577104049219,3836609.0
1577104049270,3830698.0
1577104049321,3812996.0
1577104049369,3814062.0
1577104049417,3814278.0
1577104049462,3826448.0
1577104049515,3836034.0
1577104049564,3843055.0
1577104049613,3881213.0
1577104049658,3884836.0
1577104049711,3888666.0
1577104049763,3901013.0
1577104049804,3917533.0
1577104049857,3921048.0
1577104049907,3921101.0
1577104049955,3882630.0
1577104050004,3907927.0
1577104050054,3885114.0
1577104050098,3916653.0
1577104050152,3954694.0
1577104050203,3965385.0
1577104050251,3970163.0
1577104050298,3955080.0
1577104050342,3956837.0
1577104050396,3979841.0
1577104050439,3973276.0
1577104050494,3976539.0
1577104050538,3984522.0
1577104050594,3939665.0
1577104050644,3938633.0
1577104050690,3947960.0
1577104050738,3947485.0
1577104050789,3955395.0
1577104050836,3984737.0
1577104050888,3984916.0
1577104050936,3978745.0
1577104050982,3965616.0
1577104051034,3979355.0
1577104051084,3964147.0
1577104051132,4005469.0
1577104051180,3996789.0
1577104051230,3988772.0
1577104051277,3997031.0
1577104051329,3996690.0
1577104051376,3994467.0
1577104051426,4005327.0
1577104051474,4003604.0
1577104051523,4003801.0
1577104051573,4010240.0
1577104051626,4013218.0
1577104051669,4011863.0
1577104051719,4008385.0
1577104051771,4018885.0
1577104051817,4022158.0
1577104051868,4016105.0
1577104051915,4018553.0
1577104051961,4021997.0
1577104052008,4025333.0
1577104052065,4029826.0
1577104052109,4029297.0
1577104052157,4032705.0
1577104052207,4034730.0
1577104052254,4038265.0
1577104052308,4040927.0
1577104052356,4042461.0
1577104052400,4040578.0
1577104052454,4043008.0
1577104052505,4038444.0
1577104052553,4038999.0
1577104052600,4035655.0
1577104052651,4040120.0
1577104052698,4043690.0
1577104052749,4048928.0
1577104052797,4045905.0
1577104052845,4052782.0
1577104052895,4052443.0
1577104052946,4061868.0
1577104052994,4059473.0
1577104053042,4052882.0
1577104053090,4047770.0
1577104053138,4047520.0
1577104053190,4021128.0
1577104053237,4009522.0
1577104053280,4012779.0
1577104053336,4017145.0
1577104053387,4024068.0
1577104053433,4022930.0
1577104053482,4010528.0
1577104053531,4010544.0
1577104053581,4009425.0
1577104053632,3998673.0
1577104053677,3990367.0
1577104053724,3974038.0
1577104053776,3975312.0
1577104053827,3943206.0
1577104053874,3945055.0
1577104053922,3935664.0
1577104053968,3931432.0
1577104054021,3923523.0
1577104054067,3910501.0
1577104054119,3897750.0
1577104054169,3889221.0
1577104054217,3872721.0
1577104054266,3842885.0
1577104054314,3809759.0
1577104054363,3780792.0
1577104054413,3753181.0
1577104054460,3738242.0
1577104054505,3732098.0
1577104054559,3724162.0
1577104054604,3715112.0
1577104054657,3705931.0
1577104054707,3700819.0
1577104054755,3698738.0
1577104054803,3698757.0
1577104054853,3689986.0
1577104054902,3651147.0
1577104054951,3625508.0
1577104055000,3604792.0
1577104055050,3595530.0
1577104055097,3589386.0
1577104055144,3576159.0
1577104055196,3570427.0
1577104055244,3562321.0
1577104055293,3558753.0
1577104055341,3557792.0
1577104055386,3538127.0
1577104055439,3548915.0
1577104055491,3552457.0
1577104055537,3605231.0
1577104055589,3660025.0
1577104055636,3727290.0
1577104055684,3790638.0
1577104055734,3831397.0
1577104055782,3898691.0
1577104055833,3940445.0
1577104055875,3920948.0
1577104055926,3930849.0
1577104055975,3880927.0
1577104056024,3870004.0
1577104056076,3872424.0
1577104056125,3873214.0
1577104056174,3870407.0
1577104056222,3870569.0
1577104056273,3869626.0
1577104056320,3875222.0
1577104056367,3879850.0
1577104056412,3881293.0
1577104056464,3882711.0
1577104056510,3888818.0
1577104056559,3896673.0
1577104056611,3897104.0
1577104056660,3905507.0
1577104056714,3917307.0
1577104056761,3915282.0
1577104056806,3909300.0
1577104056858,3907543.0
1577104056908,3921093.0
1577104056957,3954434.0
1577104057010,3940221.0
1577104057056,3922813.0
1577104057104,3929360.0
1577104057149,3939683.0
1577104057199,3947995.0
1577104057250,3952505.0
1577104057296,3978073.0
1577104057349,3994591.0
1577104057398,4008671.0
1577104057448,4003783.0
1577104057496,4008007.0
1577104057544,4002761.0
1577104057595,4002834.0
1577104057642,3996474.0
1577104057689,3998232.0
1577104057740,3999041.0
1577104057790,4011093.0
1577104057838,4022320.0
1577104057889,4045608.0
1577104057929,4093972.0
1577104057982,4078224.0
1577104058029,4106922.0
1577104058080,4113592.0
1577104058132,4136998.0
1577104058180,4164494.0
1577104058231,4222856.0
1577104058278,4228693.0
1577104058328,4228532.0
1577104058377,4236800.0
1577104058422,4227823.0
1577104058475,4249742.0
1577104058523,4240889.0
1577104058567,4250916.0
1577104058621,4270815.0
1577104058667,4294095.0
1577104058719,4318811.0
1577104058770,4339840.0
1577104058817,4347426.0
1577104058866,4356124.0
1577104058914,4365102.0
1577104058964,4378140.0
1577104059009,4392157.0
1577104059062,4398703.0
1577104059108,4407204.0
1577104059155,4414244.0
1577104059210,4413214.0
1577104059258,4409366.0
1577104059308,4414118.0
1577104059351,4422611.0
1577104059404,4428269.0
1577104059450,4426073.0
1577104059502,4431158.0
1577104059555,4433704.0
1577104059600,4433158.0
1577104059654,4435382.0
1577104059699,4436008.0
1577104059748,4433086.0
1577104059793,4438278.0
1577104059845,4440358.0
1577104059889,4443408.0
1577104059943,4443353.0
1577104059993,4448323.0
1577104060037,4453111.0
1577104060090,4452859.0
1577104060139,4455271.0
1577104060188,4453577.0
1577104060232,4449639.0
1577104060285,4449657.0
1577104060332,4446331.0
1577104060383,4446752.0
1577104060434,4450816.0
1577104060481,4453209.0
1577104060531,4449899.0
1577104060579,4449156.0
1577104060629,4442286.0
1577104060675,4444698.0
1577104060726,4437274.0
1577104060769,4440448.0
1577104060824,4442609.0
1577104060875,4438672.0
1577104060921,4435579.0
1577104060971,4431847.0
1577104061019,4437256.0
1577104061069,4437983.0
1577104061112,4439525.0
1577104061167,4440844.0
1577104061210,4445399.0
1577104061264,4447569.0
1577104061313,4451720.0
1577104061357,4452286.0
1577104061417,4455523.0
1577104061455,4449379.0
1577104061510,4449363.0
1577104061556,4451443.0
1577104061607,4450742.0
1577104061650,4453908.0
1577104061705,4462061.0
1577104061753,4461602.0
1577104061803,4464329.0
1577104061854,4468392.0
1577104061894,4474445.0
1577104061951,4480077.0
1577104061999,4483907.0
1577104062049,4495770.0
1577104062095,4498775.0
1577104062146,4506504.0
1577104062189,4524763.0
1577104062237,4542151.0
1577104062290,4561997.0
1577104062336,4576765.0
1577104062387,4586819.0
1577104062433,4597142.0
1577104062489,4602916.0
1577104062534,4606260.0
1577104062586,4613560.0
1577104062634,4616825.0
1577104062683,4618323.0
1577104062736,4611829.0
1577104062782,4604387.0
1577104062831,4605257.0
1577104062879,4605086.0
1577104062930,4602934.0
1577104062973,4596845.0
1577104063032,4589133.0
1577104063071,4584801.0
1577104063120,4602296.0
1577104063172,4654096.0
1577104063220,4688325.0
1577104063270,4700700.0
1577104063316,4684048.0
1577104063372,4644167.0
1577104063420,4569502.0
1577104063469,4488829.0
1577104063517,4439426.0
1577104063568,4404989.0
1577104063614,4372904.0
1577104063664,4336790.0
1577104063717,4309940.0
1577104063762,4275730.0
1577104063811,4258385.0
1577104063860,4248907.0
1577104063910,4224721.0
1577104063956,4212211.0
1577104064009,4176170.0
1577104064055,4134623.0
1577104064106,4102123.0
1577104064156,4077732.0
1577104064204,4052120.0
1577104064248,4027467.0
1577104064302,4004339.0
1577104064352,3983229.0
1577104064399,3960057.0
1577104064449,3944068.0
1577104064491,3928196.0
1577104064546,3910627.0
1577104064596,3896773.0
1577104064643,3884245.0
1577104064694,3873367.0
1577104064742,3852759.0
1577104064792,3816628.0
1577104064835,3790980.0
1577104064889,3766615.0
1577104064935,3749495.0
1577104064986,3731864.0
1577104065041,3713580.0
1577104065085,3697832.0
1577104065129,3687025.0
1577104065205,3674928.0
1577104065252,3663351.0
1577104065327,3654743.0
1577104065327,3647676.0
1577104065384,3637999.0
1577104065429,3632215.0
1577104065474,3623310.0
1577104065520,3599447.0
1577104065569,3575397.0
1577104065620,3557209.0
1577104065670,3544870.0
1577104065717,3533364.0
1577104065766,3523177.0
1577104065813,3509349.0
1577104065866,3501242.0
1577104065914,3493997.0
1577104065964,3488768.0
1577104066013,3484714.0
1577104066062,3479389.0
1577104066111,3473048.0
1577104066158,3473056.0
1577104066210,3467873.0
1577104066262,3467119.0
1577104066311,3465847.0
1577104066355,3445902.0
1577104066410,3426092.0
1577104066458,3419133.0
1577104066507,3409592.0
1577104066555,3405476.0
1577104066605,3401092.0
1577104066655,3397020.0
1577104066703,3396337.0
1577104066753,3396169.0
1577104066796,3397101.0
1577104066852,3398365.0
1577104066898,3398723.0
1577104066948,3405665.0
1577104066996,3411539.0
1577104067047,3421905.0
1577104067095,3424999.0
1577104067144,3422900.0
1577104067192,3424398.0
1577104067238,3428522.0
1577104067290,3434091.0
1577104067341,3441097.0
1577104067385,3451229.0
1577104067436,3465157.0
1577104067486,3473523.0
1577104067535,3494473.0
1577104067584,3508112.0
1577104067634,3520119.0
1577104067680,3529750.0
1577104067732,3543749.0
1577104067779,3553901.0
1577104067830,3561585.0
1577104067882,3558070.0
1577104067927,3551264.0
1577104067975,3553731.0
1577104068025,3558475.0
1577104068076,3565980.0
1577104068119,3572634.0
1577104068169,3587449.0
1577104068215,3593431.0
1577104068267,3599510.0
1577104068316,3607375.0
1577104068368,3620270.0
1577104068416,3623454.0
1577104068465,3626611.0
1577104068514,3630494.0
1577104068562,3640815.0
1577104068613,3652008.0
1577104068659,3647874.0
1577104068710,3641758.0
1577104068761,3640718.0
1577104068809,3637229.0
1577104068856,3647175.0
1577104068907,3647748.0
1577104068955,3650805.0
1577104069004,3649048.0
1577104069055,3655226.0
1577104069096,3657593.0
1577104069152,3666490.0
1577104069201,3673423.0
1577104069247,3682775.0
1577104069299,3693500.0
1577104069347,3706819.0
1577104069396,3708216.0
1577104069445,3685546.0
1577104069494,3672301.0
1577104069538,3667512.0
1577104069592,3660903.0
1577104069643,3664276.0
1577104069690,3677978.0
1577104069737,3724708.0
1577104069788,3758130.0
1577104069836,3793885.0
1577104069886,3811220.0
1577104069934,3804172.0
1577104069978,3798298.0
1577104070036,3787304.0
1577104070084,3795374.0
1577104070126,3805714.0
1577104070172,3821785.0
1577104070230,3844760.0
1577104070278,3862649.0
1577104070327,3870236.0
1577104070375,3877286.0
1577104070421,3884917.0
1577104070474,3897508.0
1577104070523,3903461.0
1577104070572,3913075.0
1577104070619,3922950.0
1577104070670,3929144.0
1577104070713,3934768.0
1577104070761,3934472.0
1577104070812,3941979.0
1577104070862,3945431.0
1577104070911,3947314.0
1577104070958,3945404.0
1577104071013,3944399.0
1577104071060,3948812.0
1577104071110,3966622.0
1577104071158,3998681.0
1577104071209,4026697.0
1577104071252,4030327.0
1577104071307,4033529.0
1577104071355,4040023.0
1577104071402,4049753.0
1577104071453,4043816.0
1577104071504,4053733.0
1577104071550,4078592.0
1577104071598,4087255.0
1577104071649,4101989.0
1577104071697,4112150.0
1577104071745,4129430.0
1577104071796,4139536.0
1577104071843,4141994.0
1577104071894,4141312.0
1577104071945,4143544.0
1577104071987,4142604.0
1577104072042,4145312.0
1577104072091,4141761.0
1577104072138,4143644.0
1577104072189,4142882.0
1577104072230,4141511.0
1577104072282,4142585.0
1577104072335,4140586.0
1577104072387,4146442.0
1577104072432,4164717.0
1577104072480,4170063.0
1577104072530,4175443.0
1577104072577,4175398.0
1577104072629,4174996.0
1577104072676,4176753.0
1577104072722,4182081.0
1577104072774,4193353.0
1577104072827,4197881.0
1577104072873,4201396.0
1577104072921,4214040.0
1577104072971,4231007.0
1577104073019,4240109.0
1577104073068,4248289.0
1577104073113,4254082.0
1577104073164,4244236.0
1577104073212,4245715.0
1577104073261,4245258.0
1577104073310,4244378.0
1577104073362,4247050.0
1577104073413,4246970.0
1577104073460,4247042.0
1577104073512,4248718.0
1577104073557,4245786.0
1577104073606,4245176.0
1577104073656,4247462.0
1577104073705,4248441.0
1577104073754,4260969.0
1577104073799,4264198.0
1577104073853,4266554.0
1577104073901,4265658.0
1577104073950,4266617.0
1577104073998,4268663.0
1577104074041,4268869.0
1577104074098,4268277.0
1577104074149,4265721.0
1577104074194,4263919.0
1577104074243,4260924.0
1577104074293,4258681.0
1577104074341,4258521.0
1577104074391,4260189.0
1577104074438,4258789.0
1577104074484,4257499.0
1577104074537,4259390.0
1577104074589,4260026.0
1577104074635,4258350.0
1577104074683,4260941.0
1577104074734,4263623.0
1577104074781,4260144.0
1577104074832,4250136.0
1577104074879,4243088.0
1577104074923,4243732.0
1577104074977,4250504.0
1577104075028,4249616.0
1577104075071,4250764.0
1577104075124,4253956.0
1577104075173,4255345.0
1577104075222,4264986.0
1577104075265,4268672.0
1577104075319,4276868.0
1577104075368,4291378.0
1577104075417,4302157.0
1577104075465,4310300.0
1577104075516,4318551.0
1577104075563,4329025.0
1577104075614,4341274.0
1577104075662,4343669.0
1577104075710,4348592.0
1577104075755,4354941.0
1577104075808,4361918.0
1577104075853,4364706.0
1577104075905,4366868.0
1577104075952,4371128.0
1577104076005,4375226.0
1577104076054,4380123.0
1577104076102,4378518.0
1577104076146,4377494.0
1577104076201,4377297.0
1577104076248,4383583.0
1577104076297,4385889.0
1577104076346,4389054.0
1577104076396,4393116.0
1577104076445,4394246.0
1577104076493,4400461.0
1577104076542,4407322.0
1577104076593,4408336.0
1577104076640,4412021.0
1577104076690,4419490.0
1577104076737,4423149.0
1577104076789,4426548.0
1577104076836,4426207.0
1577104076885,4426764.0
1577104076934,4430969.0
1577104076983,4433255.0
1577104077032,4435777.0
1577104077080,4437077.0
1577104077129,4444170.0
1577104077178,4443810.0
1577104077231,4444771.0
1577104077272,4451596.0
1577104077326,4448654.0
1577104077375,4457425.0
1577104077424,4458142.0
1577104077468,4456752.0
1577104077521,4462275.0
1577104077569,4455765.0
1577104077619,4466176.0
1577104077670,4480121.0
1577104077718,4480847.0
1577104077762,4485906.0
1577104077816,4490621.0
1577104077863,4486111.0
1577104077908,4499393.0
1577104077961,4496343.0
1577104078008,4510854.0
1577104078061,4527991.0
1577104078109,4536834.0
1577104078151,4529578.0
1577104078200,4526386.0
1577104078249,4564104.0
1577104078304,4627712.0
1577104078352,4666174.0
1577104078397,4693518.0
1577104078449,4711291.0
1577104078495,4730930.0
1577104078549,4750283.0
1577104078593,4775966.0
1577104078648,4796726.0
1577104078694,4814429.0
1577104078744,4828355.0
1577104078792,4836140.0
1577104078842,4842668.0
1577104078894,4851815.0
1577104078940,4855769.0
1577104078994,4868414.0
1577104079033,4868047.0
1577104079088,4876871.0
1577104079131,4877184.0
1577104079187,4883793.0
1577104079229,4884331.0
1577104079283,4889748.0
1577104079335,4889039.0
1577104079380,4889390.0
1577104079434,4898115.0
1577104079477,4896896.0
1577104079529,4893693.0
1577104079575,4895479.0
1577104079627,4898088.0
1577104079669,4896394.0
1577104079724,4900545.0
1577104079773,4898608.0
1577104079817,4903289.0
1577104079875,4899622.0
1577104079920,4899630.0
1577104079970,4901569.0
1577104080021,4905073.0
1577104080061,4910482.0
1577104080110,4908535.0
1577104080159,4907154.0
1577104080213,4901863.0
1577104080263,4901380.0
1577104080313,4903998.0
1577104080359,4905029.0
1577104080410,4901495.0
1577104080458,4890754.0
1577104080508,4883149.0
1577104080550,4884512.0
1577104080605,4881857.0
1577104080652,4880772.0
1577104080703,4883354.0
1577104080756,4884861.0
1577104080800,4881103.0
1577104080850,4877068.0
1577104080898,4875623.0
1577104080949,4876099.0
1577104080992,4881310.0
1577104081046,4880367.0
1577104081089,4882763.0
1577104081143,4882655.0
1577104081194,4885032.0
1577104081241,4890735.0
1577104081292,4894547.0
1577104081339,4896428.0
1577104081389,4898787.0
1577104081432,4899837.0
1577104081484,4892850.0
1577104081532,4891030.0
1577104081584,4894303.0
1577104081635,4896977.0
1577104081682,4895550.0
1577104081731,4897408.0
1577104081780,4896958.0
1577104081830,4900904.0
1577104081877,4899945.0
1577104081927,4903190.0
1577104081973,4909460.0
1577104082024,4909324.0
1577104082077,4904133.0
1577104082122,4899289.0
1577104082171,4896402.0
1577104082220,4898482.0
1577104082271,4901146.0
1577104082318,4902617.0
1577104082368,4904240.0
1577104082411,4904886.0
1577104082465,4905317.0
1577104082515,4909253.0
1577104082562,4907845.0
1577104082613,4912822.0
1577104082660,4912581.0
1577104082709,4907164.0
1577104082754,4904553.0
1577104082808,4909127.0
1577104082852,4913440.0
1577104082905,4914401.0
1577104082958,4913889.0
1577104082998,4914543.0
1577104083053,4915460.0
1577104083100,4915825.0
1577104083149,4915289.0
1577104083199,4905469.0
1577104083248,4893685.0
1577104083292,4878791.0
1577104083346,4859483.0
1577104083395,4838489.0
1577104083439,4821961.0
1577104083489,4813147.0
1577104083538,4781598.0
1577104083588,4748704.0
1577104083635,4731280.0
1577104083687,4724455.0
1577104083738,4748255.0
1577104083787,4780135.0
1577104083838,4829826.0
1577104083885,4860936.0
1577104083934,4889372.0
1577104083982,4890717.0
1577104084029,4883130.0
1577104084078,4888027.0
1577104084130,4885032.0
1577104084172,4885264.0
1577104084228,4874288.0
1577104084278,4866881.0
1577104084325,4865042.0
1577104084375,4862585.0
1577104084424,4859142.0
1577104084472,4858567.0
1577104084522,4852963.0
1577104084571,4855887.0
1577104084617,4852738.0
1577104084670,4859617.0
1577104084715,4857662.0
1577104084766,4853617.0
1577104084816,4854702.0
1577104084864,4845681.0
1577104084913,4844560.0
1577104084963,4850048.0
1577104085010,4847546.0
1577104085052,4862199.0
1577104085111,4867006.0
1577104085161,4868378.0
1577104085205,4877257.0
1577104085261,4876923.0
1577104085298,4883722.0
1577104085350,4895648.0
1577104085397,4898679.0
1577104085448,4900303.0
1577104085495,4887946.0
1577104085550,4862118.0
1577104085595,4833915.0
1577104085648,4792870.0
1577104085697,4758137.0
1577104085745,4734212.0
1577104085794,4732948.0
1577104085843,4701929.0
1577104085893,4691561.0
1577104085939,4671366.0
1577104085989,4662991.0
1577104086037,4653027.0
1577104086090,4635182.0
1577104086140,4606817.0
1577104086185,4585797.0
1577104086234,4569888.0
1577104086278,4556814.0
1577104086332,4524844.0
1577104086381,4492820.0
1577104086431,4469441.0
1577104086476,4457092.0
1577104086530,4443713.0
1577104086580,4410317.0
1577104086626,4379288.0
1577104086675,4356573.0
1577104086719,4337659.0
1577104086773,4316353.0
1577104086821,4300042.0
1577104086871,4256251.0
1577104086917,4214095.0
1577104086969,4186896.0
1577104087019,4169049.0
1577104087067,4154819.0
1577104087115,4131421.0
1577104087158,4103936.0
1577104087215,4067356.0
1577104087262,4026615.0
1577104087311,4006204.0
1577104087356,3997704.0
1577104087412,3985166.0
1577104087460,3960173.0
1577104087507,3923181.0
1577104087555,3893589.0
1577104087604,3873241.0
1577104087653,3855315.0
1577104087703,3834733.0
1577104087752,3817049.0
1577104087797,3797733.0
1577104087849,3774730.0
1577104087899,3749629.0
1577104087948,3741712.0
1577104087995,3713436.0
1577104088045,3673780.0
1577104088094,3650976.0
1577104088141,3629777.0
1577104088192,3624584.0
1577104088238,3608074.0
1577104088286,3591556.0
1577104088336,3580615.0
1577104088388,3568176.0
1577104088432,3556179.0
1577104088486,3574150.0
1577104088535,3589073.0
1577104088583,3584516.0
1577104088632,3525562.0
1577104088679,3453364.0
1577104088731,3446916.0
1577104088782,3425519.0
1577104088829,3408355.0
1577104088878,3395074.0
1577104088928,3386851.0
1577104088975,3402166.0
1577104089026,3425133.0
1577104089076,3448844.0
1577104089119,3466752.0
1577104089174,3474860.0
1577104089223,3492508.0
1577104089270,3514506.0
1577104089318,3541176.0
1577104089368,3567934.0
1577104089415,3590184.0
1577104089466,3618944.0
1577104089513,3647362.0
1577104089557,3679924.0
1577104089612,3715159.0
1577104089663,3750249.0
1577104089709,3783393.0
1577104089758,3810610.0
1577104089808,3835209.0
1577104089856,3852184.0
1577104089906,3872308.0
1577104089954,3885850.0
1577104089998,3898871.0
1577104090052,3911846.0
1577104090103,3921739.0
1577104090149,3931083.0
1577104090192,3941601.0
1577104090243,3952613.0
1577104090292,3967114.0
1577104090342,3976620.0
1577104090391,3987275.0
1577104090440,4006690.0
1577104090493,4008842.0
1577104090542,4005227.0
1577104090590,4007936.0
1577104090638,4014482.0
1577104090688,4025163.0
1577104090736,4037044.0
1577104090786,4040005.0
1577104090834,4038891.0
1577104090881,4040892.0
1577104090933,4048954.0
1577104090985,4052496.0
1577104091031,4061761.0
1577104091081,4070863.0
1577104091130,4076064.0
1577104091177,4080761.0
1577104091228,4085371.0
1577104091275,4090977.0
1577104091320,4093110.0
1577104091373,4101461.0
1577104091426,4106634.0
1577104091471,4128579.0
1577104091519,4143195.0
1577104091566,4153849.0
1577104091617,4162655.0
1577104091669,4165597.0
1577104091712,4166099.0
1577104091759,4161848.0
1577104091814,4153994.0
1577104091862,4151598.0
1577104091909,4157858.0
1577104091958,4163122.0
1577104092006,4174476.0
1577104092055,4174644.0
1577104092110,4176278.0
1577104092156,4179937.0
1577104092206,4183003.0
1577104092255,4181156.0
1577104092300,4175703.0
1577104092354,4172995.0
1577104092401,4169839.0
1577104092451,4172107.0
1577104092499,4181479.0
1577104092551,4185209.0
1577104092597,4181613.0
1577104092648,4179443.0
1577104092695,4172797.0
1577104092744,4167228.0
1577104092793,4155005.0
1577104092842,4151015.0
1577104092892,4145320.0
1577104092940,4139698.0
1577104092986,4143071.0
1577104093037,4139070.0
1577104093090,4130767.0
1577104093136,4109468.0
1577104093184,4086054.0
1577104093234,4067330.0
1577104093283,4053573.0
1577104093333,4042747.0
1577104093380,4028885.0
1577104093431,4015496.0
1577104093478,4006204.0
1577104093526,3995794.0
1577104093576,3986090.0
1577104093626,3983382.0
1577104093674,3971931.0
1577104093724,3952505.0
1577104093773,3936069.0
1577104093821,3922214.0
1577104093871,3914735.0
1577104093919,3902539.0
1577104093970,3891508.0
1577104094011,3877187.0
1577104094066,3863493.0
1577104094115,3852157.0
1577104094168,3846320.0
1577104094213,3840213.0
1577104094262,3832626.0
1577104094312,3809284.0
1577104094359,3801177.0
1577104094410,3802817.0
1577104094457,3817695.0
1577104094506,3826887.0
1577104094555,3832905.0
1577104094604,3838661.0
1577104094654,3840499.0
1577104094703,3837620.0
1577104094753,3833819.0
1577104094799,3823622.0
1577104094847,3803975.0
1577104094897,3767143.0
1577104094948,3740170.0
1577104094995,3721382.0
1577104095039,3709643.0
1577104095095,3693161.0
1577104095143,3672866.0
1577104095192,3643936.0
1577104095239,3616702.0
1577104095291,3591537.0
1577104095337,3571128.0
1577104095384,3550663.0
1577104095436,3513079.0
1577104095479,3481622.0
1577104095534,3468296.0
1577104095578,3461282.0
1577104095632,3457596.0
1577104095675,3460449.0
1577104095727,3465309.0
1577104095778,3471756.0
1577104095828,3463730.0
1577104095876,3446387.0
1577104095927,3433634.0
1577104095974,3408300.0
1577104096023,3381766.0
1577104096071,3352387.0
1577104096121,3341448.0
1577104096170,3342488.0
1577104096218,3343357.0
1577104096270,3338343.0
1577104096316,3324336.0
1577104096366,3309397.0
1577104096415,3303998.0
1577104096463,3298797.0
1577104096513,3293872.0
1577104096561,3288852.0
1577104096607,3256496.0
1577104096658,3227180.0
1577104096708,3218509.0
1577104096757,3212196.0
1577104096807,3203155.0
1577104096855,3193138.0
1577104096898,3179463.0
1577104096947,3168138.0
1577104096998,3162020.0
1577104097047,3164936.0
1577104097095,3173796.0
1577104097147,3178835.0
1577104097197,3162065.0
1577104097247,3136552.0
1577104097295,3128643.0
1577104097343,3125227.0
1577104097393,3120599.0
1577104097441,3110204.0
1577104097486,3102744.0
1577104097539,3107273.0
1577104097586,3103963.0
1577104097637,3112994.0
1577104097686,3116509.0
1577104097736,3113945.0
1577104097783,3089499.0
1577104097830,3066865.0
1577104097881,3058470.0
1577104097933,3057062.0
1577104097979,3060264.0
1577104098030,3069151.0
1577104098076,3076890.0
1577104098127,3084334.0
1577104098170,3088522.0
1577104098224,3093300.0
1577104098276,3112250.0
1577104098322,3112886.0
1577104098375,3109703.0
1577104098419,3113299.0
1577104098469,3122446.0
1577104098515,3144580.0
1577104098567,3170612.0
1577104098610,3199910.0
1577104098665,3230866.0
1577104098710,3261724.0
1577104098762,3286349.0
1577104098813,3303003.0
1577104098859,3314212.0
1577104098909,3316526.0
1577104098955,3306374.0
1577104099006,3299486.0
1577104099050,3304687.0
1577104099106,3308149.0
1577104099150,3315163.0
1577104099202,3314041.0
1577104099252,3317359.0
1577104099300,3327646.0
1577104099351,3334694.0
1577104099393,3341905.0
1577104099447,3351958.0
1577104099491,3350810.0
1577104099545,3337500.0
1577104099591,3331116.0
1577104099642,3334103.0
1577104099694,3335671.0
1577104099739,3340523.0
1577104099790,3334560.0
1577104099838,3334040.0
1577104099888,3332254.0
1577104099934,3357706.0
1577104099984,3387020.0
1577104100032,3418363.0
1577104100082,3453472.0
1577104100133,3489190.0
1577104100179,3508740.0
1577104100229,3531239.0
1577104100278,3561173.0
1577104100321,3577630.0
1577104100370,3592175.0
1577104100425,3612003.0
1577104100474,3624746.0
1577104100522,3639265.0
1577104100576,3654375.0
1577104100619,3662374.0
1577104100666,3660787.0
1577104100718,3661710.0
1577104100768,3660015.0
1577104100815,3658069.0
1577104100865,3653855.0
1577104100910,3647577.0
1577104100963,3642888.0
1577104101015,3637516.0
1577104101060,3629346.0
1577104101109,3632467.0
1577104101153,3639785.0
1577104101208,3677161.0
1577104101254,3691483.0
1577104101306,3708810.0
1577104101353,3715256.0
1577104101403,3709060.0
1577104101452,3705734.0
1577104101500,3697985.0
1577104101549,3681601.0
1577104101598,3672104.0
1577104101648,3652331.0
1577104101694,3661137.0
1577104101746,3680839.0
1577104101793,3685189.0
1577104101843,3685457.0
1577104101892,3680211.0
1577104101941,3665227.0
1577104101990,3667898.0
1577104102038,3689313.0
1577104102088,3701662.0
1577104102132,3702970.0
1577104102185,3704496.0
1577104102236,3722081.0
1577104102283,3748079.0
1577104102332,3772050.0
1577104102380,3811015.0
1577104102429,3823345.0
1577104102477,3814664.0
1577104102529,3821578.0
1577104102573,3836698.0
1577104102625,3853377.0
1577104102677,3857574.0
1577104102722,3851960.0
1577104102772,3845890.0
1577104102821,3822484.0
1577104102868,3788604.0
1577104102916,3779348.0
1577104102968,3768488.0
1577104103014,3772058.0
1577104103065,3785815.0
1577104103116,3788694.0
1577104103158,3796603.0
1577104103212,3822035.0
1577104103260,3830840.0
1577104103309,3842750.0
1577104103352,3856148.0
1577104103408,3867609.0
1577104103457,3871384.0
1577104103505,3874972.0
1577104103554,3878899.0
1577104103603,3866067.0
1577104103653,3873385.0
1577104103701,3889643.0
1577104103750,3906645.0
1577104103795,3909560.0
1577104103848,3940435.0
1577104103895,3943708.0
1577104103945,3962101.0
1577104103994,3968621.0
1577104104043,3963717.0
1577104104093,3979704.0
1577104104142,3995721.0
1577104104190,4013702.0
1577104104236,4021522.0
1577104104288,4056667.0
1577104104335,4079884.0
1577104104385,4109935.0
1577104104434,4121699.0
1577104104482,4122928.0
1577104104532,4116534.0
1577104104580,4093533.0
1577104104630,4074359.0
1577104104673,4059804.0
1577104104728,4049590.0
1577104104779,4042947.0
1577104104825,4020805.0
1577104104873,4008545.0
1577104104922,3985704.0
1577104104973,3970397.0
1577104105016,3951762.0
1577104105069,3940014.0
1577104105119,3920231.0
1577104105168,3912250.0
1577104105219,3894503.0
1577104105265,3870433.0
1577104105313,3821756.0
1577104105363,3784612.0
1577104105412,3757754.0
1577104105460,3734601.0
1577104105510,3714915.0
1577104105556,3688094.0
1577104105608,3659459.0
1577104105659,3636376.0
1577104105705,3619957.0
1577104105754,3599922.0
1577104105798,3587557.0
1577104105853,3584032.0
1577104105899,3580042.0
1577104105949,3595717.0
1577104105996,3598793.0
1577104106048,3594802.0
1577104106096,3594426.0
1577104106146,3612208.0
1577104106194,3578087.0
1577104106243,3567335.0
1577104106292,3539130.0
1577104106341,3503099.0
1577104106391,3474616.0
1577104106436,3463021.0
1577104106489,3440217.0
1577104106538,3433132.0
1577104106585,3433571.0
1577104106634,3434146.0
1577104106684,3457058.0
1577104106733,3450467.0
1577104106777,3424792.0
1577104106832,3421986.0
1577104106881,3448899.0
1577104106929,3487756.0
1577104106970,3511277.0
1577104107023,3521383.0
1577104107068,3508049.0
1577104107120,3496122.0
1577104107168,3490562.0
1577104107218,3487083.0
1577104107267,3487674.0
1577104107320,3480519.0
1577104107371,3488778.0
1577104107416,3571594.0
1577104107467,3546619.0
1577104107515,3499861.0
1577104107564,3461426.0
1577104107613,3432657.0
1577104107659,3402195.0
1577104107711,3369157.0
1577104107760,3338766.0
1577104107809,3308257.0
1577104107857,3286735.0
1577104107907,3265948.0
1577104107955,3247949.0
1577104108004,3233834.0
1577104108054,3218742.0
1577104108096,3201739.0
1577104108151,3160425.0
1577104108200,3125065.0
1577104108249,3104178.0
1577104108296,3099355.0
1577104108343,3095275.0
1577104108395,3075474.0
1577104108445,3082496.0
1577104108493,3108008.0
1577104108536,3149663.0
1577104108592,3188717.0
1577104108641,3197344.0
1577104108689,3190897.0
1577104108737,3192216.0
1577104108787,3209711.0
1577104108834,3253654.0
1577104108884,3319745.0
1577104108933,3349339.0
1577104108980,3362450.0
1577104109028,3371489.0
1577104109084,3381182.0
1577104109130,3385595.0
1577104109178,3389620.0
1577104109227,3390679.0
1577104109275,3429851.0
1577104109320,3457830.0
1577104109373,3505609.0
1577104109423,3511671.0
1577104109471,3493898.0
1577104109524,3468143.0
1577104109570,3451901.0
1577104109617,3471603.0
1577104109668,3524656.0
1577104109715,3563818.0
1577104109758,3609912.0
1577104109814,3659845.0
1577104109862,3697769.0
1577104109912,3776156.0
1577104109959,3807973.0
1577104110009,3817829.0
1577104110057,3777895.0
1577104110108,3744743.0
1577104110151,3736214.0
1577104110201,3740088.0
1577104110254,3741657.0
1577104110303,3745765.0
1577104110349,3734160.0
1577104110399,3728026.0
1577104110449,3722270.0
1577104110497,3725328.0
1577104110548,3736035.0
1577104110595,3744654.0
1577104110646,3762123.0
1577104110693,3777511.0
1577104110743,3795858.0
1577104110791,3825156.0
1577104110840,3858283.0
1577104110889,3904717.0
1577104110937,3944175.0
1577104110988,3972414.0
1577104111030,3992395.0
1577104111081,4016833.0
1577104111134,4034068.0
1577104111186,4074798.0
1577104111232,4100465.0
1577104111280,4126183.0
1577104111326,4147088.0
1577104111378,4158854.0
1577104111428,4161444.0
1577104111475,4154745.0
1577104111522,4156450.0
1577104111574,4158405.0
1577104111625,4164502.0
1577104111672,4162655.0
1577104111720,4176664.0
1577104111770,4170278.0
1577104111818,4177389.0
1577104111868,4173882.0
1577104111915,4176709.0
1577104111963,4159248.0
1577104112008,4148325.0
1577104112065,4147222.0
1577104112109,4139430.0
1577104112157,4122802.0
1577104112206,4114830.0
1577104112254,4109368.0
1577104112309,4112857.0
1577104112353,4120750.0
1577104112400,4131072.0
1577104112451,4156871.0
1577104112502,4148343.0
1577104112552,4138819.0
1577104112600,4134883.0
1577104112650,4127744.0
1577104112698,4124659.0
1577104112749,4119172.0
1577104112797,4114688.0
1577104112845,4100599.0
1577104112893,4090995.0
1577104112944,4087712.0
1577104112993,4081678.0
1577104113040,4083659.0
1577104113090,4081909.0
1577104113140,4090063.0
1577104113187,4098196.0
1577104113236,4092976.0
1577104113285,4095748.0
1577104113330,4097792.0
1577104113384,4087281.0
1577104113433,4100258.0
1577104113477,4100608.0
1577104113530,4103218.0
1577104113579,4109127.0
1577104113622,4092771.0
1577104113676,4101057.0
1577104113727,4099504.0
1577104113774,4099612.0
1577104113823,4114060.0
1577104113873,4113763.0
1577104113921,4112373.0
1577104113972,4104214.0
1577104114017,4106374.0
1577104114063,4114876.0
1577104114116,4137071.0
1577104114170,4179846.0
1577104114214,4180053.0
1577104114263,4184151.0
1577104114313,4178824.0
1577104114360,4168726.0
1577104114409,4168143.0
1577104114458,4174376.0
1577104114505,4141448.0
1577104114556,4117002.0
1577104114607,4137421.0
1577104114654,4114104.0
1577104114702,4160010.0
1577104114749,4153437.0
1577104114801,4153285.0
1577104114845,4149938.0
1577104114897,4132057.0
1577104114944,4142720.0
1577104114996,4218910.0
1577104115045,4276224.0
1577104115094,4337525.0
1577104115146,4381844.0
1577104115186,4393878.0
1577104115236,4389690.0
1577104115286,4374420.0
1577104115334,4348566.0
1577104115386,4318002.0
1577104115436,4295881.0
1577104115487,4254807.0
1577104115533,4248970.0
1577104115582,4232110.0
1577104115630,4217969.0
1577104115681,4199226.0
1577104115730,4163740.0
1577104115778,4084520.0
1577104115829,4003157.0
1577104115876,3975911.0
1577104115925,3944695.0
1577104115969,3916716.0
1577104116022,3899652.0
1577104116071,3909810.0
1577104116121,3945376.0
1577104116171,3965312.0
1577104116218,3970657.0
1577104116270,3977616.0
1577104116316,3984036.0
1577104116366,3988780.0
1577104116414,3995121.0
1577104116463,4001021.0
1577104116509,4009711.0
1577104116561,4018104.0
1577104116608,4024338.0
1577104116659,4026516.0
1577104116710,4023836.0
1577104116757,4035053.0
1577104116807,4041457.0
1577104116850,4043932.0
1577104116903,4043341.0
1577104116949,4033690.0
1577104117001,4027782.0
1577104117050,4031746.0
1577104117098,4029145.0
1577104117147,4033897.0
1577104117192,4042363.0
1577104117242,4051860.0
1577104117291,4063266.0
1577104117339,4069562.0
1577104117391,4074107.0
1577104117438,4082555.0
1577104117487,4094466.0
1577104117532,4097605.0
1577104117582,4089937.0
1577104117635,4094986.0
1577104117686,4100581.0
1577104117729,4094545.0
1577104117783,4085408.0
1577104117833,4069113.0
1577104117881,4050927.0
1577104117934,4023952.0
1577104117979,3976899.0
1577104118031,3933620.0
1577104118077,3897033.0
1577104118127,3873249.0
1577104118171,3862999.0
1577104118224,3846050.0
1577104118271,3828224.0
1577104118318,3807634.0
1577104118375,3788513.0
1577104118420,3774758.0
1577104118475,3757468.0
1577104118517,3740716.0
1577104118568,3721821.0
1577104118615,3688569.0
1577104118665,3649452.0
1577104118708,3622566.0
1577104118763,3607446.0
1577104118814,3595026.0
1577104118861,3580068.0
1577104118909,3558672.0
1577104118959,3542942.0
1577104119008,3527365.0
1577104119056,3515914.0
1577104119105,3507098.0
1577104119150,3501377.0
1577104119204,3486437.0
1577104119254,3455148.0
1577104119300,3423429.0
1577104119345,3403091.0
1577104119398,3390904.0
1577104119448,3378976.0
1577104119494,3363498.0
1577104119545,3353203.0
1577104119589,3341842.0
1577104119642,3336541.0
1577104119695,3326120.0
1577104119741,3323270.0
1577104119788,3317288.0
1577104119838,3297944.0
1577104119888,3270180.0
1577104119935,3248650.0
1577104119986,3238310.0
1577104120029,3234507.0
1577104120083,3231341.0
1577104120134,3222840.0
1577104120181,3213657.0
1577104120230,3208348.0
1577104120278,3202125.0
1577104120328,3196779.0
1577104120370,3193758.0
1577104120426,3192232.0
1577104120472,3177409.0
1577104120522,3160344.0
1577104120575,3158282.0
1577104120620,3178756.0
1577104120665,3191964.0
1577104120711,3188610.0
1577104120765,3185103.0
1577104120810,3165653.0
1577104120862,3154856.0
1577104120908,3154998.0
1577104120957,3156577.0
1577104121016,3155080.0
1577104121061,3165742.0
1577104121109,3168934.0
1577104121153,3173859.0
1577104121208,3176342.0
1577104121252,3169160.0
1577104121305,3172173.0
1577104121351,3179607.0
1577104121402,3208742.0
1577104121452,3243420.0
1577104121500,3271275.0
1577104121550,3312983.0
1577104121597,3342478.0
1577104121647,3376367.0
1577104121691,3423053.0
1577104121745,3448781.0
1577104121796,3465551.0
1577104121842,3481667.0
1577104121893,3457113.0
1577104121940,3458017.0
1577104121989,3507358.0
1577104122033,3560114.0
1577104122088,3595107.0
1577104122133,3622692.0
1577104122178,3641532.0
1577104122230,3641372.0
1577104122277,3621132.0
1577104122333,3609815.0
1577104122380,3603563.0
1577104122425,3608793.0
1577104122474,3619795.0
1577104122524,3630709.0
1577104122571,3641309.0
1577104122619,3644196.0
1577104122677,3659944.0
1577104122722,3711947.0
1577104122771,3753262.0
1577104122820,3769754.0
1577104122869,3793204.0
1577104122911,3798926.0
1577104122968,3806468.0
1577104123018,3828213.0
1577104123065,3842454.0
1577104123114,3868003.0
1577104123158,3876603.0
1577104123211,3858911.0
1577104123260,3859655.0
1577104123310,3886055.0
1577104123352,3896673.0
1577104123407,3886917.0
1577104123455,3855924.0
1577104123503,3836097.0
1577104123553,3820824.0
1577104123601,3813587.0
1577104123651,3817587.0
1577104123698,3822313.0
1577104123749,3819229.0
1577104123795,3820950.0
1577104123847,3817309.0
1577104123897,3809399.0
1577104123944,3803168.0
1577104123993,3799239.0
1577104124037,3776274.0
1577104124091,3754993.0
1577104124139,3752643.0
1577104124191,3775097.0
1577104124234,3783545.0
1577104124287,3762050.0
1577104124336,3739111.0
1577104124384,3714960.0
1577104124434,3698218.0
1577104124483,3694882.0
1577104124531,3696111.0
1577104124579,3697491.0
1577104124630,3704638.0
1577104124676,3701105.0
1577104124728,3690146.0
1577104124779,3685268.0
1577104124825,3678427.0
1577104124874,3675790.0
1577104124923,3672858.0
1577104124973,3671064.0
1577104125021,3675422.0
1577104125070,3680203.0
1577104125115,3680623.0
1577104125170,3682488.0
1577104125218,3679467.0
1577104125267,3674363.0
1577104125315,3669325.0
1577104125358,3666401.0
1577104125414,3670625.0
1577104125463,3668902.0
1577104125512,3668868.0
1577104125561,3665889.0
1577104125609,3684506.0
1577104125659,3695313.0
1577104125707,3709635.0
1577104125755,3740125.0
1577104125805,3775573.0
1577104125853,3806906.0
1577104125902,3859699.0
1577104125951,3918340.0
1577104125994,3976557.0
1577104126045,3954570.0
1577104126101,3956837.0
1577104126147,3912366.0
1577104126195,3887203.0
1577104126245,3865707.0
1577104126293,3863411.0
1577104126341,3865825.0
1577104126392,3865851.0
1577104126434,3864102.0
1577104126489,3866004.0
1577104126539,3864317.0
1577104126588,3863627.0
1577104126636,3872650.0
1577104126685,3888217.0
1577104126734,3914483.0
1577104126784,3942749.0
1577104126832,3931154.0
1577104126876,3906690.0
1577104126931,3893059.0
1577104126981,3882272.0
1577104127031,3871016.0
1577104127075,3864309.0
1577104127125,3880683.0
1577104127175,3908224.0
1577104127222,3931845.0
1577104127272,3953214.0
1577104127318,3946875.0
1577104127363,3925146.0
1577104127422,3906592.0
1577104127468,3892557.0
1577104127516,3886764.0
1577104127564,3883239.0
1577104127614,3879519.0
1577104127662,3880047.0
1577104127713,3879133.0
1577104127759,3878907.0
1577104127810,3880620.0
1577104127857,3879976.0
1577104127908,3883849.0
1577104127956,3885958.0
1577104128006,3884164.0
1577104128050,3888566.0
1577104128102,3892047.0
1577104128154,3898396.0
1577104128202,3905255.0
1577104128250,3915111.0
1577104128297,3950973.0
1577104128347,3997480.0
1577104128396,4024338.0
1577104128445,4049850.0
1577104128494,4064558.0
1577104128539,4072037.0
1577104128592,4075103.0
1577104128640,4078825.0
1577104128689,4084833.0
1577104128737,4090179.0
1577104128788,4097909.0
1577104128832,4104939.0
1577104128886,4110437.0
1577104128933,4117270.0
1577104128979,4125206.0
1577104129031,4131384.0
1577104129084,4141088.0
1577104129130,4149436.0
1577104129178,4150873.0
1577104129229,4150154.0
1577104129269,4154433.0
1577104129324,4156594.0
1577104129368,4162763.0
1577104129425,4159912.0
1577104129466,4163382.0
1577104129519,4163220.0
1577104129563,4167444.0
1577104129611,4170806.0
1577104129661,4173696.0
1577104129710,4179254.0
1577104129760,4180733.0
1577104129808,4180016.0
1577104129860,4179892.0
1577104129909,4178950.0
1577104129957,4178106.0
1577104130006,4178976.0
1577104130052,4176026.0
1577104130104,4181022.0
1577104130157,4178887.0
1577104130204,4184374.0
1577104130254,4186715.0
1577104130305,4188814.0
1577104130352,4196508.0
1577104130401,4196563.0
1577104130450,4192778.0
1577104130497,4191433.0
1577104130548,4194921.0
1577104130596,4196904.0
1577104130640,4198741.0
1577104130689,4198131.0
1577104130741,4194472.0
1577104130785,4196553.0
1577104130837,4207888.0
1577104130889,4224085.0
1577104130938,4236434.0
1577104130988,4250252.0
1577104131035,4260896.0
1577104131081,4269515.0
1577104131134,4276187.0
1577104131182,4277721.0
1577104131232,4282922.0
1577104131280,4285943.0
1577104131330,4286258.0
1577104131372,4295610.0
1577104131428,4298650.0
1577104131475,4299682.0
1577104131523,4298947.0
1577104131573,4302230.0
1577104131622,4303924.0
1577104131672,4310873.0
1577104131719,4312299.0
1577104131770,4317214.0
1577104131817,4320666.0
1577104131861,4322988.0
1577104131915,4326873.0
1577104131966,4324809.0
1577104132014,4329033.0
1577104132060,4329823.0
1577104132111,4332109.0
1577104132155,4335849.0
1577104132210,4340199.0
1577104132257,4343149.0
1577104132303,4346181.0
1577104132355,4347497.0
1577104132408,4348995.0
1577104132453,4351605.0
1577104132502,4354151.0
1577104132552,4355990.0
1577104132599,4356618.0
1577104132650,4361094.0
1577104132697,4362725.0
1577104132747,4364285.0
1577104132795,4360994.0
1577104132846,4366025.0
1577104132894,4366923.0
1577104132943,4364877.0
1577104132993,4369111.0
1577104133041,4370241.0
1577104133093,4372967.0
1577104133138,4372689.0
1577104133190,4373577.0
1577104133237,4374849.0
1577104133284,4375836.0
1577104133334,4376984.0
1577104133383,4379198.0
1577104133433,4376356.0
1577104133483,4379845.0
1577104133532,4378229.0
1577104133580,4383126.0
1577104133625,4382472.0
1577104133676,4382902.0
1577104133730,4387252.0
1577104133774,4385745.0
1577104133823,4389054.0
1577104133872,4392651.0
1577104133921,4391879.0
1577104133967,4389950.0
1577104134018,4385816.0
1577104134066,4385261.0
1577104134116,4389664.0
1577104134171,4390345.0
1577104134214,4393528.0
1577104134263,4392695.0
1577104134308,4394337.0
1577104134356,4393825.0
1577104134406,4395593.0
1577104134458,4392364.0
1577104134506,4396470.0
1577104134550,4397332.0
1577104134603,4399951.0
1577104134649,4402622.0
1577104134700,4401680.0
1577104134746,4402980.0
1577104134797,4403823.0
1577104134846,4399412.0
1577104134898,4399412.0
1577104134946,4398713.0
1577104134997,4401044.0
1577104135049,4404480.0
1577104135096,4397305.0
1577104135144,4400757.0
1577104135194,4401296.0
1577104135238,4402066.0
1577104135285,4404254.0
1577104135340,4401296.0
1577104135385,4404461.0
1577104135438,4404335.0
1577104135487,4406379.0
1577104135536,4403716.0
1577104135585,4409088.0
1577104135635,4411123.0
1577104135682,4408667.0
1577104135733,4404945.0
1577104135780,4400408.0
1577104135829,4400765.0
1577104135877,4398012.0
1577104135929,4392911.0
1577104135976,4388750.0
1577104136026,4390436.0
1577104136074,4391216.0
1577104136123,4390696.0
1577104136170,4395385.0
1577104136220,4398130.0
1577104136269,4403080.0
1577104136317,4403636.0
1577104136368,4407958.0
1577104136416,4408003.0
1577104136464,4408657.0
1577104136510,4408289.0
1577104136562,4409949.0
1577104136609,4411365.0
1577104136654,4411241.0
1577104136711,4410146.0
1577104136754,4409589.0
1577104136804,4406056.0
1577104136849,4404380.0
1577104136905,4403358.0
1577104136948,4403760.0
1577104137002,4401475.0
1577104137054,4402102.0
1577104137100,4404648.0
1577104137150,4403789.0
1577104137196,4403224.0
1577104137248,4404219.0
1577104137294,4395637.0
1577104137345,4395501.0
1577104137390,4397125.0
1577104137443,4397529.0
1577104137495,4400058.0
1577104137539,4403896.0
1577104137594,4403474.0
1577104137638,4408604.0
1577104137687,4408559.0
1577104137734,4414065.0
1577104137782,4410101.0
1577104137828,4403456.0
1577104137882,4398057.0
1577104137933,4399152.0
1577104137979,4403403.0
1577104138029,4407267.0
1577104138077,4409886.0
1577104138127,4412621.0
1577104138171,4412586.0
1577104138225,4417491.0
1577104138269,4415993.0
1577104138317,4420664.0
1577104138375,4422513.0
1577104138419,4425033.0
1577104138469,4425167.0
1577104138516,4430073.0
1577104138567,4430780.0
1577104138609,4434708.0
1577104138664,4436368.0
1577104138713,4434960.0
1577104138761,4430323.0
1577104138813,4429884.0
1577104138859,4428054.0
1577104138908,4428361.0
1577104138957,4429858.0
1577104139007,4428206.0
1577104139050,4425760.0
1577104139105,4425912.0
1577104139149,4426664.0
1577104139204,4423606.0
1577104139250,4427893.0
1577104139299,4429903.0
1577104139350,4427607.0
1577104139397,4429929.0
1577104139446,4433139.0
1577104139491,4438125.0
1577104139543,4439310.0
1577104139594,4440852.0
1577104139641,4447156.0
1577104139691,4447175.0
1577104139738,4441740.0
1577104139789,4439507.0
1577104139837,4434198.0
1577104139886,4430969.0
1577104139930,4429041.0
1577104139983,4431140.0
1577104140029,4423740.0
1577104140075,4425437.0
1577104140126,4424352.0
1577104140179,4422763.0
1577104140229,4426942.0
1577104140275,4425453.0
1577104140320,4425760.0
1577104140374,4427337.0
1577104140423,4425490.0
1577104140476,4427184.0
1577104140520,4425571.0
1577104140569,4431345.0
1577104140618,4430854.0
1577104140668,4432036.0
1577104140712,4425500.0
1577104140760,4407330.0
1577104140811,4394739.0
1577104140860,4380454.0
1577104140910,4394471.0
1577104140958,4446384.0
1577104141007,4502146.0
1577104141054,4541998.0
1577104141109,4578013.0
1577104141151,4587186.0
1577104141204,4522089.0
1577104141255,4449962.0
1577104141303,4425159.0
1577104141352,4411796.0
1577104141401,4408793.0
1577104141450,4410558.0
1577104141499,4405313.0
1577104141550,4393144.0
1577104141591,4378552.0
1577104141644,4371137.0
1577104141690,4359255.0
1577104141740,4335518.0
1577104141788,4317860.0
1577104141837,4302094.0
1577104141886,4285370.0
1577104141937,4267326.0
1577104141988,4252923.0
1577104142030,4236048.0
1577104142086,4220856.0
1577104142135,4207270.0
1577104142183,4201746.0
1577104142232,4194186.0
1577104142281,4187048.0
1577104142330,4176735.0
1577104142377,4169067.0
1577104142429,4161489.0
1577104142475,4156458.0
1577104142525,4149778.0
1577104142578,4144406.0
1577104142622,4141742.0
1577104142672,4132740.0
1577104142721,4112384.0
1577104142770,4086942.0
1577104142813,4068433.0
1577104142869,4050425.0
1577104142914,4037134.0
1577104142965,4021745.0
1577104143014,4007210.0
1577104143058,3998169.0
1577104143112,3983014.0
1577104143156,3978953.0
1577104143210,3971831.0
1577104143252,3962981.0
1577104143309,3958802.0
1577104143356,3953430.0
1577104143406,3950112.0
1577104143454,3947780.0
1577104143497,3942444.0
1577104143553,3940256.0
1577104143601,3938661.0
1577104143646,3937288.0
1577104143693,3936321.0
1577104143749,3924463.0
1577104143798,3898969.0
1577104143845,3876748.0
1577104143893,3860274.0
1577104143943,3846507.0
1577104143992,3835585.0
1577104144041,3820036.0
1577104144090,3803633.0
1577104144132,3790854.0
1577104144185,3786012.0
1577104144237,3782093.0
1577104144285,3782282.0
1577104144334,3783456.0
1577104144382,3787320.0
1577104144432,3787670.0
1577104144479,3788899.0
1577104144529,3784273.0
1577104144577,3785823.0
1577104144628,3776219.0
1577104144679,3757610.0
1577104144726,3739164.0
1577104144774,3722565.0
1577104144824,3714287.0
1577104144872,3699545.0
1577104144916,3669270.0
1577104144969,3630728.0
1577104145018,3597287.0
1577104145061,3594873.0
1577104145109,3572660.0
1577104145161,3554824.0
1577104145213,3535104.0
1577104145256,3521412.0
1577104145307,3522497.0
1577104145357,3545632.0
1577104145410,3588211.0
1577104145457,3587360.0
1577104145508,3560196.0
1577104145555,3523581.0
1577104145605,3484930.0
1577104145654,3464429.0
1577104145702,3456457.0
1577104145751,3454691.0
1577104145795,3441867.0
1577104145849,3421815.0
1577104145896,3404168.0
1577104145941,3391729.0
1577104145989,3368295.0
1577104146038,3388107.0
1577104146087,3399594.0
1577104146138,3400464.0
1577104146192,3370636.0
1577104146236,3332085.0
1577104146290,3314813.0
1577104146339,3285138.0
1577104146387,3250182.0
1577104146435,3220545.0
1577104146484,3191793.0
1577104146533,3174135.0
1577104146580,3147564.0
1577104146631,3147924.0
1577104146679,3135764.0
1577104146729,3105497.0
1577104146777,3088898.0
1577104146828,3081689.0
1577104146874,3077652.0
1577104146921,3050130.0
1577104146967,3027819.0
1577104147021,2999893.0
1577104147067,3002396.0
1577104147119,2982003.0
1577104147166,2940383.0
1577104147217,2929615.0
1577104147268,2910270.0
1577104147315,2890577.0
1577104147365,2887519.0
1577104147414,2891617.0
1577104147464,2890924.0
1577104147512,2835894.0
1577104147563,2810538.0
1577104147609,2787762.0
1577104147657,2752251.0
1577104147709,2730713.0
1577104147755,2715383.0
1577104147806,2709697.0
1577104147853,2706732.0
1577104147900,2698069.0
1577104147951,2687201.0
1577104148003,2684928.0
1577104148049,2685017.0
1577104148098,2684826.0
1577104148148,2680665.0
1577104148195,2682211.0
1577104148245,2686866.0
1577104148293,2678180.0
1577104148339,2648669.0
1577104148392,2619119.0
1577104148441,2603973.0
1577104148489,2594555.0
1577104148536,2590313.0
1577104148587,2590382.0
1577104148635,2591394.0
1577104148684,2592010.0
1577104148734,2595130.0
1577104148782,2592223.0
1577104148832,2595226.0
1577104148879,2597820.0
1577104148929,2606108.0
1577104148977,2605102.0
1577104149028,2582820.0
1577104149071,2567249.0
1577104149120,2563315.0
1577104149175,2565286.0
1577104149226,2569762.0
1577104149271,2566674.0
1577104149315,2563553.0
1577104149371,2560536.0
1577104149416,2563472.0
1577104149467,2574594.0
1577104149514,2586938.0
1577104149563,2600921.0
1577104149612,2613178.0
1577104149664,2595665.0
1577104149711,2578186.0
1577104149752,2577865.0
1577104149804,2591908.0
1577104149853,2639485.0
1577104149903,2678544.0
1577104149951,2726621.0
1577104150000,2751882.0
1577104150053,2768190.0
1577104150101,2781809.0
1577104150150,2802799.0
1577104150199,2844367.0
1577104150249,2920238.0
1577104150295,2949241.0
1577104150344,3015956.0
1577104150394,3057633.0
1577104150444,3124258.0
1577104150493,3195310.0
1577104150541,3201523.0
1577104150586,3193352.0
1577104150638,3188610.0
1577104150690,3190170.0
1577104150736,3190779.0
1577104150781,3180316.0
1577104150834,3170186.0
1577104150884,3172766.0
1577104150932,3191889.0
1577104150980,3218757.0
1577104151029,3235620.0
1577104151073,3241943.0
1577104151128,3255535.0
1577104151178,3271919.0
1577104151226,3297952.0
1577104151274,3331049.0
1577104151322,3367424.0
1577104151372,3394314.0
1577104151420,3415700.0
1577104151470,3428902.0
1577104151517,3448494.0
1577104151563,3464037.0
1577104151615,3481730.0
1577104151667,3493008.0
1577104151713,3514518.0
1577104151761,3521196.0
1577104151807,3512348.0
1577104151858,3497839.0
1577104151909,3493172.0
1577104151956,3486108.0
1577104152001,3484993.0
1577104152051,3487047.0
1577104152100,3487374.0
1577104152149,3489757.0
1577104152198,3491774.0
1577104152251,3495340.0
1577104152299,3489578.0
1577104152349,3487443.0
1577104152396,3481085.0
1577104152446,3471989.0
1577104152494,3467123.0
1577104152544,3469068.0
1577104152593,3471634.0
1577104152641,3470429.0
1577104152691,3467268.0
1577104152738,3465413.0
1577104152783,3464988.0
1577104152836,3466453.0
1577104152884,3469868.0
1577104152934,3473483.0
1577104152983,3476841.0
1577104153034,3478895.0
1577104153075,3477609.0
1577104153126,3480230.0
1577104153179,3491124.0
1577104153227,3505737.0
1577104153271,3521190.0
1577104153330,3534720.0
1577104153374,3543192.0
1577104153419,3549736.0
1577104153472,3559966.0
1577104153521,3564066.0
1577104153566,3559706.0
1577104153617,3555108.0
1577104153668,3548476.0
1577104153716,3541804.0
1577104153766,3531367.0
1577104153814,3519555.0
1577104153862,3514573.0
1577104153913,3510972.0
1577104153960,3507927.0
1577104154007,3503705.0
1577104154057,3501815.0
1577104154105,3499645.0
1577104154151,3496825.0
1577104154207,3493404.0
1577104154254,3492002.0
1577104154303,3489107.0
1577104154354,3484761.0
1577104154401,3484200.0
1577104154446,3474419.0
1577104154499,3465502.0
1577104154546,3458925.0
1577104154592,3450248.0
1577104154647,3446552.0
1577104154695,3443827.0
1577104154744,3439201.0
1577104154793,3433213.0
1577104154841,3429587.0
1577104154888,3428252.0
1577104154939,3426362.0
1577104154987,3423461.0
1577104155037,3422372.0
1577104155088,3414125.0
1577104155135,3411894.0
1577104155188,3403676.0
1577104155232,3399596.0
1577104155281,3398631.0
1577104155328,3397544.0
1577104155374,3393340.0
1577104155430,3389537.0
1577104155472,3387627.0
1577104155527,3385573.0
1577104155571,3385703.0
1577104155624,3385258.0
1577104155667,3385949.0
1577104155718,3379722.0
1577104155774,3370380.0
1577104155820,3362456.0
1577104155869,3357342.0
1577104155911,3353429.0
1577104155966,3352271.0
1577104156011,3350808.0
1577104156062,3348979.0
1577104156109,3352389.0
1577104156156,3355966.0
1577104156215,3352094.0
1577104156260,3352710.0
1577104156314,3355680.0
1577104156357,3356371.0
1577104156408,3352525.0
1577104156454,3344566.0
1577104156505,3339152.0
1577104156548,3336429.0
1577104156603,3340481.0
1577104156652,3344038.0
1577104156700,3343162.0
1577104156751,3342683.0
1577104156797,3344306.0
1577104156847,3344046.0
1577104156894,3343841.0
1577104156945,3350670.0
1577104156990,3356446.0
1577104157042,3361026.0
1577104157093,3363161.0
1577104157139,3359546.0
1577104157193,3361676.0
1577104157236,3373316.0
1577104157287,3380242.0
1577104157329,3382048.0
1577104157384,3381365.0
1577104157431,3379250.0
1577104157482,3378852.0
1577104157532,3378497.0
1577104157579,3378285.0
1577104157629,3377757.0
1577104157677,3379961.0
1577104157727,3379230.0
1577104157773,3379441.0
1577104157824,3379285.0
1577104157869,3375561.0
1577104157922,3369313.0
1577104157974,3361942.0
1577104158019,3357370.0
1577104158068,3356281.0
1577104158117,3356064.0
1577104158165,3352033.0
1577104158210,3351354.0
1577104158262,3350334.0
1577104158313,3350450.0
1577104158360,3351751.0
1577104158410,3352669.0
1577104158458,3352464.0
1577104158509,3355830.0
1577104158556,3356330.0
1577104158606,3357939.0
1577104158650,3350678.0
1577104158703,3344662.0
1577104158754,3337872.0
1577104158801,3337187.0
1577104158851,3333676.0
1577104158898,3331604.0
1577104158948,3330633.0
1577104158996,3329830.0
1577104159047,3329003.0
1577104159094,3329030.0
1577104159143,3329749.0
1577104159196,3331234.0
1577104159241,3332951.0
1577104159290,3334225.0
1577104159338,3334601.0
1577104159384,3336285.0
1577104159436,3339337.0
1577104159487,3338571.0
1577104159529,3331453.0
1577104159585,3327997.0
1577104159634,3322187.0
1577104159677,3316855.0
1577104159731,3318621.0
1577104159774,3319312.0
1577104159823,3319135.0
1577104159872,3317185.0
1577104159926,3316526.0
1577104159972,3317239.0
1577104160020,3322302.0
1577104160075,3325958.0
1577104160123,3328989.0
1577104160173,3330535.0
1577104160221,3327977.0
1577104160270,3326957.0
1577104160319,3323857.0
1577104160369,3324452.0
1577104160414,3325637.0
1577104160467,3325602.0
1577104160515,3325718.0
1577104160564,3327093.0
1577104160613,3325998.0
1577104160655,3320762.0
1577104160705,3313214.0
1577104160752,3307877.0
1577104160807,3303119.0
1577104160855,3299986.0
1577104160906,3296481.0
1577104160953,3294606.0
1577104160999,3292225.0
1577104161049,3288960.0
1577104161098,3289433.0
1577104161147,3288604.0
1577104161200,3289008.0
1577104161249,3287830.0
1577104161293,3289870.0
1577104161347,3290083.0
1577104161395,3290554.0
1577104161444,3292710.0
1577104161493,3295831.0
1577104161542,3293314.0
1577104161591,3283766.0
1577104161640,3280241.0
1577104161689,3273376.0
1577104161731,3271728.0
1577104161786,3268449.0
1577104161837,3267019.0
1577104161883,3264404.0
1577104161932,3260901.0
1577104161981,3258758.0
1577104162031,3259881.0
1577104162074,3258177.0
1577104162128,3256336.0
1577104162173,3254686.0
1577104162227,3255740.0
1577104162278,3273321.0
1577104162324,3340255.0
1577104162372,3416844.0
1577104162422,3473755.0
1577104162470,3512114.0
1577104162513,3513847.0
1577104162569,3572388.0
1577104162618,3619309.0
1577104162666,3660501.0
1577104162713,3673012.0
1577104162763,3729001.0
1577104162813,3732943.0
1577104162860,3764650.0
1577104162909,3785579.0
1577104162952,3830432.0
1577104163009,3870071.0
1577104163057,3903203.0
1577104163105,3916663.0
1577104163152,3929004.0
1577104163202,3930920.0
1577104163251,3934403.0
1577104163326,3944565.0
1577104163372,3952485.0
1577104163400,3968274.0
1577104163447,3987498.0
1577104163501,4009780.0
1577104163549,4030415.0
1577104163597,4035232.0
1577104163639,4079390.0
1577104163696,4077949.0
1577104163735,4082371.0
1577104163801,4103921.0
1577104163840,4111248.0
1577104163892,4103306.0
1577104163937,4174919.0
1577104163985,4197024.0
1577104164037,4210019.0
1577104164079,4214257.0
1577104164135,4223569.0
1577104164175,4252669.0
1577104164230,4301821.0
1577104164281,4318240.0
1577104164321,4312840.0
1577104164377,4323996.0
1577104164419,4339557.0
1577104164476,4339860.0
1577104164516,4349750.0
1577104164574,4372827.0
1577104164617,4399977.0
1577104164665,4425723.0
1577104164720,4440947.0
1577104164767,4443018.0
1577104164812,4443123.0
1577104164865,4434082.0
1577104164915,4403124.0
1577104164956,4369255.0
1577104165013,4399276.0
1577104165059,4380058.0
1577104165109,4354986.0
1577104165153,4341760.0
1577104165203,4330280.0
1577104165257,4354641.0
1577104165299,4351406.0
1577104165360,4368987.0
1577104165397,4351485.0
1577104165444,4335890.0
1577104165496,4337623.0
1577104165542,4334919.0
1577104165593,4323494.0
1577104165643,4311391.0
1577104165692,4317521.0
1577104165741,4341386.0
1577104165798,4341038.0
1577104165839,4309172.0
1577104165891,4280738.0
1577104165938,4254663.0
1577104165990,4261668.0
1577104166038,4252617.0
1577104166082,4250875.0
1577104166137,4242692.0
1577104166178,4235394.0
1577104166237,4223110.0
1577104166280,4215507.0
1577104166331,4209958.0
1577104166382,4207010.0
1577104166424,4201081.0
1577104166479,4204350.0
1577104166524,4207626.0
1577104166576,4232021.0
1577104166618,4232021.0
1577104166675,4234109.0
1577104166719,4240837.0
1577104166770,4235505.0
1577104166820,4230832.0
1577104166869,4227712.0
1577104166919,4229662.0
1577104166961,4230641.0
1577104167017,4226247.0
1577104167058,4233945.0
1577104167111,4223707.0
1577104167159,4242076.0
1577104167209,4243185.0
1577104167259,4267735.0
1577104167300,4250971.0
1577104167359,4267085.0
1577104167398,4273292.0
1577104167456,4310048.0
1577104167501,4273154.0
1577104167554,4249705.0
1577104167601,4244425.0
1577104167652,4248960.0
1577104167699,4246091.0
1577104167742,4246168.0
1577104167797,4251473.0
1577104167840,4268056.0
1577104167895,4272713.0
1577104167942,4265335.0
1577104167992,4249081.0
1577104168042,4233632.0
1577104168086,4198117.0
1577104168140,4188972.0
1577104168182,4205651.0
1577104168238,4240160.0
1577104168285,4244504.0
1577104168335,4279300.0
1577104168382,4303061.0
1577104168431,4330532.0
1577104168481,4352958.0
1577104168529,4352282.0
1577104168579,4323667.0
1577104168621,4288948.0
1577104168678,4275693.0
1577104168720,4240810.0
1577104168773,4203058.0
1577104168831,4174669.0
1577104168875,4159983.0
1577104168922,4136161.0
1577104168969,4118755.0
1577104169019,4091377.0
1577104169061,4050887.0
1577104169118,4003260.0
1577104169166,3973699.0
1577104169208,3959135.0
1577104169264,3950770.0
1577104169306,3959100.0
1577104169355,3951083.0
1577104169409,3940628.0
1577104169459,3911554.0
1577104169500,3905381.0
1577104169558,3925292.0
1577104169603,3981813.0
1577104169656,4049647.0
1577104169697,4094984.0
1577104169754,4118087.0
1577104169794,4134089.0
1577104169853,4141320.0
1577104169899,4139680.0
1577104169941,4124771.0
1577104169997,4109141.0
1577104170045,4095809.0
1577104170089,4074500.0
1577104170144,4045616.0
1577104170190,4023848.0
1577104170241,4009094.0
1577104170295,3995068.0
1577104170337,3983825.0
1577104170383,3969747.0
1577104170438,3948751.0
1577104170486,3941581.0
1577104170534,3933346.0
1577104170583,3926272.0
1577104170628,3931396.0
1577104170680,3938070.0
1577104170722,3917559.0
1577104170771,3891831.0
1577104170828,3876331.0
1577104170876,3851235.0
1577104170925,3841812.0
1577104170973,3842568.0
1577104171022,3859350.0
1577104171065,3863996.0
1577104171111,3867359.0
1577104171167,3866613.0
1577104171212,3857859.0
1577104171264,3856359.0
1577104171309,3858119.0
1577104171362,3850022.0
1577104171412,3833360.0
1577104171462,3815789.0
1577104171505,3806132.0
1577104171559,3795080.0
1577104171604,3799153.0
1577104171657,3825741.0
1577104171706,3843372.0
1577104171754,3838059.0
1577104171805,3830334.0
1577104171851,3779892.0
1577104171901,3764859.0
1577104171944,3759459.0
1577104171999,3761401.0
1577104172046,3788785.0
1577104172091,3838466.0
1577104172146,3863614.0
1577104172192,3890722.0
1577104172244,3906897.0
1577104172284,3919268.0
1577104172332,3927253.0
1577104172385,3935349.0
1577104172439,3941546.0
1577104172482,3950033.0
1577104172535,3946922.0
1577104172585,3950025.0
1577104172626,3936536.0
1577104172674,3964588.0
1577104172724,3964822.0
1577104172774,3989546.0
1577104172825,4013523.0
1577104172873,4015518.0
1577104172920,4023795.0
1577104172975,4027306.0
1577104173026,4047817.0
1577104173066,4063126.0
1577104173123,4072204.0
1577104173171,4096164.0
1577104173218,4105933.0
1577104173269,4137713.0
1577104173323,4160140.0
1577104173367,4198213.0
1577104173414,4233313.0
1577104173466,4220812.0
1577104173506,4274212.0
1577104173564,4308297.0
1577104173608,4340433.0
1577104173660,4337017.0
1577104173709,4327889.0
1577104173750,4304812.0
1577104173807,4297504.0
1577104173848,4290214.0
1577104173905,4291766.0
1577104173946,4303833.0
1577104174002,4334608.0
1577104174048,4367185.0
1577104174093,4397594.0
1577104174150,4440106.0
1577104174195,4453829.0
1577104174246,4482826.0
1577104174301,4509326.0
1577104174341,4523414.0
1577104174389,4540716.0
1577104174442,4552894.0
1577104174488,4555591.0
1577104174538,4517457.0
1577104174590,4441900.0
1577104174634,4367254.0
1577104174686,4326076.0
1577104174730,4307577.0
1577104174782,4301795.0
1577104174835,4300348.0
1577104174878,4304560.0
1577104174933,4296697.0
1577104174972,4279403.0
1577104175029,4264338.0
1577104175070,4256233.0
1577104175126,4252184.0
1577104175172,4245778.0
1577104175216,4233207.0
1577104175271,4227539.0
1577104175312,4221470.0
1577104175368,4215905.0
1577104175410,4208589.0
1577104175469,4203908.0
1577104175509,4204462.0
1577104175566,4195742.0
1577104175612,4178620.0
1577104175656,4191597.0
1577104175711,4188529.0
1577104175754,4192967.0
1577104175809,4259484.0
1577104175856,4353592.0
1577104175907,4421095.0
1577104175950,4442906.0
1577104176004,4448896.0
1577104176052,4477009.0
1577104176095,4494295.0
1577104176148,4523005.0
1577104176193,4561538.0
1577104176250,4574915.0
1577104176301,4569002.0
1577104176338,4577991.0
1577104176396,4578582.0
1577104176437,4562458.0
1577104176491,4525484.0
1577104176534,4495577.0
1577104176588,4472380.0
1577104176631,4468721.0
1577104176689,4474522.0
1577104176730,4464709.0
1577104176783,4462549.0
1577104176835,4451254.0
1577104176886,4450785.0
1577104176931,4445939.0
1577104176981,4444604.0
1577104177028,4447431.0
1577104177076,4450517.0
1577104177129,4429322.0
1577104177174,4446175.0
1577104177228,4446980.0
1577104177273,4451185.0
1577104177326,4447380.0
1577104177369,4444424.0
1577104177414,4450222.0
1577104177464,4452528.0
1577104177512,4448394.0
1577104177568,4445498.0
1577104177616,4441744.0
1577104177657,4434271.0
1577104177710,4438519.0
1577104177756,4428438.0
1577104177803,4426548.0
1577104177858,4421841.0
1577104177905,4411231.0
1577104177953,4412757.0
1577104178001,4433414.0
1577104178049,4466025.0
1577104178097,4478612.0
1577104178153,4472346.0
1577104178199,4489205.0
1577104178248,4507609.0
1577104178295,4546653.0
1577104178347,4564408.0
1577104178389,4568257.0
1577104178447,4560757.0
1577104178493,4545214.0
1577104178544,4522408.0
1577104178592,4495274.0
1577104178638,4460243.0
1577104178685,4456057.0
1577104178736,4421329.0
1577104178786,4411881.0
1577104178835,4379198.0
1577104178879,4367384.0
1577104178930,4360015.0
1577104178978,4365866.0
1577104179028,4363196.0
1577104179075,4373556.0
1577104179131,4380074.0
1577104179174,4386220.0
1577104179230,4388345.0
1577104179277,4391318.0
1577104179325,4399666.0
1577104179374,4401712.0
1577104179424,4403533.0
1577104179469,4401574.0
1577104179518,4403082.0
1577104179571,4401479.0
1577104179613,4398608.0
1577104179669,4389585.0
1577104179717,4367981.0
1577104179765,4389593.0
1577104179812,4409220.0
1577104179860,4420020.0
1577104179907,4423929.0
1577104179953,4414758.0
1577104180010,4416942.0
1577104180051,4443851.0
1577104180100,4492483.0
1577104180157,4500675.0
1577104180204,4493600.0
1577104180252,4490341.0
1577104180296,4472015.0
1577104180349,4493791.0
1577104180396,4498108.0
1577104180449,4507895.0
1577104180498,4482523.0
1577104180547,4428013.0
1577104180592,4389550.0
1577104180644,4372620.0
1577104180691,4367185.0
1577104180738,4386464.0
1577104180800,4411690.0
1577104180834,4474955.0
1577104180890,4497901.0
1577104180936,4520803.0
1577104180985,4559934.0
1577104181032,4518932.0
1577104181083,4486050.0
1577104181130,4473957.0
1577104181173,4467378.0
1577104181229,4437367.0
1577104181274,4430795.0
1577104181325,4422387.0
1577104181373,4414628.0
1577104181426,4404079.0
1577104181473,4418998.0
1577104181522,4431731.0
1577104181568,4414012.0
1577104181614,4426044.0
1577104181672,4471200.0
1577104181715,4494598.0
1577104181766,4488555.0
1577104181815,4490906.0
1577104181865,4430197.0
1577104181913,4446850.0
1577104181955,4492986.0
1577104182007,4532020.0
1577104182060,4522971.0
1577104182103,4463053.0
1577104182156,4469788.0
1577104182205,4458422.0
1577104182257,4465592.0
1577104182299,4481552.0
1577104182348,4483293.0
1577104182393,4487430.0
1577104182450,4471842.0
1577104182499,4471123.0
1577104182542,4458621.0
1577104182591,4510671.0
1577104182645,4477009.0
1577104182695,4491686.0
1577104182736,4500987.0
1577104182804,4505730.0
1577104182837,4523483.0
1577104182890,4505719.0
1577104182937,4479341.0
1577104182989,4504610.0
1577104183037,4498395.0
1577104183084,4474599.0
1577104183134,4545960.0
1577104183176,4443349.0
1577104183236,4440600.0
1577104183277,4458735.0
1577104183334,4496826.0
1577104183377,4513460.0
1577104183429,4445992.0
1577104183477,4440669.0
1577104183524,4472580.0
1577104183575,4448160.0
1577104183616,4471444.0
1577104183673,4476584.0
1577104183716,4475302.0
1577104183770,4458120.0
1577104183824,4460598.0
1577104183861,4464698.0
1577104183918,4458701.0
1577104183957,4443522.0
1577104184006,4430561.0
1577104184059,4423141.0
1577104184107,4419492.0
1577104184158,4425654.0
1577104184203,4434966.0
1577104184258,4439352.0
1577104184298,4456941.0
1577104184355,4461821.0
1577104184396,4455121.0
1577104184455,4464924.0
1577104184496,4458839.0
1577104184550,4452295.0
1577104184598,4469918.0
1577104184649,4464258.0
1577104184698,4463589.0
1577104184744,4445949.0
1577104184797,4425819.0
1577104184837,4423810.0
1577104184895,4426617.0
1577104184939,4426634.0
1577104184989,4467334.0
1577104185039,4456716.0
1577104185088,4471964.0
1577104185138,4462132.0
1577104185178,4466511.0
1577104185238,4534517.0
1577104185277,4532914.0
1577104185332,4517310.0
1577104185381,4523491.0
1577104185430,4493637.0
1577104185479,4486899.0
1577104185526,4484256.0
1577104185577,4476576.0
1577104185618,4461423.0
1577104185676,4454028.0
1577104185719,4452555.0
1577104185770,4469085.0
1577104185821,4498013.0
1577104185871,4508312.0
1577104185918,4494711.0
1577104185961,4502487.0
1577104186016,4501325.0
1577104186059,4500043.0
1577104186108,4494980.0
1577104186158,4490168.0
1577104186204,4503302.0
1577104186261,4483433.0
1577104186301,4477157.0
1577104186358,4469711.0
1577104186399,4469995.0
1577104186456,4470377.0
1577104186498,4471799.0
1577104186554,4500969.0
1577104186602,4500354.0
1577104186650,4500502.0
1577104186699,4501359.0
1577104186747,4495126.0
1577104186796,4502763.0
1577104186839,4506223.0
1577104186895,4506162.0
1577104186942,4509639.0
1577104186993,4513141.0
1577104187041,4502798.0
1577104187090,4498387.0
1577104187138,4493435.0
1577104187185,4497527.0
1577104187238,4495274.0
1577104187282,4479211.0
1577104187335,4490290.0
1577104187380,4473195.0
1577104187431,4509612.0
1577104187473,4492336.0
1577104187528,4507505.0
1577104187571,4495317.0
1577104187619,4501142.0
1577104187677,4501619.0
1577104187722,4497596.0
1577104187765,4497997.0
1577104187821,4506985.0
1577104187871,4495821.0
1577104187920,4489587.0
1577104187966,4470672.0
1577104188017,4471226.0
1577104188060,4467100.0
1577104188108,4484768.0
1577104188163,4475024.0
1577104188217,4509204.0
1577104188264,4502070.0
1577104188303,4540170.0
1577104188358,4524107.0
1577104188407,4547269.0
1577104188458,4514423.0
1577104188501,4529021.0
1577104188548,4505563.0
1577104188603,4512256.0
1577104188655,4503379.0
1577104188702,4474936.0
1577104188750,4473671.0
1577104188800,4485538.0
1577104188842,4506361.0
1577104188899,4481915.0
1577104188942,4486918.0
1577104188990,4508320.0
1577104189044,4521445.0
1577104189094,4534682.0
1577104189142,4536582.0
1577104189189,4518351.0
1577104189241,4517491.0
1577104189283,4509734.0
1577104189336,4532965.0
1577104189381,4518176.0
1577104189435,4514102.0
1577104189484,4538713.0
1577104189533,4581902.0
1577104189582,4601484.0
1577104189626,4597835.0
1577104189673,4584510.0
1577104189721,4557525.0
1577104189778,4604294.0
1577104189831,4615527.0
1577104189875,4643407.0
1577104189924,4675655.0
1577104189972,4600894.0
1577104190021,4584598.0
1577104190064,4561261.0
1577104190112,4556294.0
1577104190166,4560428.0
1577104190218,4549280.0
1577104190259,4541860.0
1577104190308,4577974.0
1577104190368,4604830.0
1577104190410,4615145.0
1577104190458,4606547.0
1577104190503,4604397.0
1577104190559,4599907.0
1577104190606,4631192.0
1577104190657,4680708.0
1577104190706,4723315.0
1577104190753,4711421.0
1577104190804,4679356.0
1577104190846,4672229.0
1577104190901,4665043.0
1577104190953,4709028.0
1577104190998,4676981.0
1577104191046,4688180.0
1577104191096,4689446.0
1577104191146,4708343.0
1577104191193,4719813.0
1577104191245,4705666.0
1577104191287,4755364.0
1577104191337,4666839.0
1577104191384,4644612.0
1577104191439,4635926.0
1577104191486,4630316.0
1577104191534,4644819.0
1577104191586,4683958.0
1577104191632,4682945.0
1577104191676,4695714.0
1577104191725,4759411.0
1577104191781,4746938.0
1577104191830,4725802.0
1577104191878,4687106.0
1577104191928,4684133.0
1577104191972,4730666.0
1577104192025,4735000.0
1577104192066,4693564.0
1577104192117,4691604.0
1577104192173,4689974.0
1577104192221,4670583.0
1577104192268,4665868.0
1577104192323,4651885.0
1577104192370,4655282.0
1577104192409,4646440.0
1577104192465,4642452.0
1577104192505,4669880.0
1577104192563,4668442.0
1577104192608,4688926.0
1577104192658,4712409.0
1577104192708,4710078.0
1577104192756,4732694.0
1577104192807,4698851.0
1577104192859,4680665.0
1577104192904,4710225.0
1577104192947,4707433.0
1577104193002,4702067.0
1577104193047,4698296.0
1577104193098,4657164.0
1577104193150,4639583.0
1577104193194,4666473.0
1577104193248,4658387.0
1577104193303,4681132.0
1577104193342,4631486.0
1577104193386,4607508.0
1577104193441,4623278.0
1577104193488,4617053.0
1577104193538,4618821.0
1577104193590,4642531.0
1577104193635,4628626.0
1577104193686,4665953.0
1577104193727,4687427.0
1577104193783,4675246.0
1577104193833,4665043.0
1577104193875,4654295.0
1577104193932,4644272.0
1577104193971,4696356.0
1577104194029,4654415.0
1577104194069,4671112.0
1577104194120,4674301.0
1577104194175,4630550.0
1577104194222,4594003.0
1577104194291,4583107.0
1577104194329,4584797.0
1577104194373,4607534.0
1577104194433,4616551.0
1577104194464,4624412.0
1577104194510,4620208.0
1577104194565,4625972.0
1577104194609,4631115.0
1577104194661,4618059.0
1577104194711,4618327.0
1577104194754,4612486.0
1577104194808,4626633.0
1577104194851,4633220.0
1577104194908,4637269.0
1577104194949,4620885.0
1577104195006,4624136.0
1577104195050,4617130.0
1577104195102,4649829.0
1577104195153,4632510.0
1577104195199,4664254.0
1577104195252,4649041.0
1577104195290,4645522.0
1577104195348,4639055.0
1577104195391,4655526.0
1577104195445,4643866.0
1577104195490,4653401.0
1577104195541,4647558.0
1577104195588,4664923.0
1577104195641,4642356.0
1577104195690,4676772.0
1577104195730,4641066.0
1577104195788,4615936.0
1577104195829,4594627.0
1577104195884,4602126.0
1577104195930,4610673.0
1577104195982,4638933.0
1577104196028,4655906.0
1577104196076,4662235.0
1577104196127,4657536.0
1577104196174,4654529.0
1577104196229,4671398.0
1577104196268,4630030.0
1577104196323,4621291.0
1577104196369,4626484.0
1577104196412,4626962.0
1577104196463,4630489.0
1577104196510,4615970.0
1577104196561,4604787.0
1577104196609,4597678.0
1577104196663,4605758.0
1577104196711,4615665.0
1577104196755,4654051.0
1577104196811,4623693.0
1577104196859,4659279.0
1577104196908,4674901.0
1577104196955,4709219.0
1577104197009,4696476.0
1577104197049,4661325.0
1577104197106,4662660.0
1577104197153,4672845.0
1577104197204,4682026.0
1577104197249,4679885.0
1577104197299,4779081.0
1577104197348,4797303.0
1577104197395,4759663.0
1577104197442,4776124.0
1577104197489,4769649.0
1577104197545,4849099.0
1577104197592,4859615.0
1577104197643,4862136.0
1577104197689,4847538.0
1577104197739,4811243.0
1577104197788,4777079.0
1577104197837,4731351.0
1577104197888,4752963.0
1577104197930,4763729.0
1577104197986,4846299.0
1577104198035,4839875.0
1577104198076,4894254.0
1577104198130,4885109.0
1577104198178,4855913.0
1577104198233,4844348.0
1577104198271,4845267.0
1577104198328,4870018.0
1577104198373,4874057.0
1577104198424,4875487.0
1577104198473,4854300.0
1577104198523,4800570.0
1577104198572,4794148.0
1577104198618,4778181.0
1577104198667,4752156.0
1577104198716,4714611.0
1577104198770,4746477.0
1577104198815,4713016.0
1577104198866,4721131.0
1577104198913,4743253.0
1577104198965,4738060.0
1577104199012,4774469.0
1577104199059,4756473.0
1577104199107,4840439.0
1577104199150,4863402.0
1577104199208,4828052.0
1577104199257,4825069.0
1577104199306,4799461.0
1577104199352,4796401.0
1577104199403,4778812.0
1577104199450,4742369.0
1577104199498,4733882.0
1577104199550,4718149.0
1577104199591,4719510.0
1577104199649,4715081.0
1577104199699,4713650.0
1577104199746,4703169.0
1577104199792,4702086.0
1577104199844,4694881.0
1577104199892,4687687.0
1577104199937,4703203.0
1577104199988,4702561.0
1577104200039,4703941.0
1577104200080,4706273.0
1577104200132,4710156.0
1577104200184,4715973.0
1577104200235,4707149.0
1577104200283,4712695.0
1577104200333,4720325.0
1577104200377,4721702.0
1577104200428,4737420.0
1577104200477,4747119.0
1577104200529,4703081.0
1577104200579,4701261.0
1577104200626,4692514.0
1577104200672,4695610.0
1577104200724,4714264.0
1577104200772,4703152.0
1577104200819,4703845.0
1577104200868,4708484.0
1577104200916,4707443.0
1577104200969,4710164.0
1577104201017,4702311.0
1577104201064,4704867.0
1577104201115,4745047.0
1577104201157,4709193.0
1577104201210,4735000.0
1577104201254,4724069.0
1577104201309,4709678.0
1577104201357,4709245.0
1577104201409,4743513.0
1577104201456,4752260.0
1577104201496,4781100.0
1577104201554,4784186.0
1577104201597,4801369.0
1577104201650,4838133.0
1577104201693,4868622.0
1577104201747,4835620.0
1577104201794,4835212.0
1577104201848,4804187.0
1577104201896,4796481.0
1577104201945,4761502.0
1577104201994,4845606.0
1577104202035,4811928.0
1577104202087,4785011.0
1577104202136,4756134.0
1577104202191,4753353.0
1577104202241,4814468.0
1577104202288,4815707.0
1577104202336,4808112.0
1577104202378,4810567.0
1577104202434,4792986.0
1577104202475,4784552.0
1577104202529,4780468.0
1577104202577,4769546.0
1577104202629,4748645.0
1577104202677,4775875.0
1577104202727,4726601.0
1577104202776,4777165.0
1577104202816,4747318.0
1577104202874,4727848.0
1577104202915,4736067.0
1577104202970,4751861.0
1577104203018,4806666.0
1577104203060,4799445.0
1577104203117,4800918.0
1577104203163,4794642.0
1577104203215,4831077.0
1577104203257,4827922.0
1577104203314,4803986.0
1577104203358,4796324.0
1577104203409,4766468.0
1577104203458,4781084.0
1577104203509,4769702.0
1577104203557,4823482.0
1577104203602,4772969.0
1577104203655,4742196.0
1577104203695,4748178.0
1577104203754,4728655.0
1577104203798,4770074.0
1577104203849,4754480.0
1577104203898,4743298.0
1577104203948,4734177.0
1577104203998,4757556.0
1577104204039,4753188.0
1577104204096,4733293.0
1577104204145,4723246.0
1577104204194,4730502.0
1577104204239,4720845.0
1577104204290,4743401.0
1577104204339,4737316.0
1577104204386,4708518.0
1577104204436,4703490.0
1577104204477,4703577.0
1577104204535,4691059.0
1577104204578,4719587.0
1577104204634,4692636.0
1577104204679,4729833.0
1577104204727,4694708.0
1577104204778,4732391.0
1577104204827,4716596.0
1577104204876,4720967.0
1577104204917,4741337.0
1577104204971,4700334.0
1577104205028,4709896.0
1577104205064,4716795.0
1577104205118,4705241.0
1577104205169,4678558.0
1577104205219,4676650.0
1577104205260,4663161.0
1577104205316,4690755.0
1577104205359,4675403.0
1577104205407,4709644.0
1577104205457,4698376.0
1577104205507,4682477.0
1577104205553,4691293.0
1577104205605,4687660.0
1577104205653,4667861.0
1577104205701,4676772.0
1577104205757,4679330.0
1577104205798,4687538.0
1577104205855,4696720.0
1577104205901,4697638.0
1577104205953,4702648.0
1577104206000,4636290.0
1577104206051,4690616.0
1577104206098,4708542.0
1577104206148,4672664.0
1577104206196,4736926.0
1577104206238,4708768.0
1577104206295,4698246.0
1577104206341,4697890.0
1577104206392,4696494.0
1577104206440,4698262.0
1577104206488,4675750.0
1577104206538,4696311.0
1577104206580,4672906.0
1577104206636,4710381.0
1577104206682,4659348.0
1577104206734,4649474.0
1577104206782,4663864.0
1577104206829,4661731.0
1577104206880,4690807.0
1577104206930,4679131.0
1577104206978,4681549.0
1577104207020,4688648.0
1577104207075,4700090.0
1577104207122,4686915.0
1577104207174,4663848.0
1577104207223,4639410.0
1577104207263,4755892.0
1577104207319,4663978.0
1577104207362,4677985.0
1577104207418,4683465.0
1577104207461,4623902.0
1577104207515,4631218.0
1577104207564,4641456.0
1577104207612,4625011.0
1577104207663,4635536.0
1577104207705,4616941.0
1577104207759,4617530.0
1577104207803,4629510.0
1577104207857,4664480.0
1577104207901,4648173.0
1577104207956,4627238.0
1577104208004,4621543.0
1577104208046,4630897.0
1577104208101,4630030.0
1577104208148,4620582.0
1577104208193,4620901.0
1577104208242,4598016.0
1577104208298,4610031.0
1577104208343,4625054.0
1577104208395,4586270.0
1577104208444,4633230.0
1577104208485,4605618.0
1577104208541,4613916.0
1577104208591,4613455.0
1577104208638,4624412.0
1577104208681,4636411.0
1577104208737,4638864.0
1577104208784,4634461.0
1577104208835,4642799.0
1577104208885,4649943.0
1577104208930,4657259.0
1577104208980,4655760.0
1577104209027,4638041.0
1577104209078,4651225.0
1577104209121,4629310.0
1577104209177,4629979.0
1577104209225,4643563.0
1577104209267,4640822.0
1577104209323,4641942.0
1577104209369,4648815.0
1577104209420,4657206.0
1577104209464,4674700.0
1577104209518,4673540.0
1577104209566,4650524.0
1577104209617,4656505.0
1577104209665,4654449.0
1577104209708,4660640.0
1577104209764,4652560.0
1577104209806,4639670.0
1577104209860,4639288.0
1577104209904,4656566.0
1577104209959,4651416.0
1577104210006,4670514.0
1577104210048,4654579.0
1577104210105,4685381.0
1577104210155,4657172.0
1577104210203,4690635.0
1577104210244,4662877.0
1577104210301,4669639.0
1577104210343,4650065.0
1577104210391,4635223.0
1577104210438,4636125.0
1577104210487,4651503.0
1577104210539,4653263.0
1577104210589,4632250.0
1577104210637,4623000.0
1577104210685,4624213.0
1577104210737,4629241.0
1577104210786,4619706.0
1577104210837,4642279.0
1577104210887,4638821.0
1577104210933,4617061.0
1577104210985,4609607.0
1577104211026,4615198.0
1577104211082,4615936.0
1577104211125,4619091.0
1577104211179,4636393.0
1577104211223,4656617.0
1577104211268,4653427.0
1577104211317,4639496.0
1577104211366,4628668.0
1577104211415,4617687.0
1577104211468,4611228.0
1577104211514,4614869.0
1577104211567,4616567.0
1577104211613,4666465.0
1577104211663,4653539.0
1577104211711,4665425.0
1577104211766,4658480.0
1577104211811,4677128.0
1577104211863,4662330.0
1577104211906,4702457.0
1577104211961,4688172.0
1577104212007,4671284.0
1577104212059,4691285.0
1577104212108,4663257.0
1577104212150,4653661.0
1577104212205,4673686.0
1577104212249,4689351.0
1577104212305,4734394.0
1577104212346,4775970.0
1577104212402,4666855.0
1577104212447,4680665.0
1577104212499,4696693.0
1577104212549,4682632.0
1577104212596,4685208.0
1577104212646,4669673.0
1577104212687,4673139.0
1577104212743,4694647.0
1577104212786,4676295.0
1577104212840,4703731.0
1577104212892,4698270.0
1577104212936,4703524.0
1577104212990,4699536.0
1577104213028,4706446.0
1577104213087,4696380.0
1577104213129,4769477.0
1577104213184,4703038.0
1577104213232,4713094.0
1577104213280,4700292.0
1577104213331,4699891.0
1577104213379,4710113.0
1577104213429,4712791.0
1577104213470,4709004.0
1577104213522,4708327.0
1577104213570,4720394.0
1577104213624,4733830.0
1577104213672,4721641.0
1577104213715,4710113.0
1577104213768,4691665.0
1577104213813,4692410.0
1577104213870,4694586.0
1577104213909,4736743.0
1577104213966,4699329.0
1577104214009,4712565.0
1577104214065,4701712.0
1577104214111,4722570.0
1577104214154,4710442.0
1577104214208,4724963.0
1577104214254,4707191.0
1577104214309,4709020.0
1577104214349,4689940.0
1577104214405,4707712.0
1577104214449,4691449.0
1577104214503,4680630.0
1577104214548,4692809.0
1577104214594,4695072.0
1577104214644,4717576.0
1577104214693,4703672.0
1577104214744,4723663.0
1577104214790,4690486.0
1577104214846,4696391.0
1577104214889,4712653.0
1577104214942,4702338.0
1577104214990,4698227.0
1577104215038,4690755.0
1577104215088,4707043.0
1577104215133,4705214.0
1577104215189,4711456.0
1577104215229,4707616.0
1577104215286,4694674.0
1577104215329,4689733.0
1577104215377,4672075.0
1577104215431,4689446.0
1577104215480,4690478.0
1577104215524,4690295.0
1577104215570,4707399.0
1577104215619,4681904.0
1577104215671,4704989.0
1577104215718,4697360.0
1577104215769,4694769.0
1577104215815,4714109.0
1577104215867,4689021.0
1577104215918,4727102.0
1577104215968,4775050.0
1577104216015,4685051.0
1577104216069,4658334.0
1577104216109,4663180.0
1577104216158,4666483.0
1577104216214,4681782.0
1577104216254,4734299.0
1577104216310,4727787.0
1577104216360,4696632.0
1577104216411,4687737.0
1577104216451,4721590.0
1577104216508,4697760.0
1577104216549,4699589.0
1577104216599,4724337.0
1577104216652,4701106.0
1577104216697,4725881.0
1577104216747,4702319.0
1577104216799,4678011.0
1577104216848,4651676.0
1577104216892,4632856.0
1577104216948,4655171.0
1577104216993,4702006.0
1577104217043,4730024.0
1577104217091,4714152.0
1577104217135,4699719.0
1577104217187,4707173.0
1577104217237,4721564.0
1577104217290,4691328.0
1577104217330,4757288.0
1577104217388,4672205.0
1577104217436,4722846.0
1577104217485,4697344.0
1577104217531,4634183.0
1577104217582,4624698.0
1577104217627,4614139.0
1577104217677,4667983.0
1577104217724,4681713.0
1577104217774,4687955.0
1577104217826,4704434.0
1577104217877,4678818.0
1577104217917,4678826.0
1577104217974,4701340.0
1577104218022,4673383.0
1577104218068,4672967.0
1577104218115,4639697.0
1577104218168,4714733.0
1577104218211,4660518.0
1577104218268,4601293.0
1577104218316,4596049.0
1577104218365,4608627.0
1577104218412,4610647.0
1577104218453,4629788.0
1577104218508,4637486.0
1577104218552,4633411.0
1577104218610,4628668.0
1577104218657,4642860.0
1577104218706,4631131.0
1577104218752,4629650.0
1577104218803,4632604.0
1577104218851,4657796.0
1577104218899,4619133.0
1577104218942,4634936.0
1577104218991,4601492.0
1577104219041,4573389.0
1577104219095,4591307.0
1577104219139,4607760.0
1577104219194,4677059.0
1577104219244,4583582.0
1577104219290,4677085.0
1577104219339,4655022.0
1577104219389,4629571.0
1577104219431,4641812.0
1577104219489,4626476.0
1577104219535,4575087.0
1577104219587,4573511.0
1577104219635,4595876.0
1577104219681,4608879.0
1577104219727,4616437.0
1577104219779,4614834.0
1577104219827,4604596.0
1577104219873,4632259.0
1577104219930,4615545.0
1577104219974,4599066.0
1577104220026,4631356.0
1577104220076,4617451.0
1577104220123,4635595.0
1577104220174,4642964.0
1577104220219,4664992.0
1577104220269,4674094.0
1577104220317,4663267.0
1577104220361,4659088.0
1577104220413,4650861.0
1577104220467,4659972.0
1577104220515,4682884.0
1577104220555,4657588.0
1577104220605,4688154.0
1577104220653,4694204.0
1577104220707,4758225.0
1577104220755,4756603.0
1577104220809,4764222.0
1577104220857,4783555.0
1577104220906,4741597.0
1577104220955,4760608.0
1577104220998,4764310.0
1577104221052,4756811.0
1577104221093,4747960.0
1577104221145,4725412.0
1577104221195,4711864.0
1577104221252,4704079.0
1577104221296,4714404.0
1577104221347,4714118.0
1577104221396,4687695.0
1577104221443,4667853.0
1577104221494,4652032.0
1577104221535,4667609.0
1577104221592,4695489.0
1577104221634,4715713.0
1577104221687,4715530.0
1577104221735,4722925.0
1577104221781,4694310.0
1577104221828,4712600.0
1577104221876,4694318.0
1577104221930,4696555.0
1577104221976,4698886.0
1577104222028,4740010.0
1577104222075,4698877.0
1577104222128,4751394.0
1577104222178,4704824.0
1577104222226,4678290.0
1577104222270,4636505.0
1577104222319,4635517.0
1577104222374,4653019.0
1577104222417,4656505.0
1577104222469,4673296.0
1577104222521,4654900.0
1577104222570,4679824.0
1577104222617,4671390.0
1577104222666,4633636.0
1577104222715,4653748.0
1577104222758,4630897.0
1577104222811,4632829.0
1577104222855,4643649.0
1577104222913,4617565.0
1577104222958,4616169.0
1577104223009,4622852.0
1577104223057,4625739.0
1577104223104,4662920.0
1577104223149,4669031.0
1577104223196,4711464.0
1577104223255,4679322.0
1577104223295,4706844.0
1577104223349,4666613.0
1577104223399,4701842.0
1577104223451,4701011.0
1577104223498,4680267.0
1577104223540,4636680.0
1577104223596,4677380.0
1577104223636,4660059.0
1577104223694,4671364.0
1577104223736,4701911.0
1577104223788,4653332.0
1577104223839,4591290.0
1577104223888,4622453.0
1577104223937,4633142.0
1577104223983,4619107.0
1577104224035,4623573.0
1577104224077,4646432.0
1577104224134,4615354.0
1577104224178,4620277.0
1577104224229,4610108.0
1577104224279,4610015.0
1577104224327,4610586.0
1577104224370,4608410.0
1577104224421,4625038.0
1577104224476,4626399.0
1577104224517,4617711.0
1577104224575,4608384.0
1577104224619,4594775.0
1577104224670,4588082.0
1577104224719,4594645.0
1577104224768,4600557.0
1577104224816,4639644.0
1577104224861,4615771.0
1577104224915,4623242.0
1577104224958,4583712.0
1577104225014,4600340.0
1577104225061,4605125.0
1577104225111,4593162.0
1577104225153,4595147.0
1577104225201,4636619.0
1577104225260,4591349.0
1577104225300,4615875.0
1577104225356,4585864.0
1577104225404,4542468.0
1577104225454,4520630.0
1577104225503,4525078.0
1577104225552,4550087.0
1577104225599,4579898.0
1577104225641,4576717.0
1577104225688,4594271.0
1577104225739,4528318.0
1577104225787,4534326.0
1577104225837,4534977.0
1577104225894,4514198.0
1577104225942,4517006.0
1577104225990,4551196.0
1577104226040,4526118.0
1577104226086,4571568.0
1577104226137,4536972.0
1577104226180,4517292.0
1577104226236,4494780.0
1577104226281,4485400.0
1577104226335,4515835.0
1577104226383,4547035.0
1577104226429,4521047.0
1577104226480,4537213.0
1577104226529,4496574.0
1577104226579,4529584.0
1577104226621,4504905.0
1577104226677,4514155.0
1577104226720,4501603.0
1577104226768,4538142.0
1577104226824,4531179.0
1577104226867,4546159.0
1577104226912,4517804.0
1577104226963,4486849.0
1577104227013,4472805.0
1577104227060,4473793.0
1577104227111,4484317.0
1577104227162,4527928.0
1577104227214,4515386.0
1577104227266,4537335.0
1577104227311,4506847.0
1577104227360,4501967.0
1577104227408,4493714.0
1577104227458,4508676.0
1577104227502,4506760.0
1577104227549,4546334.0
1577104227604,4506863.0
1577104227654,4551682.0
1577104227702,4493626.0
1577104227745,4466901.0
1577104227799,4454834.0
1577104227843,4461102.0
1577104227897,4492283.0
1577104227942,4513972.0
1577104227996,4511207.0
1577104228044,4516738.0
1577104228092,4483529.0
1577104228141,4494364.0
1577104228187,4473211.0
1577104228239,4473931.0
1577104228283,4473256.0
1577104228338,4508460.0
1577104228384,4492655.0
1577104228436,4511191.0
1577104228484,4473352.0
1577104228533,4435078.0
1577104228581,4408838.0
1577104228623,4422968.0
1577104228673,4463268.0
1577104228721,4493956.0
1577104228777,4505390.0
1577104228824,4506380.0
1577104228875,4467516.0
1577104228924,4451305.0
1577104228972,4429486.0
1577104229020,4429088.0
1577104229066,4427891.0
1577104229116,4451774.0
1577104229165,4435451.0
1577104229217,4453067.0
1577104229270,4421554.0
1577104229315,4416241.0
1577104229364,4383516.0
1577104229409,4384123.0
1577104229461,4401147.0
1577104229505,4445480.0
1577104229560,4459576.0
1577104229606,4465566.0
1577104229657,4438182.0
1577104229706,4447465.0
1577104229752,4419267.0
1577104229803,4438328.0
1577104229849,4417247.0
1577104229900,4473845.0
1577104229945,4412964.0
1577104229992,4431975.0
1577104230046,4408612.0
1577104230097,4365484.0
1577104230145,4360068.0
1577104230192,4373894.0
1577104230244,4368241.0
1577104230285,4340459.0
1577104230333,4354944.0
1577104230385,4375141.0
1577104230432,4359694.0
1577104230486,4336800.0
1577104230530,4349769.0
1577104230586,4351156.0
1577104230631,4349058.0
1577104230681,4372914.0
1577104230724,4316290.0
1577104230780,4367835.0
1577104230825,4313187.0
1577104230878,4301994.0
1577104230929,4334945.0
1577104230975,4341369.0
1577104231026,4355525.0
1577104231066,4350167.0
1577104231123,4369074.0
1577104231169,4333307.0
1577104231218,4319108.0
1577104231268,4343840.0
1577104231318,4342609.0
1577104231368,4347402.0
1577104231414,4339902.0
1577104231464,4340258.0
1577104231505,4347107.0
1577104231562,4382484.0
1577104231608,4322218.0
1577104231660,4320936.0
1577104231709,4318994.0
1577104231756,4316367.0
1577104231809,4379650.0
1577104231847,4373166.0
1577104231904,4403228.0
1577104231946,4369759.0
1577104232002,4363353.0
1577104232046,4376632.0
1577104232099,4363024.0
1577104232149,4357310.0
1577104232195,4351831.0
1577104232247,4361463.0
1577104232288,4353271.0
1577104232344,4396381.0
1577104232387,4354137.0
1577104232432,4338023.0
1577104232488,4357276.0
1577104232539,4347975.0
1577104232590,4379554.0
1577104232637,4391968.0
1577104232686,4411560.0
1577104232728,4387547.0
1577104232784,4394240.0
1577104232828,4399553.0
1577104232880,4402267.0
1577104232930,4385692.0
1577104232973,4389930.0
1577104233030,4379442.0
1577104233069,4400794.0
1577104233126,4415530.0
1577104233175,4403480.0
1577104233224,4396363.0
1577104233274,4422777.0
1577104233320,4410987.0
1577104233372,4426418.0
1577104233416,4439552.0
1577104233469,4403299.0
1577104233510,4413121.0
1577104233567,4411786.0
1577104233608,4399077.0
1577104233664,4398703.0
1577104233711,4397612.0
1577104233753,4379018.0
1577104233810,4376261.0
1577104233858,4358446.0
1577104233907,4339902.0
1577104233950,4323476.0
1577104234006,4314817.0
1577104234049,4331832.0
1577104234104,4329717.0
1577104234152,4364306.0
1577104234200,4372707.0
1577104234247,4335022.0
1577104234292,4360604.0
1577104234350,4377768.0
1577104234390,4339029.0
1577104234446,4344949.0
1577104234490,4393502.0
1577104234544,4336193.0
1577104234591,4360978.0
1577104234641,4324689.0
1577104234687,4288065.0
1577104234737,4291055.0
1577104234789,4309642.0
1577104234831,4343111.0
1577104234887,4366153.0
1577104234928,4364348.0
1577104234984,4368623.0
1577104235033,4368822.0
1577104235074,4356408.0
1577104235128,4354866.0
1577104235179,4359235.0
1577104235229,4349275.0
1577104235269,4371813.0
1577104235325,4386204.0
1577104235368,4317157.0
1577104235424,4305385.0
1577104235472,4304475.0
1577104235519,4362493.0
1577104235568,4351156.0
1577104235617,4382537.0
1577104235669,4327438.0
1577104235709,4357042.0
1577104235763,4361896.0
1577104235814,4377163.0
1577104235855,4392401.0
1577104235912,4359537.0
1577104235960,4372801.0
1577104236007,4416406.0
1577104236055,4368761.0
1577104236108,4367920.0
1577104236149,4362044.0
1577104236204,4345634.0
1577104236256,4410987.0
1577104236300,4452459.0
1577104236346,4384495.0
1577104236396,4459733.0
1577104236450,4393035.0
1577104236492,4386308.0
1577104236548,4386923.0
1577104236591,4381228.0
1577104236644,4376181.0
1577104236691,4377293.0
1577104236742,4414915.0
1577104236788,4371423.0
1577104236837,4342253.0
1577104236890,4352560.0
1577104236931,4350029.0
1577104236988,4345849.0
1577104237035,4370651.0
1577104237084,4389325.0
1577104237132,4406003.0
1577104237182,4414317.0
1577104237227,4414047.0
1577104237272,4404825.0
1577104237330,4402145.0
1577104237369,4381088.0
1577104237426,4390087.0
1577104237472,4387600.0
1577104237523,4398772.0
1577104237572,4384816.0
1577104237621,4365372.0
1577104237667,4358186.0
1577104237713,4390495.0
1577104237763,4404868.0
1577104237818,4417706.0
1577104237866,4392706.0
1577104237913,4418165.0
1577104237963,4398868.0
1577104238012,4429635.0
1577104238061,4420047.0
1577104238107,4404711.0
1577104238152,4411672.0
1577104238210,4416865.0
1577104238259,4433302.0
1577104238307,4439828.0
1577104238353,4430630.0
1577104238396,4418078.0
1577104238450,4414376.0
1577104238499,4419500.0
1577104238547,4414516.0
1577104238591,4430882.0
1577104238649,4439092.0
1577104238693,4448593.0
1577104238745,4464109.0
1577104238792,4466675.0
1577104238843,4480814.0
1577104238891,4482478.0
1577104238939,4466909.0
1577104238988,4471885.0
1577104239033,4468193.0
1577104239089,4472171.0
1577104239133,4479652.0
1577104239186,4468687.0
1577104239232,4457088.0
1577104239284,4462896.0
1577104239329,4461691.0
1577104239379,4493316.0
1577104239427,4485445.0
1577104239473,4487454.0
1577104239528,4473819.0
1577104239574,4477996.0
1577104239625,4478466.0
1577104239674,4456724.0
1577104239721,4465367.0
1577104239766,4458987.0
1577104239813,4472346.0
1577104239869,4472240.0
1577104239915,4473222.0
1577104239968,4465237.0
1577104240016,4441423.0
1577104240063,4436049.0
1577104240115,4439448.0
1577104240156,4449026.0
1577104240212,4487109.0
1577104240253,4485764.0
1577104240308,4489144.0
1577104240358,4500605.0
1577104240408,4505382.0
1577104240456,4503657.0
1577104240502,4515222.0
1577104240555,4509464.0
1577104240595,4556251.0
1577104240644,4489274.0
1577104240693,4564226.0
1577104240742,4514641.0
1577104240792,4494441.0
1577104240839,4527278.0
1577104240895,4525858.0
1577104240943,4518064.0
1577104240993,4557716.0
1577104241035,4514675.0
1577104241093,4552011.0
1577104241135,4515055.0
1577104241187,4527323.0
1577104241235,4520057.0
1577104241289,4503129.0
1577104241336,4506258.0
1577104241379,4520647.0
1577104241434,4516156.0
1577104241477,4524860.0
1577104241533,4529082.0
1577104241575,4514015.0
1577104241629,4535775.0
1577104241678,4529247.0
1577104241728,4538461.0
1577104241770,4541470.0
1577104241821,4563193.0
1577104241874,4523188.0
1577104241915,4519078.0
1577104241972,4548423.0
1577104242017,4578685.0
1577104242069,4570406.0
1577104242118,4554386.0
1577104242161,4551300.0
1577104242216,4574195.0
1577104242256,4568309.0
1577104242314,4576640.0
1577104242356,4573216.0
1577104242409,4572885.0
1577104242458,4506770.0
1577104242510,4515126.0
1577104242557,4521368.0
1577104242604,4552029.0
1577104242656,4595606.0
1577104242696,4590094.0
1577104242748,4623122.0
1577104242798,4630534.0
1577104242852,4649189.0
1577104242899,4611817.0
1577104242949,4622331.0
1577104242999,4579959.0
1577104243045,4598979.0
1577104243092,4585394.0
1577104243137,4605836.0
1577104243187,4596325.0
1577104243235,4589314.0
1577104243287,4593934.0
1577104243334,4596967.0
1577104243385,4569912.0
1577104243437,4603217.0
1577104243486,4595216.0
1577104243536,4596924.0
1577104243577,4615700.0
1577104243636,4637590.0
1577104243678,4639254.0
1577104243733,4629380.0
1577104243773,4629501.0
1577104243829,4598649.0
1577104243878,4617451.0
1577104243921,4650065.0
1577104243975,4618674.0
1577104244017,4611445.0
1577104244075,4613890.0
1577104244119,4627204.0
1577104244165,4631694.0
1577104244219,4670409.0
1577104244262,4655343.0
1577104244319,4641517.0
1577104244359,4645938.0
1577104244416,4637832.0
1577104244458,4643372.0
1577104244515,4637736.0
1577104244560,4624083.0
1577104244603,4647637.0
1577104244659,4613508.0
1577104244707,4677855.0
1577104244757,4694838.0
1577104244799,4671605.0
1577104244855,4641629.0
1577104244899,4628209.0
1577104244955,4625314.0
1577104245002,4675464.0
1577104245050,4644922.0
1577104245099,4695375.0
1577104245143,4658750.0
1577104245197,4689109.0
1577104245239,4674405.0
1577104245297,4643120.0
1577104245340,4643181.0
1577104245394,4629268.0
1577104245443,4682069.0
1577104245490,4594592.0
1577104245538,4643267.0
1577104245583,4616880.0
1577104245637,4575711.0
1577104245678,4565778.0
1577104245736,4573198.0
1577104245783,4587650.0
1577104245833,4593830.0
1577104245882,4617876.0
1577104245928,4605454.0
1577104245980,4600913.0
1577104246025,4610777.0
1577104246077,4592615.0
1577104246119,4589824.0
1577104246169,4608028.0
1577104246223,4637372.0
1577104246274,4590327.0
1577104246315,4653947.0
1577104246369,4650246.0
1577104246420,4569453.0
1577104246468,4561529.0
1577104246517,4554951.0
1577104246559,4558167.0
1577104246615,4608073.0
1577104246662,4602481.0
1577104246712,4629268.0
1577104246763,4572409.0
1577104246810,4603418.0
1577104246859,4589322.0
1577104246902,4586617.0
1577104246958,4582950.0
1577104247001,4576509.0
1577104247056,4568135.0
1577104247104,4574376.0
1577104247148,4558132.0
1577104247203,4526065.0
1577104247251,4496306.0
1577104247303,4508052.0
1577104247345,4496686.0
1577104247398,4549410.0
1577104247441,4559406.0
1577104247496,4549827.0
1577104247542,4546255.0
1577104247594,4539814.0
1577104247643,4531258.0
1577104247690,4522477.0
1577104247739,4508182.0
1577104247789,4510159.0
1577104247838,4514371.0
1577104247880,4518784.0
1577104247937,4512481.0
1577104247985,4488061.0
1577104248032,4460348.0
1577104248083,4468705.0
1577104248130,4460781.0
1577104248173,4443834.0
1577104248225,4481993.0
1577104248273,4474737.0
1577104248325,4464804.0
1577104248371,4481578.0
1577104248419,4448930.0
1577104248475,4445966.0
1577104248523,4406550.0
1577104248568,4412088.0
1577104248618,4405648.0
1577104248666,4448550.0
1577104248712,4463668.0
1577104248764,4484498.0
1577104248811,4476056.0
1577104248857,4446268.0
1577104248911,4463634.0
1577104248963,4428361.0
1577104249003,4420809.0
1577104249060,4431880.0
1577104249104,4448142.0
1577104249150,4445047.0
1577104249206,4428741.0
1577104249249,4423019.0
1577104249307,4404616.0
1577104249346,4424909.0
1577104249402,4436577.0
1577104249444,4462090.0
1577104249500,4454712.0
1577104249542,4426609.0
1577104249598,4410398.0
1577104249648,4408638.0
1577104249694,4397586.0
1577104249744,4409124.0
1577104249794,4404833.0
1577104249842,4420506.0
1577104249885,4396928.0
1577104249940,4396294.0
1577104249985,4404339.0
1577104250037,4401574.0
1577104250088,4387581.0
1577104250134,4374796.0
1577104250185,4416796.0
1577104250231,4426644.0
1577104250282,4438588.0
1577104250326,4409124.0
1577104250381,4397005.0
1577104250425,4399250.0
1577104250479,4404772.0
1577104250528,4406844.0
1577104250575,4411950.0
1577104250625,4412834.0
1577104250672,4399987.0
1577104250724,4409185.0
1577104250765,4409973.0
1577104250821,4405613.0
1577104250866,4411932.0
1577104250910,4435303.0
1577104250969,4403819.0
1577104251014,4424407.0
1577104251065,4403584.0
1577104251107,4379936.0
1577104251156,4379068.0
1577104251207,4451531.0
1577104251261,4421390.0
1577104251310,4419577.0
1577104251352,4387027.0
1577104251409,4385379.0
1577104251453,4397498.0
1577104251506,4409270.0
1577104251546,4413397.0
1577104251604,4386905.0
1577104251647,4406869.0
1577104251701,4408915.0
1577104251748,4458674.0
1577104251798,4424823.0
1577104251849,4409912.0
1577104251889,4400178.0
1577104251946,4408360.0
1577104251989,4387833.0
1577104252043,4384235.0
1577104252091,4390442.0
1577104252139,4375982.0
1577104252190,4353852.0
1577104252235,4330341.0
1577104252289,4317834.0
1577104252328,4313437.0
1577104252385,4301978.0
1577104252427,4337302.0
1577104252482,4303945.0
1577104252531,4327549.0
1577104252581,4290551.0
1577104252631,4245067.0
1577104252676,4261469.0
1577104252729,4273422.0
1577104252768,4270596.0
1577104252823,4259821.0
1577104252868,4261650.0
1577104252924,4251101.0
1577104252969,4257324.0
1577104253020,4271152.0
1577104253067,4244096.0
1577104253111,4249756.0
1577104253162,4250788.0
1577104253209,4220109.0
1577104253258,4258131.0
1577104253310,4201437.0
1577104253355,4199765.0
1577104253410,4189647.0
1577104253454,4164577.0
1577104253506,4168661.0
1577104253551,4202719.0
1577104253610,4209456.0
1577104253649,4192698.0
1577104253701,4212784.0
1577104253750,4186640.0
1577104253798,4190106.0
1577104253850,4181733.0
1577104253893,4169587.0
1577104253947,4158717.0
1577104253995,4173488.0
1577104254049,4166867.0
1577104254089,4164404.0
1577104254147,4150863.0
1577104254188,4115486.0
1577104254243,4134593.0
1577104254290,4169805.0
1577104254335,4152866.0
1577104254388,4147543.0
1577104254437,4145645.0
1577104254490,4171912.0
1577104254531,4200638.0
1577104254586,4186040.0
1577104254627,4194492.0
1577104254683,4182739.0
1577104254733,4202294.0
1577104254781,4179340.0
1577104254828,4182020.0
1577104254876,4175683.0
1577104254929,4184758.0
1577104254973,4183795.0
1577104255026,4202191.0
1577104255067,4193757.0
1577104255114,4227573.0
1577104255167,4208727.0
1577104255212,4238002.0
1577104255262,4224824.0
1577104255312,4216192.0
1577104255370,4282794.0
1577104255409,4222996.0
1577104255467,4274592.0
1577104255509,4283270.0
1577104255558,4217474.0
1577104255615,4184992.0
1577104255662,4193357.0
1577104255711,4193393.0
1577104255751,4213262.0
1577104255807,4246680.0
1577104255856,4291852.0
1577104255908,4312614.0
1577104255951,4319020.0
1577104256006,4300070.0
1577104256054,4324508.0
1577104256104,4317184.0
1577104256151,4330489.0
1577104256201,4337068.0
1577104256247,4342564.0
1577104256295,4402102.0
1577104256349,4331190.0
1577104256389,4307004.0
1577104256446,4312129.0
1577104256495,4301041.0
1577104256543,4347826.0
1577104256591,4472405.0
1577104256642,4342330.0
1577104256687,4404435.0
1577104256735,4465054.0
1577104256785,4462419.0
1577104256831,4435451.0
1577104256886,4501187.0
1577104256934,4476757.0
1577104256983,4420299.0
1577104257033,4427432.0
1577104257081,4494900.0
1577104257127,4517371.0
1577104257172,4490766.0
1577104257229,4492509.0
1577104257271,4497692.0
1577104257328,4480607.0
1577104257368,4498092.0
1577104257416,4461891.0
1577104257470,4476550.0
1577104257519,4497787.0
1577104257567,4463225.0
1577104257615,4468374.0
1577104257669,4454211.0
1577104257715,4453057.0
1577104257765,4446547.0
1577104257815,4441398.0
1577104257865,4474365.0
1577104257910,4459645.0
1577104257962,4464839.0
1577104258011,4421753.0
1577104258057,4426999.0
1577104258105,4428178.0
1577104258155,4435216.0
1577104258208,4442983.0
1577104258257,4437861.0
1577104258305,4409695.0
1577104258352,4451565.0
1577104258402,4440730.0
1577104258452,4473853.0
1577104258497,4408907.0
1577104258547,4428334.0
1577104258596,4419370.0
1577104258648,4414368.0
1577104258697,4432702.0
1577104258744,4405579.0
1577104258788,4431081.0
1577104258842,4424059.0
1577104258892,4433257.0
1577104258938,4461068.0
1577104258987,4399059.0
1577104259034,4426089.0
1577104259088,4446417.0
1577104259135,4439048.0
1577104259179,4454590.0
1577104259234,4436646.0
1577104259279,4445584.0
1577104259331,4437471.0
1577104259376,4427320.0
1577104259428,4438503.0
1577104259479,4436327.0
1577104259520,4428481.0
1577104259569,4434090.0
1577104259616,4466025.0
1577104259669,4517024.0
1577104259717,4521748.0
1577104259767,4525484.0
1577104259813,4525718.0
1577104259866,4539944.0
1577104259915,4532490.0
1577104259968,4506457.0
1577104260012,4544963.0
1577104260056,4463806.0
1577104260105,4497970.0
1577104260155,4482167.0
1577104260204,4429738.0
1577104260253,4414931.0
1577104260304,4428775.0
1577104260357,4494329.0
1577104260408,4454452.0
1577104260456,4485825.0
1577104260501,4463849.0
1577104260555,4437678.0
1577104260595,4399544.0
1577104260653,4385450.0
1577104260695,4383654.0
1577104260748,4402440.0
1577104260796,4377413.0
1577104260848,4475379.0
1577104260895,4447709.0
1577104260943,4491816.0
1577104260994,4464770.0
1577104261035,4472320.0
1577104261093,4519009.0
1577104261135,4546905.0
1577104261185,4516087.0
1577104261238,4497302.0
1577104261287,4506189.0
1577104261339,4529655.0
1577104261383,4534379.0
1577104261435,4528684.0
1577104261480,4545267.0
1577104261532,4478612.0
1577104261575,4548423.0
1577104261629,4508381.0
1577104261677,4481292.0
1577104261728,4470048.0
1577104261776,4471972.0
1577104261819,4473750.0
1577104261873,4491997.0
1577104261916,4460235.0
1577104261973,4430709.0
1577104262018,4454444.0
1577104262067,4460824.0
1577104262118,4476229.0
1577104262166,4468947.0
1577104262216,4503830.0
1577104262261,4419049.0
1577104262315,4471521.0
1577104262356,4433562.0
1577104262414,4395322.0
1577104262459,4337042.0
1577104262510,4359330.0
1577104262558,4355386.0
1577104262600,4383837.0
1577104262656,4339687.0
1577104262699,4255201.0
1577104262754,4275547.0
1577104262796,4294306.0
1577104262853,4284190.0
1577104262900,4271447.0
1577104262949,4287908.0
1577104262999,4279533.0
1577104263047,4287882.0
1577104263097,4194147.0
1577104263140,4150013.0
1577104263188,4168547.0
1577104263239,4139680.0
1577104263293,4189716.0
1577104263340,4181499.0
1577104263382,4139316.0
1577104263439,4116473.0
1577104263481,4107737.0
1577104263536,4076988.0
1577104263577,4023736.0
1577104263635,3999307.0
1577104263678,4062797.0
1577104263733,3981145.0
1577104263780,4018830.0
1577104263829,3943879.0
1577104263878,3918575.0
1577104263925,3855534.0
1577104263975,3841570.0
1577104264018,3796406.0
1577104264073,3796016.0
1577104264119,3829268.0
1577104264172,3806886.0
1577104264220,3756320.0
1577104264271,3765753.0
1577104264318,3775201.0
1577104264362,3737778.0
1577104264417,3707003.0
1577104264458,3746048.0
1577104264508,3723406.0
1577104264562,3743439.0
1577104264614,3722217.0
1577104264653,3667768.0
1577104264704,3662715.0
1577104264753,3681952.0
1577104264801,3672216.0
1577104264851,3662394.0
1577104264899,3670127.0
1577104264954,3671844.0
1577104265001,3638737.0
1577104265044,3643593.0
1577104265101,3645628.0
1577104265144,3640427.0
1577104265194,3612290.0
1577104265240,3659552.0
1577104265296,3594467.0
1577104265340,3618730.0
1577104265395,3567869.0
1577104265442,3518372.0
1577104265491,3533706.0
1577104265541,3564732.0
1577104265588,3550325.0
1577104265638,3598766.0
1577104265685,3586708.0
1577104265736,3530049.0
1577104265779,3517635.0
1577104265825,3532155.0
1577104265877,3566969.0
1577104265927,3533257.0
1577104265974,3528653.0
1577104266025,3562869.0
1577104266076,3545679.0
1577104266119,3522854.0
1577104266174,3515320.0
1577104266222,3530065.0
1577104266274,3562739.0
1577104266322,3629366.0
1577104266366,3715846.0
1577104266419,3809598.0
1577104266466,3883066.0
1577104266518,3915012.0
1577104266560,3954525.0
1577104266615,3960210.0
1577104266662,3989589.0
1577104266714,4020234.0
1577104266761,4052516.0
1577104266804,4027940.0
1577104266859,3997192.0
1577104266900,3915454.0
1577104266956,3894493.0
1577104267002,3858050.0
1577104267056,3901427.0
1577104267103,3914179.0
1577104267147,3914821.0
1577104267199,3927304.0
1577104267242,3924098.0
1577104267299,3881975.0
1577104267342,3869198.0
1577104267398,3890730.0
1577104267444,3895491.0
1577104267495,3893357.0
1577104267543,3850898.0
1577104267591,3834981.0
1577104267641,3802985.0
1577104267683,3823790.0
1577104267738,3840503.0
1577104267781,3826104.0
1577104267837,3824995.0
1577104267883,3858952.0
1577104267935,3857572.0
1577104267983,3818823.0
1577104268031,3821397.0
1577104268073,3852726.0
1577104268122,3847663.0
1577104268178,3843754.0
1577104268222,3859695.0
1577104268268,3860364.0
1577104268320,3864498.0
1577104268375,3872889.0
1577104268424,3859862.0
1577104268471,3844423.0
1577104268521,3863224.0
1577104268562,3857477.0
1577104268619,3893755.0
1577104268662,3906188.0
1577104268717,3912628.0
1577104268764,3923265.0
1577104268809,3923334.0
1577104268864,3916840.0
1577104268909,3926792.0
1577104268961,3916105.0
1577104269004,3931491.0
1577104269051,3930095.0
1577104269103,3934734.0
1577104269148,3945049.0
1577104269203,3917976.0
1577104269247,3917716.0
1577104269297,3926741.0
1577104269346,3951524.0
1577104269404,4003884.0
1577104269445,3991818.0
1577104269500,3979542.0
1577104269545,3994469.0
1577104269597,3991661.0
1577104269652,3986364.0
1577104269696,3991436.0
1577104269746,3989615.0
1577104269792,3996420.0
1577104269842,4014669.0
1577104269885,4019462.0
1577104269941,4014754.0
1577104269986,4000321.0
1577104270038,3990863.0
1577104270086,4005514.0
1577104270135,4014451.0
1577104270186,4065458.0
1577104270232,4053270.0
1577104270284,4053288.0
1577104270326,4062996.0
1577104270383,4056919.0
1577104270426,4054968.0
1577104270478,4062746.0
1577104270527,4077655.0
1577104270576,4080473.0
1577104270627,4086836.0
1577104270671,4098417.0
1577104270724,4084634.0
1577104270765,4061271.0
1577104270814,4066135.0
1577104270865,4074682.0
1577104270912,4063932.0
1577104270966,4102241.0
1577104271011,4117757.0
1577104271062,4136708.0
1577104271107,4144050.0
1577104271158,4159229.0
1577104271215,4152553.0
1577104271263,4157616.0
1577104271307,4154737.0
1577104271358,4160676.0
1577104271408,4184456.0
1577104271456,4215098.0
1577104271508,4230824.0
1577104271553,4208658.0
1577104271606,4186231.0
1577104271649,4185356.0
1577104271697,4187030.0
1577104271749,4188251.0
1577104271795,4205832.0
1577104271845,4225225.0
1577104271890,4233043.0
1577104271949,4244382.0
1577104271989,4245162.0
1577104272046,4246194.0
1577104272088,4242033.0
1577104272144,4253423.0
1577104272189,4252157.0
1577104272239,4291602.0
1577104272291,4297228.0
1577104272333,4338472.0
1577104272389,4321881.0
1577104272429,4329423.0
1577104272485,4279456.0
1577104272529,4325625.0
1577104272582,4297358.0
1577104272631,4352481.0
1577104272679,4353288.0
1577104272727,4304804.0
1577104272772,4302915.0
1577104272823,4306295.0
1577104272868,4310958.0
1577104272924,4338828.0
1577104272968,4269911.0
1577104273022,4342296.0
1577104273070,4296448.0
1577104273117,4290145.0
1577104273168,4297453.0
1577104273218,4292685.0
1577104273269,4311054.0
1577104273308,4367461.0
1577104273366,4353115.0
1577104273409,4366596.0
1577104273459,4361220.0
1577104273511,4324386.0
1577104273559,4363326.0
1577104273607,4348572.0
1577104273653,4339072.0
1577104273708,4332336.0
1577104273750,4318388.0
1577104273807,4349821.0
1577104273848,4327889.0
1577104273902,4307811.0
1577104273954,4261859.0
1577104274001,4281077.0
1577104274047,4320103.0
1577104274096,4344793.0
1577104274148,4337458.0
1577104274189,4334356.0
1577104274245,4340311.0
1577104274287,4364800.0
1577104274344,4365874.0
1577104274389,4348078.0
1577104274438,4373825.0
1577104274487,4350626.0
1577104274535,4377102.0
1577104274588,4329120.0
1577104274628,4321958.0
1577104274686,4317364.0
1577104274727,4326676.0
1577104274782,4333082.0
1577104274829,4365850.0
1577104274879,4354702.0
1577104274926,4380212.0
1577104274976,4326310.0
1577104275029,4366803.0
1577104275070,4377092.0
1577104275125,4354996.0
1577104275171,4355325.0
1577104275223,4370521.0
1577104275271,4326068.0
1577104275318,4356902.0
1577104275362,4321265.0
1577104275416,4330914.0
1577104275464,4324065.0
1577104275508,4358836.0
1577104275565,4228197.0
1577104275615,4271299.0
1577104275662,4294609.0
1577104275711,4266063.0
1577104275758,4258685.0
1577104275806,4258555.0
1577104275854,4235333.0
1577104275900,4248933.0
1577104275949,4274255.0
1577104275995,4215533.0
1577104276051,4265352.0
1577104276095,4218853.0
