time,value,value2,value3
1582914351635,5266352.0,5578804.0,0.0
1582914351667,5245163.0,5550764.0,0.0
1582914351723,5217280.0,5513243.0,0.0
1582914351753,5197673.0,5460098.0,0.0
1582914351801,5137405.0,5374967.0,0.0
1582914351851,5115233.0,5349917.0,0.0
1582914351896,5081402.0,5296199.0,0.0
1582914351947,5046972.0,5252372.0,0.0
1582914351996,4993533.0,5198936.0,0.0
1582914352045,4952805.0,5151055.0,0.0
1582914352094,4910348.0,5117131.0,0.0
1582914352142,4873406.0,5094477.0,0.0
1582914352196,4859014.0,5078828.0,0.0
1582914352240,4845151.0,5054946.0,0.0
1582914352287,4825035.0,5033809.0,0.0
1582914352338,4824380.0,5033039.0,0.0
1582914352386,4812970.0,5025345.0,0.0
1582914352436,4804039.0,5004896.0,0.0
1582914352484,4823883.0,5000517.0,0.0
1582914352536,4771407.0,4953641.0,0.0
1582914352581,4738694.0,4926327.0,0.0
1582914352633,4712372.0,4902855.0,0.0
1582914352680,4722480.0,4918865.0,0.0
1582914352729,4688650.0,4871640.0,0.0
1582914352782,4669303.0,4856389.0,0.0
1582914352828,4671260.0,4862029.0,0.0
1582914352875,4677851.0,4857054.0,0.0
1582914352925,4675285.0,4852792.0,0.0
1582914352974,4644417.0,4831937.0,0.0
1582914353024,4704853.0,4919052.0,0.0
1582914353073,4764294.0,4977605.0,0.0
1582914353122,4704920.0,4911227.0,0.0
1582914353169,4712078.0,4890640.0,0.0
1582914353216,4726755.0,4890594.0,0.0
1582914353263,4784861.0,4894984.0,0.0
1582914353314,4793602.0,4883563.0,0.0
1582914353365,4773916.0,4870146.0,0.0
1582914353415,4728382.0,4846346.0,0.0
1582914353463,4761918.0,4916028.0,0.0
1582914353511,4788886.0,4948610.0,0.0
1582914353559,4736184.0,4898557.0,0.0
1582914353609,4744766.0,4941194.0,0.0
1582914353654,4815256.0,5024434.0,0.0
1582914353706,4740006.0,4995705.0,0.0
1582914353755,4723114.0,4968892.0,0.0
1582914353804,4735020.0,4954682.0,0.0
1582914353852,4784997.0,4964140.0,0.0
1582914353895,4810416.0,4949239.0,0.0
1582914353950,4797220.0,4924902.0,0.0
1582914354000,4776608.0,4909465.0,0.0
1582914354040,4811070.0,4946694.0,0.0
1582914354098,4853711.0,4992062.0,0.0
1582914354144,4821000.0,4955417.0,0.0
1582914354195,4822332.0,4977768.0,0.0
1582914354239,4790471.0,4997235.0,0.0
1582914354293,4992991.0,5138969.0,0.0
1582914354336,4877761.0,5101379.0,0.0
1582914354388,4829196.0,5044939.0,0.0
1582914354435,4846112.0,5038365.0,0.0
1582914354479,4881028.0,5032947.0,0.0
1582914354531,4938345.0,5062387.0,0.0
1582914354579,4943160.0,5046796.0,0.0
1582914354629,4936976.0,5048466.0,0.0
1582914354677,4959760.0,5076387.0,0.0
1582914354727,5004275.0,5141621.0,0.0
1582914354777,5034918.0,5194403.0,0.0
1582914354825,4986140.0,5181068.0,0.0
1582914354879,5071587.0,5324401.0,0.0
1582914354925,5303417.0,5469171.0,0.0
1582914354975,5151154.0,5483243.0,0.0
1582914355019,5058527.0,5455872.0,0.0
1582914355071,5048815.0,5483629.0,0.0
1582914355115,5149505.0,5588391.0,0.0
1582914355169,5267065.0,5585739.0,0.0
1582914355219,5279989.0,5538352.0,0.0
1582914355261,5177195.0,5488417.0,0.0
1582914355315,5192380.0,5502126.0,0.0
1582914355362,5139023.0,5430110.0,0.0
1582914355413,5110393.0,5364712.0,0.0
1582914355456,5109692.0,5376940.0,0.0
1582914355510,5076100.0,5374663.0,0.0
1582914355560,5120603.0,5447732.0,0.0
1582914355607,5170864.0,5481270.0,0.0
1582914355657,5129943.0,5428931.0,0.0
1582914355705,5102275.0,5345433.0,0.0
1582914355754,5041781.0,5222173.0,0.0
1582914355797,5025974.0,5204190.0,0.0
1582914355851,5001992.0,5193247.0,0.0
1582914355896,4999617.0,5211885.0,0.0
1582914355949,4994145.0,5217561.0,0.0
1582914355998,4968874.0,5182038.0,0.0
1582914356045,4935178.0,5152820.0,0.0
1582914356096,4924267.0,5144212.0,0.0
1582914356144,4911772.0,5123812.0,0.0
1582914356193,4911502.0,5111468.0,0.0
1582914356235,4888616.0,5080498.0,0.0
1582914356290,4866759.0,5036380.0,0.0
1582914356340,4807702.0,4951728.0,0.0
1582914356387,4766951.0,4894191.0,0.0
1582914356432,4736591.0,4861668.0,0.0
1582914356480,4700635.0,4845481.0,0.0
1582914356534,4671575.0,4823889.0,0.0
1582914356581,4642980.0,4799005.0,0.0
1582914356631,4623565.0,4782363.0,0.0
1582914356678,4624142.0,4786765.0,0.0
1582914356722,4648374.0,4815540.0,0.0
1582914356772,4652511.0,4833384.0,0.0
1582914356826,4631027.0,4825350.0,0.0
1582914356874,4614068.0,4806467.0,0.0
1582914356921,4580067.0,4743417.0,0.0
1582914356972,4532634.0,4684481.0,0.0
1582914357018,4498058.0,4653370.0,0.0
1582914357069,4470672.0,4639217.0,0.0
1582914357118,4449243.0,4631755.0,0.0
1582914357166,4426674.0,4623416.0,0.0
1582914357215,4413332.0,4610255.0,0.0
1582914357260,4394778.0,4598297.0,0.0
1582914357314,4381413.0,4593884.0,0.0
1582914357358,4366770.0,4590963.0,0.0
1582914357411,4356774.0,4585965.0,0.0
1582914357461,4346825.0,4571054.0,0.0
1582914357508,4314396.0,4523782.0,0.0
1582914357557,4269868.0,4475832.0,0.0
1582914357605,4231322.0,4440634.0,0.0
1582914357654,4199141.0,4417139.0,0.0
1582914357698,4179909.0,4408252.0,0.0
1582914357752,4165469.0,4401387.0,0.0
1582914357796,4157667.0,4399179.0,0.0
1582914357849,4145694.0,4392743.0,0.0
1582914357899,4137451.0,4389206.0,0.0
1582914357946,4131368.0,4387758.0,0.0
1582914357996,4126608.0,4385328.0,0.0
1582914358038,4127975.0,4386870.0,0.0
1582914358089,4110088.0,4346628.0,0.0
1582914358138,4083831.0,4326156.0,0.0
1582914358185,4071982.0,4325025.0,0.0
1582914358236,4072017.0,4323542.0,0.0
1582914358284,4071915.0,4330384.0,0.0
1582914358336,4085359.0,4347177.0,0.0
1582914358385,4090821.0,4362814.0,0.0
1582914358434,4098068.0,4377774.0,0.0
1582914358480,4107757.0,4388331.0,0.0
1582914358531,4113038.0,4395150.0,0.0
1582914358579,4116916.0,4403569.0,0.0
1582914358629,4125454.0,4415597.0,0.0
1582914358678,4132362.0,4418469.0,0.0
1582914358726,4125238.0,4402366.0,0.0
1582914358776,4110145.0,4388727.0,0.0
1582914358818,4098442.0,4377270.0,0.0
1582914358873,4092483.0,4378426.0,0.0
1582914358922,4095004.0,4383739.0,0.0
1582914358969,4097377.0,4392733.0,0.0
1582914359021,4104275.0,4404492.0,0.0
1582914359068,4109374.0,4409677.0,0.0
1582914359117,4118070.0,4416858.0,0.0
1582914359164,4125657.0,4424729.0,0.0
1582914359214,4131390.0,4430126.0,0.0
1582914359258,4134985.0,4431993.0,0.0
1582914359312,4137055.0,4418096.0,0.0
1582914359356,4122502.0,4400604.0,0.0
1582914359405,4112280.0,4389451.0,0.0
1582914359458,4112778.0,4390513.0,0.0
1582914359506,4116079.0,4395664.0,0.0
1582914359557,4119688.0,4401783.0,0.0
1582914359602,4131480.0,4413635.0,0.0
1582914359653,4139282.0,4418178.0,0.0
1582914359701,4147378.0,4426435.0,0.0
1582914359750,4157374.0,4433372.0,0.0
1582914359800,4166814.0,4442642.0,0.0
1582914359848,4177127.0,4452337.0,0.0
1582914359896,4182544.0,4446438.0,0.0
1582914359938,4177454.0,4428455.0,0.0
1582914359994,4166442.0,4412504.0,0.0
1582914360040,4165323.0,4408731.0,0.0
1582914360085,4165063.0,4417689.0,0.0
1582914360135,4170886.0,4420480.0,0.0
1582914360188,4179468.0,4426854.0,0.0
1582914360237,4186975.0,4432344.0,0.0
1582914360285,4196746.0,4436140.0,0.0
1582914360336,4202433.0,4441486.0,0.0
1582914360381,4206876.0,4443752.0,0.0
1582914360432,4212156.0,4446917.0,0.0
1582914360482,4221167.0,4449544.0,0.0
1582914360530,4219619.0,4433300.0,0.0
1582914360579,4211557.0,4418295.0,0.0
1582914360625,4207181.0,4410611.0,0.0
1582914360678,4206039.0,4406196.0,0.0
1582914360722,4208900.0,4410798.0,0.0
1582914360773,4217472.0,4417256.0,0.0
1582914360821,4224741.0,4421506.0,0.0
1582914360870,4236818.0,4435881.0,0.0
1582914360920,4244211.0,4441698.0,0.0
1582914360968,4254354.0,4447208.0,0.0
1582914361018,4257759.0,4449615.0,0.0
1582914361061,4265583.0,4455174.0,0.0
1582914361110,4267652.0,4452465.0,0.0
1582914361161,4268647.0,4444955.0,0.0
1582914361207,4267176.0,4436291.0,0.0
1582914361259,4267176.0,4437646.0,0.0
1582914361310,4267585.0,4438393.0,0.0
1582914361358,4273373.0,4437984.0,0.0
1582914361400,4279434.0,4444407.0,0.0
1582914361456,4283369.0,4449953.0,0.0
1582914361502,4287067.0,4449697.0,0.0
1582914361552,4292437.0,4451109.0,0.0
1582914361601,4297254.0,4458221.0,0.0
1582914361650,4302218.0,4458174.0,0.0
1582914361695,4307486.0,4460231.0,0.0
1582914361741,4309512.0,4446077.0,0.0
1582914361792,4305871.0,4435613.0,0.0
1582914361842,4305462.0,4434784.0,0.0
1582914361894,4308662.0,4437342.0,0.0
1582914361941,4312880.0,4440752.0,0.0
1582914361991,4317460.0,4443543.0,0.0
1582914362039,4319902.0,4441020.0,0.0
1582914362087,4325262.0,4443461.0,0.0
1582914362138,4330079.0,4449638.0,0.0
1582914362183,4331899.0,4449802.0,0.0
1582914362237,4336761.0,4454542.0,0.0
1582914362283,4345864.0,4448646.0,0.0
1582914362333,4347298.0,4436303.0,0.0
1582914362382,4342721.0,4426143.0,0.0
1582914362430,4344732.0,4422242.0,0.0
1582914362482,4354785.0,4428361.0,0.0
1582914362522,4359749.0,4431410.0,0.0
1582914362575,4364655.0,4434457.0,0.0
1582914362626,4373193.0,4442023.0,0.0
1582914362674,4378914.0,4440787.0,0.0
1582914362722,4386048.0,4449101.0,0.0
1582914362771,4389057.0,4453690.0,0.0
1582914362820,4395479.0,4459203.0,0.0
1582914362864,4399865.0,4457602.0,0.0
1582914362917,4403551.0,4445947.0,0.0
1582914362964,4402478.0,4442691.0,0.0
1582914363015,4403630.0,4439560.0,0.0
1582914363057,4405463.0,4447267.0,0.0
1582914363105,4411851.0,4450081.0,0.0
1582914363154,4411761.0,4453959.0,0.0
1582914363203,4418082.0,4462764.0,0.0
1582914363252,4425465.0,4463219.0,0.0
1582914363302,4427026.0,4466969.0,0.0
1582914363350,4433097.0,4471849.0,0.0
1582914363404,4438377.0,4478155.0,0.0
1582914363453,4441884.0,4476802.0,0.0
1582914363501,4443296.0,4462203.0,0.0
1582914363549,4443296.0,4460627.0,0.0
1582914363598,4443828.0,4457870.0,0.0
1582914363647,4448995.0,4464388.0,0.0
1582914363696,4451957.0,4471512.0,0.0
1582914363744,4461354.0,4479861.0,0.0
1582914363794,4472435.0,4487755.0,0.0
1582914363842,4480113.0,4489753.0,0.0
1582914363887,4489090.0,4495555.0,0.0
1582914363940,4496314.0,4501896.0,0.0
1582914363983,4497253.0,4503847.0,0.0
1582914364037,4502501.0,4493979.0,0.0
1582914364085,4500929.0,4480677.0,0.0
1582914364136,4495591.0,4471008.0,0.0
1582914364184,4495242.0,4472269.0,0.0
1582914364233,4496440.0,4472911.0,0.0
1582914364276,4496022.0,4477607.0,0.0
1582914364324,4500555.0,4483539.0,0.0
1582914364378,4507113.0,4489425.0,0.0
1582914364425,4510902.0,4494073.0,0.0
1582914364478,4513141.0,4493700.0,0.0
1582914364524,4517245.0,4497716.0,0.0
1582914364574,4523079.0,4490651.0,0.0
1582914364622,4521518.0,4472399.0,0.0
1582914364669,4515039.0,4463943.0,0.0
1582914364719,4515187.0,4459717.0,0.0
1582914364766,4515571.0,4465053.0,0.0
1582914364816,4516827.0,4466035.0,0.0
1582914364864,4522865.0,4471348.0,0.0
1582914364914,4521914.0,4473461.0,0.0
1582914364962,4521949.0,4468708.0,0.0
1582914365006,4521689.0,4465334.0,0.0
1582914365054,4520919.0,4458070.0,0.0
1582914365107,4510008.0,4445737.0,0.0
1582914365157,4501302.0,4415727.0,0.0
1582914365206,4488096.0,4387793.0,0.0
1582914365256,4468116.0,4369798.0,0.0
1582914365303,4457815.0,4366713.0,0.0
1582914365354,4449968.0,4359241.0,0.0
1582914365402,4448938.0,4357967.0,0.0
1582914365445,4439950.0,4353846.0,0.0
1582914365501,4439984.0,4353005.0,0.0
1582914365549,4444326.0,4357652.0,0.0
1582914365597,4460190.0,4364928.0,0.0
1582914365645,4481661.0,4380424.0,0.0
1582914365694,4500215.0,4374819.0,0.0
1582914365742,4517900.0,4377236.0,0.0
1582914365790,4541261.0,4397309.0,0.0
1582914365840,4585234.0,4447372.0,0.0
1582914365887,4623904.0,4487719.0,0.0
1582914365937,4659907.0,4526759.0,0.0
1582914365986,4696474.0,4557985.0,0.0
1582914366036,4756717.0,4603564.0,0.0
1582914366084,4852886.0,4691416.0,0.0
1582914366134,4949719.0,4794835.0,0.0
1582914366181,5014259.0,4890114.0,0.0
1582914366227,5062406.0,4960707.0,0.0
1582914366275,5090096.0,5006508.0,0.0
1582914366327,5114745.0,5054573.0,0.0
1582914366377,5133234.0,5093974.0,0.0
1582914366425,5152613.0,5126742.0,0.0
1582914366473,5161094.0,5161064.0,0.0
1582914366522,5173386.0,5194252.0,0.0
1582914366568,5181661.0,5222209.0,0.0
1582914366620,5192460.0,5255992.0,0.0
1582914366663,5196519.0,5286846.0,0.0
1582914366717,5204445.0,5321446.0,0.0
1582914366764,5208945.0,5347208.0,0.0
1582914366810,5215719.0,5365894.0,0.0
1582914366863,5226030.0,5383363.0,0.0
1582914366907,5229537.0,5393907.0,0.0
1582914366961,5235179.0,5410748.0,0.0
1582914367008,5249493.0,5431230.0,0.0
1582914367058,5263932.0,5452380.0,0.0
1582914367106,5278191.0,5475185.0,0.0
1582914367157,5290266.0,5495938.0,0.0
1582914367203,5301495.0,5518054.0,0.0
1582914367246,5321723.0,5552423.0,0.0
1582914367301,5338660.0,5574039.0,0.0
1582914367352,5344461.0,5593728.0,0.0
1582914367399,5349414.0,5599882.0,0.0
1582914367446,5354593.0,5618962.0,0.0
1582914367493,5363537.0,5637636.0,0.0
1582914367544,5378564.0,5653797.0,0.0
1582914367593,5381719.0,5667789.0,0.0
1582914367643,5380169.0,5683787.0,0.0
1582914367688,5383165.0,5699762.0,0.0
1582914367739,5404027.0,5721354.0,0.0
1582914367788,5419688.0,5734855.0,0.0
1582914367837,5406910.0,5729107.0,0.0
1582914367885,5406289.0,5718295.0,0.0
1582914367936,5407317.0,5720630.0,0.0
1582914367982,5408709.0,5740120.0,0.0
1582914368029,5402388.0,5745796.0,0.0
1582914368080,5379909.0,5710925.0,0.0
1582914368129,5376042.0,5699248.0,0.0
1582914368173,5378462.0,5696153.0,0.0
1582914368227,5377308.0,5680833.0,0.0
1582914368273,5374573.0,5662019.0,0.0
1582914368320,5382351.0,5665405.0,0.0
1582914368367,5388424.0,5676395.0,0.0
1582914368418,5399584.0,5687128.0,0.0
1582914368469,5410178.0,5697812.0,0.0
1582914368519,5417979.0,5703243.0,0.0
1582914368567,5435416.0,5718330.0,0.0
1582914368617,5454242.0,5736244.0,0.0
1582914368664,5474698.0,5756388.0,0.0
1582914368708,5487542.0,5776637.0,0.0
1582914368763,5498262.0,5799081.0,0.0
1582914368810,5510926.0,5812232.0,0.0
1582914368859,5521395.0,5832960.0,0.0
1582914368907,5533121.0,5845537.0,0.0
1582914368958,5538740.0,5851538.0,0.0
1582914369006,5535528.0,5853068.0,0.0
1582914369051,5521982.0,5844601.0,0.0
1582914369102,5513683.0,5845501.0,0.0
1582914369153,5524063.0,5859911.0,0.0
1582914369201,5532737.0,5873481.0,0.0
1582914369250,5535914.0,5889796.0,0.0
1582914369298,5529876.0,5905082.0,0.0
1582914369346,5529717.0,5928099.0,0.0
1582914369397,5537011.0,5950147.0,0.0
1582914369444,5522718.0,5970327.0,0.0
1582914369493,5545366.0,6033259.0,0.0
1582914369542,5559377.0,6092860.0,0.0
1582914369591,5585495.0,6159764.0,0.0
1582914369640,5592234.0,6194809.0,0.0
1582914369688,5594936.0,6241485.0,0.0
1582914369739,5591692.0,6274990.0,0.0
1582914369785,5583392.0,6276261.0,0.0
1582914369830,5579367.0,6262786.0,0.0
1582914369878,5581663.0,6248596.0,0.0
1582914369931,5579672.0,6232634.0,0.0
1582914369980,5586738.0,6224505.0,0.0
1582914370030,5581876.0,6213948.0,0.0
1582914370079,5584512.0,6207888.0,0.0
1582914370127,5584353.0,6202084.0,0.0
1582914370172,5589091.0,6199468.0,0.0
1582914370224,5586332.0,6193617.0,0.0
1582914370271,5590018.0,6189146.0,0.0
1582914370322,5589859.0,6193500.0,0.0
1582914370369,5594439.0,6194738.0,0.0
1582914370420,5599528.0,6171557.0,0.0
1582914370467,5598520.0,6132333.0,0.0
1582914370514,5594428.0,6122512.0,0.0
1582914370565,5596858.0,6128058.0,0.0
1582914370612,5596903.0,6142189.0,0.0
1582914370662,5597549.0,6139759.0,0.0
1582914370711,5601676.0,6141406.0,0.0
1582914370761,5600331.0,6139457.0,0.0
1582914370808,5601664.0,6147688.0,0.0
1582914370859,5602681.0,6152406.0,0.0
1582914370906,5604242.0,6150935.0,0.0
1582914370954,5602681.0,6102857.0,0.0
1582914371003,5604061.0,6086521.0,0.0
1582914371052,5598612.0,6094344.0,0.0
1582914371101,5598973.0,6107049.0,0.0
1582914371150,5599776.0,6109221.0,0.0
1582914371198,5599402.0,6105310.0,0.0
1582914371246,5596779.0,6101585.0,0.0
1582914371295,5596101.0,6109326.0,0.0
1582914371343,5598872.0,6116440.0,0.0
1582914371392,5598498.0,6125267.0,0.0
1582914371442,5599912.0,6127695.0,0.0
1582914371493,5600522.0,6076535.0,0.0
1582914371540,5598961.0,6055235.0,0.0
1582914371587,5593931.0,6055644.0,0.0
1582914371634,5590765.0,6059136.0,0.0
1582914371680,5594892.0,6065676.0,0.0
1582914371734,5593738.0,6062942.0,0.0
1582914371783,5599244.0,6059637.0,0.0
1582914371832,5597889.0,6064216.0,0.0
1582914371876,5598510.0,6071677.0,0.0
1582914371929,5602738.0,6079876.0,0.0
1582914371974,5602456.0,6088225.0,0.0
1582914372026,5601777.0,6049479.0,0.0
1582914372073,5597470.0,6012588.0,0.0
1582914372124,5597978.0,6009669.0,0.0
1582914372172,5597391.0,6018169.0,0.0
1582914372221,5594959.0,6035021.0,0.0
1582914372270,5600601.0,6032195.0,0.0
1582914372313,5600737.0,6026835.0,0.0
1582914372366,5600544.0,6032440.0,0.0
1582914372414,5601089.0,6037134.0,0.0
1582914372464,5602287.0,6049292.0,0.0
1582914372515,5604039.0,6055188.0,0.0
1582914372562,5605339.0,6040135.0,0.0
1582914372611,5604185.0,5988041.0,0.0
1582914372658,5601936.0,5993320.0,0.0
1582914372703,5608529.0,6020903.0,0.0
1582914372754,5605012.0,6035441.0,0.0
1582914372800,5609681.0,6036855.0,0.0
1582914372851,5617426.0,6038326.0,0.0
1582914372899,5614102.0,6039973.0,0.0
1582914372947,5610642.0,6039260.0,0.0
1582914372996,5612621.0,6037566.0,0.0
1582914373045,5612643.0,6044025.0,0.0
1582914373096,5610585.0,6046384.0,0.0
1582914373142,5608403.0,6014759.0,0.0
1582914373193,5610089.0,5977497.0,0.0
1582914373238,5606300.0,5964930.0,0.0
1582914373286,5600455.0,5980088.0,0.0
1582914373337,5606572.0,5992024.0,0.0
1582914373387,5609693.0,6010871.0,0.0
1582914373436,5603801.0,5999953.0,0.0
1582914373483,5594959.0,5998166.0,0.0
1582914373537,5597527.0,5998831.0,0.0
1582914373585,5594689.0,6004087.0,0.0
1582914373635,5588796.0,5993108.0,0.0
1582914373682,5583506.0,5990504.0,0.0
1582914373731,5595038.0,5998503.0,0.0
1582914373774,5595627.0,5942767.0,0.0
1582914373828,5585619.0,5905315.0,0.0
1582914373880,5591749.0,5909088.0,0.0
1582914373926,5593002.0,5927526.0,0.0
1582914373976,5577321.0,5914061.0,0.0
1582914374024,5579266.0,5897807.0,0.0
1582914374073,5585574.0,5897702.0,0.0
1582914374115,5593579.0,5910968.0,0.0
1582914374170,5592370.0,5921804.0,0.0
1582914374218,5588085.0,5932747.0,0.0
1582914374266,5602716.0,5960095.0,0.0
1582914374317,5610258.0,6027045.0,0.0
1582914374363,5609681.0,6102297.0,0.0
1582914374414,5613265.0,6103325.0,0.0
1582914374458,5618783.0,6140577.0,0.0
1582914374512,5630260.0,6178891.0,0.0
1582914374561,5632375.0,6198767.0,0.0
1582914374607,5636977.0,6181065.0,0.0
1582914374656,5636977.0,6156634.0,0.0
1582914374705,5634590.0,6119021.0,0.0
1582914374754,5632386.0,6107540.0,0.0
1582914374800,5628609.0,6094776.0,0.0
1582914374852,5625557.0,6091471.0,0.0
1582914374894,5625782.0,6094203.0,0.0
1582914374949,5619439.0,6097403.0,0.0
1582914375000,5615900.0,6085608.0,0.0
1582914375047,5609862.0,6009050.0,0.0
1582914375096,5612452.0,5988041.0,0.0
1582914375142,5613515.0,6004389.0,0.0
1582914375193,5617032.0,6032486.0,0.0
1582914375235,5625557.0,6055843.0,0.0
1582914375285,5631764.0,6084769.0,0.0
1582914375338,5636276.0,6108464.0,0.0
1582914375387,5638989.0,6132169.0,0.0
1582914375437,5662667.0,6172609.0,0.0
1582914375485,5669359.0,6217136.0,0.0
1582914375535,5683992.0,6245445.0,0.0
1582914375578,5684014.0,6261220.0,0.0
1582914375632,5690991.0,6283385.0,0.0
1582914375677,5696418.0,6298204.0,0.0
1582914375728,5695841.0,6257833.0,0.0
1582914375777,5697210.0,6226012.0,0.0
1582914375825,5696871.0,6238543.0,0.0
1582914375875,5698092.0,6258184.0,0.0
1582914375921,5698724.0,6270388.0,0.0
1582914375972,5701857.0,6277978.0,0.0
1582914376019,5703237.0,6278947.0,0.0
1582914376069,5705894.0,6293182.0,0.0
1582914376119,5708178.0,6309531.0,0.0
1582914376166,5714452.0,6323336.0,0.0
1582914376216,5717845.0,6333786.0,0.0
1582914376264,5718637.0,6344028.0,0.0
1582914376313,5713978.0,6343572.0,0.0
1582914376359,5705124.0,6306811.0,0.0
1582914376409,5693637.0,6275877.0,0.0
1582914376459,5681582.0,6275023.0,0.0
1582914376510,5669993.0,6283222.0,0.0
1582914376557,5675477.0,6290847.0,0.0
1582914376605,5679786.0,6291256.0,0.0
1582914376648,5662689.0,6280500.0,0.0
1582914376698,5648262.0,6272140.0,0.0
1582914376746,5645513.0,6273028.0,0.0
1582914376800,5652851.0,6284390.0,0.0
1582914376849,5645198.0,6288279.0,0.0
1582914376897,5647593.0,6287041.0,0.0
1582914376946,5641364.0,6252439.0,0.0
1582914376995,5609681.0,6220886.0,0.0
1582914377037,5614114.0,6235471.0,0.0
1582914377092,5603902.0,6253444.0,0.0
1582914377140,5609364.0,6259680.0,0.0
1582914377189,5618127.0,6259340.0,0.0
1582914377238,5617867.0,6269255.0,0.0
1582914377282,5613480.0,6273611.0,0.0
1582914377335,5622481.0,6289867.0,0.0
1582914377385,5623826.0,6304476.0,0.0
1582914377434,5628576.0,6309602.0,0.0
1582914377479,5638221.0,6324608.0,0.0
1582914377531,5627298.0,6286163.0,0.0
1582914377579,5596361.0,6259166.0,0.0
1582914377628,5563513.0,6249904.0,0.0
1582914377677,5553836.0,6245537.0,0.0
1582914377725,5543986.0,6242173.0,0.0
1582914377775,5515515.0,6211940.0,0.0
1582914377820,5455079.0,6157698.0,0.0
1582914377871,5383698.0,6106502.0,0.0
1582914377920,5310031.0,6037287.0,0.0
1582914377969,5247108.0,5972066.0,0.0
1582914378019,5193918.0,5931136.0,0.0
1582914378067,5153314.0,5897188.0,0.0
1582914378115,5119857.0,5865318.0,0.0
1582914378158,5066002.0,5776461.0,0.0
1582914378213,4989318.0,5667521.0,0.0
1582914378263,4925047.0,5604412.0,0.0
1582914378310,4878665.0,5556242.0,0.0
1582914378353,4838345.0,5512017.0,0.0
1582914378403,4804039.0,5462632.0,0.0
1582914378453,4765515.0,5412534.0,0.0
1582914378500,4726404.0,5356680.0,0.0
1582914378552,4686411.0,5303661.0,0.0
1582914378599,4647978.0,5248169.0,0.0
1582914378652,4617843.0,5208068.0,0.0
1582914378700,4596565.0,5182866.0,0.0
1582914378749,4584421.0,5137135.0,0.0
1582914378797,4544245.0,5045430.0,0.0
1582914378843,4522558.0,4990461.0,0.0
1582914378895,4491477.0,4942921.0,0.0
1582914378941,4442640.0,4878413.0,0.0
1582914378993,4386173.0,4814665.0,0.0
1582914379041,4347897.0,4765723.0,0.0
1582914379090,4321111.0,4718648.0,0.0
1582914379139,4295184.0,4675697.0,0.0
1582914379188,4277556.0,4646819.0,0.0
1582914379232,4262314.0,4621011.0,0.0
1582914379279,4251743.0,4598611.0,0.0
1582914379335,4238604.0,4577896.0,0.0
1582914379382,4211183.0,4515829.0,0.0
1582914379426,4153778.0,4424672.0,0.0
1582914379478,4111715.0,4359975.0,0.0
1582914379529,4087779.0,4322058.0,0.0
1582914379578,4068307.0,4293810.0,0.0
1582914379620,4045297.0,4249071.0,0.0
1582914379675,4014791.0,4202149.0,0.0
1582914379721,3992425.0,4168657.0,0.0
1582914379772,3976324.0,4144018.0,0.0
1582914379821,3973044.0,4128906.0,0.0
1582914379869,3989508.0,4123557.0,0.0
1582914379919,3999989.0,4116622.0,0.0
1582914379966,4002818.0,4111951.0,0.0
1582914380015,3974097.0,4061968.0,0.0
1582914380065,3923565.0,3995872.0,0.0
1582914380114,3877997.0,3944139.0,0.0
1582914380162,3848860.0,3907892.0,0.0
1582914380210,3837246.0,3897067.0,0.0
1582914380261,3826438.0,3880296.0,0.0
1582914380308,3813095.0,3862838.0,0.0
1582914380357,3797174.0,3843571.0,0.0
1582914380402,3786737.0,3830561.0,0.0
1582914380455,3775024.0,3818894.0,0.0
1582914380505,3766985.0,3815591.0,0.0
1582914380552,3757486.0,3800993.0,0.0
1582914380601,3743047.0,3786302.0,0.0
1582914380648,3734058.0,3775150.0,0.0
1582914380699,3717040.0,3732771.0,0.0
1582914380741,3708911.0,3602188.0,0.0
1582914380797,3731955.0,3613354.0,0.0
1582914380843,3756332.0,3635972.0,0.0
1582914380892,3774356.0,3655291.0,0.0
1582914380942,3756481.0,3657656.0,0.0
1582914380991,3733922.0,3678705.0,0.0
1582914381038,3753699.0,3694268.0,0.0
1582914381082,3785155.0,3705870.0,0.0
1582914381138,3798542.0,3706693.0,0.0
1582914381184,3810155.0,3709409.0,0.0
1582914381234,3807431.0,3713395.0,0.0
1582914381282,3799877.0,3714763.0,0.0
1582914381332,3798779.0,3714033.0,0.0
1582914381381,3806084.0,3696993.0,0.0
1582914381428,3791475.0,3667321.0,0.0
1582914381478,3786784.0,3645846.0,0.0
1582914381523,3746021.0,3619588.0,0.0
1582914381578,3721925.0,3626122.0,0.0
1582914381623,3713729.0,3643085.0,0.0
1582914381673,3700951.0,3654184.0,0.0
1582914381717,3711160.0,3677161.0,0.0
1582914381763,3764362.0,3737975.0,0.0
1582914381819,3794381.0,3754628.0,0.0
1582914381862,3801945.0,3750517.0,0.0
1582914381913,3802309.0,3733806.0,0.0
1582914381964,3798950.0,3743469.0,0.0
1582914382010,3805417.0,3761397.0,0.0
1582914382062,3784894.0,3740056.0,0.0
1582914382111,3759985.0,3731868.0,0.0
1582914382160,3793363.0,3762505.0,0.0
1582914382204,3807463.0,3766582.0,0.0
1582914382259,3807542.0,3748477.0,0.0
1582914382306,3803857.0,3736541.0,0.0
1582914382357,3801551.0,3734166.0,0.0
1582914382403,3807565.0,3762245.0,0.0
1582914382453,3814339.0,3786926.0,0.0
1582914382500,3825430.0,3801045.0,0.0
1582914382547,3906515.0,3865474.0,0.0
1582914382599,3987890.0,3943031.0,0.0
1582914382644,4038887.0,3931822.0,0.0
1582914382695,4039848.0,3904700.0,0.0
1582914382744,3994109.0,3894810.0,0.0
1582914382793,3967674.0,3889458.0,0.0
1582914382842,3956016.0,3895464.0,0.0
1582914382890,3944484.0,3897193.0,0.0
1582914382940,3985460.0,3926521.0,0.0
1582914382984,4020309.0,3944313.0,0.0
1582914383038,4065493.0,3966051.0,0.0
1582914383086,4127319.0,3982250.0,0.0
1582914383137,4131888.0,3986704.0,0.0
1582914383182,4136602.0,4012359.0,0.0
1582914383234,4165412.0,4025472.0,0.0
1582914383281,4143997.0,4011796.0,0.0
1582914383328,4161149.0,4031427.0,0.0
1582914383380,4207532.0,4081217.0,0.0
1582914383425,4226098.0,4112542.0,0.0
1582914383473,4229083.0,4094673.0,0.0
1582914383521,4224221.0,4078835.0,0.0
1582914383570,4208323.0,4074849.0,0.0
1582914383619,4206153.0,4079817.0,0.0
1582914383671,4197345.0,4076913.0,0.0
1582914383721,4196270.0,4079077.0,0.0
1582914383766,4253494.0,4123440.0,0.0
1582914383817,4317663.0,4154680.0,0.0
1582914383866,4360947.0,4182609.0,0.0
1582914383916,4384591.0,4184336.0,0.0
1582914383963,4390458.0,4197373.0,0.0
1582914384013,4395207.0,4208900.0,0.0
1582914384061,4425431.0,4240577.0,0.0
1582914384105,4461840.0,4264317.0,0.0
1582914384159,4516057.0,4306683.0,0.0
1582914384207,4642641.0,4418669.0,0.0
1582914384255,4669326.0,4489079.0,0.0
1582914384299,4623678.0,4460531.0,0.0
1582914384353,4602839.0,4429710.0,0.0
1582914384402,4585382.0,4413242.0,0.0
1582914384445,4585801.0,4411899.0,0.0
1582914384500,4581615.0,4417320.0,0.0
1582914384548,4586502.0,4422763.0,0.0
1582914384597,4675590.0,4458191.0,0.0
1582914384640,4795162.0,4563878.0,0.0
1582914384695,4884354.0,4639892.0,0.0
1582914384742,4848237.0,4645243.0,0.0
1582914384791,4832408.0,4650077.0,0.0
1582914384840,4816861.0,4643222.0,0.0
1582914384886,4824007.0,4659297.0,0.0
1582914384932,4833255.0,4692920.0,0.0
1582914384983,4846575.0,4719120.0,0.0
1582914385032,4912676.0,4806089.0,0.0
1582914385080,5067743.0,5070884.0,0.0
1582914385129,5085777.0,5123065.0,0.0
1582914385182,5038955.0,5042974.0,0.0
1582914385226,4976099.0,5010622.0,0.0
1582914385279,4921961.0,4942535.0,0.0
1582914385327,4911433.0,4934540.0,0.0
1582914385376,4894189.0,4914996.0,0.0
1582914385425,4902613.0,4948738.0,0.0
1582914385475,5091783.0,5062741.0,0.0
1582914385523,5200883.0,5378342.0,0.0
1582914385568,5137485.0,5317103.0,0.0
1582914385619,5109829.0,5253985.0,0.0
1582914385671,5078235.0,5190692.0,0.0
1582914385718,5085202.0,5193216.0,0.0
1582914385767,5098599.0,5234297.0,0.0
1582914385817,5109873.0,5253743.0,0.0
1582914385864,5240086.0,5286318.0,0.0
1582914385911,5217958.0,5497482.0,0.0
1582914385962,5234568.0,5512535.0,0.0
1582914386011,5227162.0,5369443.0,0.0
1582914386059,5105056.0,5234200.0,0.0
1582914386107,5051698.0,5163357.0,0.0
1582914386157,5041408.0,5144941.0,0.0
1582914386205,5035869.0,5123364.0,0.0
1582914386254,5033504.0,5085096.0,0.0
1582914386298,5082906.0,5078296.0,0.0
1582914386348,5114069.0,5131503.0,0.0
1582914386400,5111174.0,5113155.0,0.0
1582914386449,5072694.0,5064899.0,0.0
1582914386498,5058041.0,5051424.0,0.0
1582914386546,5050217.0,5043823.0,0.0
1582914386597,5063909.0,5065612.0,0.0
1582914386639,5085291.0,5091840.0,0.0
1582914386687,5084070.0,5080984.0,0.0
1582914386742,5077321.0,5057078.0,0.0
1582914386789,5129344.0,5068588.0,0.0
1582914386840,5086354.0,5034077.0,0.0
1582914386887,5081051.0,5018000.0,0.0
1582914386937,5043411.0,4986264.0,0.0
1582914386985,5017585.0,4972422.0,0.0
1582914387034,5000555.0,4975128.0,0.0
1582914387083,4985732.0,4966672.0,0.0
1582914387130,4991148.0,4979049.0,0.0
1582914387181,5058494.0,5067095.0,0.0
1582914387229,5062530.0,5050837.0,0.0
1582914387279,5063852.0,5085830.0,0.0
1582914387326,5068149.0,5081610.0,0.0
1582914387377,5069246.0,5041820.0,0.0
1582914387424,5069858.0,5015515.0,0.0
1582914387470,5071768.0,5009659.0,0.0
1582914387522,5073928.0,5020495.0,0.0
1582914387571,5112281.0,5059496.0,0.0
1582914387620,5107837.0,5067268.0,0.0
1582914387668,5079751.0,5048177.0,0.0
1582914387718,5070728.0,5031149.0,0.0
1582914387765,5051156.0,5024715.0,0.0
1582914387813,5029367.0,5025099.0,0.0
1582914387863,5028530.0,5017096.0,0.0
1582914387910,5019133.0,5007049.0,0.0
1582914387960,5009714.0,4994143.0,0.0
1582914388009,5062552.0,5047312.0,0.0
1582914388060,5094269.0,5043035.0,0.0
1582914388107,5068387.0,5022567.0,0.0
1582914388154,5079740.0,5023857.0,0.0
1582914388203,5081967.0,5015247.0,0.0
1582914388250,5084489.0,5020409.0,0.0
1582914388297,5110562.0,5056365.0,0.0
1582914388351,5125306.0,5087370.0,0.0
1582914388400,5187746.0,5215504.0,0.0
1582914388447,5243003.0,5322776.0,0.0
1582914388491,5224358.0,5294746.0,0.0
1582914388542,5176313.0,5182545.0,0.0
1582914388588,5121757.0,5105700.0,0.0
1582914388638,5071530.0,5046974.0,0.0
1582914388688,5042448.0,5017085.0,0.0
1582914388741,5002975.0,4965719.0,0.0
1582914388788,4980327.0,4935745.0,0.0
1582914388839,4989419.0,4946734.0,0.0
1582914388881,5000364.0,4954930.0,0.0
1582914388933,5009578.0,4956251.0,0.0
1582914388983,5007171.0,4938374.0,0.0
1582914389031,5012146.0,4942535.0,0.0
1582914389082,5015346.0,4926169.0,0.0
1582914389130,5020627.0,4907261.0,0.0
1582914389180,5015854.0,4902532.0,0.0
1582914389227,5041850.0,4959872.0,0.0
1582914389274,5054128.0,4998611.0,0.0
1582914389324,5107736.0,5039433.0,0.0
1582914389373,5110438.0,5047417.0,0.0
1582914389421,5094891.0,5025168.0,0.0
1582914389472,5062599.0,5011287.0,0.0
1582914389519,5026641.0,5004968.0,0.0
1582914389569,5017008.0,5001636.0,0.0
1582914389614,5042856.0,5013898.0,0.0
1582914389666,5062666.0,4992833.0,0.0
1582914389712,5022933.0,4936265.0,0.0
1582914389763,4961174.0,4862675.0,0.0
1582914389812,4923826.0,4821932.0,0.0
1582914389862,4906469.0,4807031.0,0.0
1582914389909,5037960.0,4999728.0,0.0
1582914389952,5065390.0,5162875.0,0.0
1582914390001,5144066.0,5342319.0,0.0
1582914390052,5219043.0,5416332.0,0.0
1582914390104,5221497.0,5367978.0,0.0
1582914390154,5210337.0,5367535.0,0.0
1582914390202,5175216.0,5284382.0,0.0
1582914390252,5178632.0,5227178.0,0.0
1582914390296,5212836.0,5209504.0,0.0
1582914390349,5219100.0,5212115.0,0.0
1582914390396,5236195.0,5249265.0,0.0
1582914390445,5272322.0,5286521.0,0.0
1582914390494,5250082.0,5323489.0,0.0
1582914390544,5255271.0,5389043.0,0.0
1582914390592,5305035.0,5465213.0,0.0
1582914390639,5318714.0,5435875.0,0.0
1582914390689,5326065.0,5389785.0,0.0
1582914390733,5360451.0,5410850.0,0.0
1582914390786,5367324.0,5412305.0,0.0
1582914390834,5391827.0,5503126.0,0.0
1582914390879,5364951.0,5575048.0,0.0
1582914390934,5310573.0,5532734.0,0.0
1582914390982,5318219.0,5484911.0,0.0
1582914391030,5308324.0,5442799.0,0.0
1582914391076,5318330.0,5438080.0,0.0
1582914391127,5314499.0,5427466.0,0.0
1582914391180,5334397.0,5457787.0,0.0
1582914391224,5350251.0,5472640.0,0.0
1582914391275,5402819.0,5500765.0,0.0
1582914391322,5381278.0,5449051.0,0.0
1582914391371,5336344.0,5353945.0,0.0
1582914391416,5281481.0,5290556.0,0.0
1582914391469,5241555.0,5270070.0,0.0
1582914391521,5228631.0,5287860.0,0.0
1582914391566,5238909.0,5323257.0,0.0
1582914391614,5248351.0,5360822.0,0.0
1582914391662,5319801.0,5452267.0,0.0
1582914391706,5380203.0,5521802.0,0.0
1582914391754,5305136.0,5447779.0,0.0
1582914391803,5285426.0,5405167.0,0.0
1582914391854,5253315.0,5388842.0,0.0
1582914391902,5237904.0,5368913.0,0.0
1582914391959,5218919.0,5334306.0,0.0
1582914392004,5196791.0,5309127.0,0.0
1582914392055,5223239.0,5327756.0,0.0
1582914392096,5264272.0,5388322.0,0.0
1582914392151,5277468.0,5429382.0,0.0
1582914392195,5279784.0,5427976.0,0.0
1582914392249,5288208.0,5436174.0,0.0
1582914392301,5300849.0,5456093.0,0.0
1582914392346,5313954.0,5490054.0,0.0
1582914392396,5324493.0,5518921.0,0.0
1582914392445,5354819.0,5548867.0,0.0
1582914392494,5381469.0,5595101.0,0.0
1582914392536,5418388.0,5593116.0,0.0
1582914392590,5357521.0,5540709.0,0.0
1582914392634,5328384.0,5502778.0,0.0
1582914392688,5291465.0,5473767.0,0.0
1582914392738,5274008.0,5469171.0,0.0
1582914392785,5257725.0,5462767.0,0.0
1582914392836,5249483.0,5458019.0,0.0
1582914392879,5290865.0,5493666.0,0.0
1582914392932,5341568.0,5543560.0,0.0
1582914392976,5375874.0,5581732.0,0.0
1582914393029,5364362.0,5572880.0,0.0
1582914393080,5352049.0,5557701.0,0.0
1582914393127,5351336.0,5559413.0,0.0
1582914393176,5358494.0,5603827.0,0.0
1582914393224,5369585.0,5651092.0,0.0
1582914393274,5405316.0,5674508.0,0.0
1582914393322,5447753.0,5703942.0,0.0
1582914393371,5442970.0,5696150.0,0.0
1582914393417,5429333.0,5774403.0,0.0
1582914393468,5386965.0,5760010.0,0.0
1582914393519,5357149.0,5725127.0,0.0
1582914393561,5344812.0,5690459.0,0.0
1582914393611,5333753.0,5653054.0,0.0
1582914393659,5311863.0,5642392.0,0.0
1582914393707,5332679.0,5686682.0,0.0
1582914393755,5349380.0,5682669.0,0.0
1582914393805,5338107.0,5710246.0,0.0
1582914393856,5341419.0,5699336.0,0.0
1582914393902,5352015.0,5696916.0,0.0
1582914393952,5347774.0,5709297.0,0.0
1582914394000,5368456.0,5744574.0,0.0
1582914394050,5379163.0,5768218.0,0.0
1582914394098,5345637.0,5753847.0,0.0
1582914394147,5318048.0,5661919.0,0.0
1582914394195,5299799.0,5641092.0,0.0
1582914394244,5283200.0,5624279.0,0.0
1582914394293,5249629.0,5605577.0,0.0
1582914394341,5228802.0,5608923.0,0.0
1582914394391,5226268.0,5601970.0,0.0
1582914394439,5206097.0,5601428.0,0.0
1582914394487,5196145.0,5611196.0,0.0
1582914394540,5236603.0,5651699.0,0.0
1582914394589,5248725.0,5647095.0,0.0
1582914394638,5242969.0,5653961.0,0.0
1582914394686,5244891.0,5631605.0,0.0
1582914394736,5243296.0,5627219.0,0.0
1582914394783,5248544.0,5638300.0,0.0
1582914394833,5269111.0,5664599.0,0.0
1582914394879,5270310.0,5693049.0,0.0
1582914394929,5253473.0,5711965.0,0.0
1582914394978,5302670.0,5746927.0,0.0
1582914395027,5254332.0,5714192.0,0.0
1582914395076,5265889.0,5704943.0,0.0
1582914395124,5250499.0,5707668.0,0.0
1582914395175,5227942.0,5691771.0,0.0
1582914395217,5206887.0,5679841.0,0.0
1582914395271,5190458.0,5667393.0,0.0
1582914395320,5184138.0,5667811.0,0.0
1582914395368,5214815.0,5698261.0,0.0
1582914395417,5264260.0,5720604.0,0.0
1582914395466,5267653.0,5741238.0,0.0
1582914395516,5284217.0,5759150.0,0.0
1582914395559,5280611.0,5757781.0,0.0
1582914395613,5288311.0,5766873.0,0.0
1582914395659,5297525.0,5779785.0,0.0
1582914395709,5309285.0,5787259.0,0.0
1582914395759,5342279.0,5822447.0,0.0
1582914395800,5387847.0,5874279.0,0.0
1582914395856,5365132.0,5851371.0,0.0
1582914395902,5346893.0,5822197.0,0.0
1582914395954,5321226.0,5820253.0,0.0
1582914395998,5297310.0,5809682.0,0.0
1582914396050,5281436.0,5812994.0,0.0
1582914396099,5273780.0,5813774.0,0.0
1582914396148,5263095.0,5806142.0,0.0
1582914396198,5295254.0,5833132.0,0.0
1582914396243,5307477.0,5825239.0,0.0
1582914396294,5296260.0,5828337.0,0.0
1582914396340,5297617.0,5828790.0,0.0
1582914396391,5296995.0,5822323.0,0.0
1582914396440,5294789.0,5818546.0,0.0
1582914396489,5299856.0,5824979.0,0.0
1582914396538,5299675.0,5828835.0,0.0
1582914396586,5319168.0,5870435.0,0.0
1582914396637,5337971.0,5895230.0,0.0
1582914396677,5311750.0,5863547.0,0.0
1582914396732,5308708.0,5841318.0,0.0
1582914396783,5268240.0,5818626.0,0.0
1582914396829,5227818.0,5806301.0,0.0
1582914396879,5205475.0,5801506.0,0.0
1582914396927,5187677.0,5801053.0,0.0
1582914396976,5176336.0,5800523.0,0.0
1582914397023,5203982.0,5834569.0,0.0
1582914397074,5223747.0,5855882.0,0.0
1582914397120,5214746.0,5847074.0,0.0
1582914397171,5207273.0,5838254.0,0.0
1582914397220,5211727.0,5821001.0,0.0
1582914397268,5209748.0,5802172.0,0.0
1582914397312,5210518.0,5796146.0,0.0
1582914397362,5231120.0,5822514.0,0.0
1582914397418,5275001.0,5869846.0,0.0
1582914397459,5424946.0,6033156.0,0.0
1582914397512,5417199.0,6093332.0,0.0
1582914397561,5426868.0,6060155.0,0.0
1582914397609,5374482.0,6037577.0,0.0
1582914397659,5335868.0,6026993.0,0.0
1582914397704,5309986.0,6035449.0,0.0
1582914397756,5293624.0,6007521.0,0.0
1582914397799,5281718.0,5964182.0,0.0
1582914397853,5293003.0,5982035.0,0.0
1582914397901,5301540.0,5982646.0,0.0
1582914397951,5297129.0,5994305.0,0.0
1582914397999,5302343.0,5981730.0,0.0
1582914398048,5305746.0,5975399.0,0.0
1582914398097,5305317.0,5972695.0,0.0
1582914398142,5317699.0,5985145.0,0.0
1582914398198,5330068.0,5990278.0,0.0
1582914398241,5340775.0,5977953.0,0.0
1582914398293,5343160.0,5970944.0,0.0
1582914398340,5333414.0,5957534.0,0.0
1582914398389,5306040.0,5946532.0,0.0
1582914398439,5265210.0,5944360.0,0.0
1582914398487,5243975.0,5934049.0,0.0
1582914398538,5221971.0,5929378.0,0.0
1582914398582,5213752.0,5932464.0,0.0
1582914398633,5202852.0,5924087.0,0.0
1582914398681,5227410.0,5955531.0,0.0
1582914398731,5256571.0,5949596.0,0.0
1582914398780,5247831.0,5932997.0,0.0
1582914398827,5232646.0,5918398.0,0.0
1582914398878,5243603.0,5908675.0,0.0
1582914398920,5242823.0,5909252.0,0.0
1582914398975,5254627.0,5927253.0,0.0
1582914399021,5268670.0,5941997.0,0.0
1582914399072,5321575.0,5988276.0,0.0
1582914399120,5370581.0,6033980.0,0.0
1582914399168,5313592.0,5998228.0,0.0
1582914399219,5307962.0,5982522.0,0.0
1582914399261,5277411.0,5966138.0,0.0
1582914399312,5250184.0,5945774.0,0.0
1582914399363,5236705.0,5936954.0,0.0
1582914399412,5221079.0,5934364.0,0.0
1582914399461,5214961.0,5929831.0,0.0
1582914399510,5256527.0,5992177.0,0.0
1582914399558,5256470.0,5974144.0,0.0
1582914399602,5265141.0,5988244.0,0.0
1582914399655,5253597.0,5971328.0,0.0
1582914399702,5263266.0,5974493.0,0.0
1582914399754,5284884.0,5965832.0,0.0
1582914399801,5308143.0,5967778.0,0.0
1582914399851,5304661.0,5971362.0,0.0
1582914399899,5342821.0,6002151.0,0.0
1582914399946,5350261.0,6016375.0,0.0
1582914399997,5319088.0,5975612.0,0.0
1582914400043,5303269.0,5980160.0,0.0
1582914400096,5278303.0,5960655.0,0.0
1582914400142,5258821.0,5957376.0,0.0
1582914400191,5245706.0,5958946.0,0.0
1582914400241,5235732.0,5928439.0,0.0
1582914400287,5217946.0,5892699.0,0.0
1582914400338,5212948.0,5910745.0,0.0
1582914400387,5217574.0,5886683.0,0.0
1582914400438,5223645.0,5874990.0,0.0
1582914400483,5197413.0,5848228.0,0.0
1582914400535,5198644.0,5835156.0,0.0
1582914400581,5207397.0,5827151.0,0.0
1582914400629,5205871.0,5816421.0,0.0
1582914400678,5213661.0,5819802.0,0.0
1582914400722,5239680.0,5835349.0,0.0
1582914400776,5253609.0,5820830.0,0.0
1582914400824,5233844.0,5818309.0,0.0
1582914400874,5225218.0,5790573.0,0.0
1582914400921,5222085.0,5782328.0,0.0
1582914400971,5219789.0,5788050.0,0.0
1582914401019,5212576.0,5794214.0,0.0
1582914401063,5203474.0,5792879.0,0.0
1582914401118,5199504.0,5792709.0,0.0
1582914401164,5237101.0,5837677.0,0.0
1582914401215,5243908.0,5813254.0,0.0
1582914401263,5240482.0,5800704.0,0.0
1582914401308,5246372.0,5776654.0,0.0
1582914401360,5259918.0,5814680.0,0.0
1582914401403,5305587.0,5853259.0,0.0
1582914401458,5322561.0,5874165.0,0.0
1582914401504,5336072.0,5895808.0,0.0
1582914401556,5441375.0,5968952.0,0.0
1582914401604,5531944.0,6059264.0,0.0
1582914401653,5457509.0,6027977.0,0.0
1582914401701,5450319.0,6024527.0,0.0
1582914401749,5426088.0,6033867.0,0.0
1582914401799,5396305.0,6020807.0,0.0
1582914401845,5378767.0,6013752.0,0.0
1582914401896,5360812.0,5999018.0,0.0
1582914401944,5351247.0,5988118.0,0.0
1582914401987,5369553.0,6007352.0,0.0
1582914402043,5388458.0,6023724.0,0.0
1582914402092,5398113.0,6023657.0,0.0
1582914402140,5402908.0,6008890.0,0.0
1582914402186,5397548.0,5962847.0,0.0
1582914402237,5398838.0,5933608.0,0.0
1582914402285,5404151.0,5927547.0,0.0
1582914402336,5411265.0,5942404.0,0.0
1582914402383,5472402.0,5989024.0,0.0
1582914402433,5507996.0,6012056.0,0.0
1582914402481,5478938.0,6019258.0,0.0
1582914402527,5482522.0,6041918.0,0.0
1582914402581,5466024.0,6054639.0,0.0
1582914402629,5452174.0,6065708.0,0.0
1582914402677,5437677.0,6062587.0,0.0
1582914402725,5425546.0,6044948.0,0.0
1582914402774,5412778.0,6028497.0,0.0
1582914402821,5417528.0,6035157.0,0.0
1582914402871,5440763.0,6080780.0,0.0
1582914402920,5433890.0,6069067.0,0.0
1582914402966,5430519.0,6059105.0,0.0
1582914403017,5428902.0,6032262.0,0.0
1582914403066,5429548.0,6032680.0,0.0
1582914403117,5441363.0,6023996.0,0.0
1582914403162,5452535.0,5993116.0,0.0
1582914403213,5436107.0,5966691.0,0.0
1582914403261,5445310.0,5964318.0,0.0
1582914403305,5474980.0,5955758.0,0.0
1582914403358,5448057.0,5955848.0,0.0
1582914403406,5416533.0,5932692.0,0.0
1582914403456,5398725.0,5920469.0,0.0
1582914403504,5386581.0,5925150.0,0.0
1582914403551,5382645.0,5926483.0,0.0
1582914403601,5369134.0,5905712.0,0.0
1582914403645,5383210.0,5900986.0,0.0
1582914403700,5400466.0,5896102.0,0.0
1582914403748,5389949.0,5880939.0,0.0
1582914403796,5387587.0,5885687.0,0.0
1582914403844,5383549.0,5875691.0,0.0
1582914403895,5396780.0,5870027.0,0.0
1582914403942,5401801.0,5866985.0,0.0
1582914403986,5413818.0,5877638.0,0.0
1582914404039,5433041.0,5903055.0,0.0
1582914404091,5438220.0,5884365.0,0.0
1582914404138,5439498.0,5854762.0,0.0
1582914404186,5426314.0,5824278.0,0.0
1582914404236,5396146.0,5793987.0,0.0
1582914404283,5373226.0,5782952.0,0.0
1582914404334,5359544.0,5776778.0,0.0
1582914404382,5347425.0,5781595.0,0.0
1582914404430,5344654.0,5777422.0,0.0
1582914404481,5361275.0,5805803.0,0.0
1582914404521,5375274.0,5812315.0,0.0
1582914404569,5373882.0,5812756.0,0.0
1582914404618,5381504.0,5775693.0,0.0
1582914404668,5381979.0,5755532.0,0.0
1582914404722,5378881.0,5743477.0,0.0
1582914404767,5384602.0,5743217.0,0.0
1582914404818,5394304.0,5758742.0,0.0
1582914404868,5426438.0,5785474.0,0.0
1582914404917,5492065.0,5834286.0,0.0
1582914404965,5458438.0,5798645.0,0.0
1582914405016,5431842.0,5795287.0,0.0
1582914405064,5394881.0,5775985.0,0.0
1582914405109,5377976.0,5760451.0,0.0
1582914405162,5364091.0,5746905.0,0.0
1582914405209,5349268.0,5745152.0,0.0
1582914405260,5347581.0,5748215.0,0.0
1582914405306,5389486.0,5800409.0,0.0
1582914405350,5397583.0,5812010.0,0.0
1582914405404,5391091.0,5835901.0,0.0
1582914405449,5388129.0,5828394.0,0.0
1582914405502,5392753.0,5807183.0,0.0
1582914405550,5402331.0,5762497.0,0.0
1582914405600,5404344.0,5749018.0,0.0
1582914405648,5419495.0,5752344.0,0.0
1582914405697,5472469.0,5790222.0,0.0
1582914405744,5524211.0,5841013.0,0.0
1582914405793,5472865.0,5796746.0,0.0
1582914405842,5446779.0,5797209.0,0.0
1582914405889,5421598.0,5796939.0,0.0
1582914405940,5402172.0,5800285.0,0.0
1582914405989,5382905.0,5788808.0,0.0
1582914406038,5370219.0,5740730.0,0.0
1582914406086,5350987.0,5705600.0,0.0
1582914406136,5378033.0,5740696.0,0.0
1582914406183,5367698.0,5727794.0,0.0
1582914406231,5358608.0,5721406.0,0.0
1582914406281,5347527.0,5712123.0,0.0
1582914406328,5357952.0,5713842.0,0.0
1582914406379,5369756.0,5717280.0,0.0
1582914406427,5385506.0,5732465.0,0.0
1582914406477,5398272.0,5720829.0,0.0
1582914406524,5438004.0,5742665.0,0.0
1582914406569,5505928.0,5788097.0,0.0
1582914406622,5402591.0,5727479.0,0.0
1582914406671,5363673.0,5689656.0,0.0
1582914406720,5333934.0,5680294.0,0.0
1582914406769,5318942.0,5689723.0,0.0
1582914406818,5308743.0,5692086.0,0.0
1582914406865,5298657.0,5693060.0,0.0
1582914406913,5301042.0,5686784.0,0.0
1582914406961,5342516.0,5707690.0,0.0
1582914407011,5320852.0,5671226.0,0.0
1582914407061,5322910.0,5679932.0,0.0
1582914407109,5305587.0,5665877.0,0.0
1582914407158,5311490.0,5665391.0,0.0
1582914407207,5306288.0,5661919.0,0.0
1582914407251,5327603.0,5691296.0,0.0
1582914407303,5351326.0,5732148.0,0.0
1582914407351,5438277.0,5816669.0,0.0
1582914407401,5445818.0,5848080.0,0.0
1582914407451,5441172.0,5786038.0,0.0
1582914407500,5403156.0,5749674.0,0.0
1582914407549,5374888.0,5740029.0,0.0
1582914407591,5361263.0,5738107.0,0.0
1582914407646,5343806.0,5737350.0,0.0
1582914407692,5340990.0,5733245.0,0.0
1582914407742,5384003.0,5782658.0,0.0
1582914407792,5382328.0,5772029.0,0.0
1582914407841,5376032.0,5777761.0,0.0
1582914407885,5363445.0,5726778.0,0.0
1582914407938,5347866.0,5687836.0,0.0
1582914407988,5336287.0,5659286.0,0.0
1582914408032,5324901.0,5660789.0,0.0
1582914408084,5306538.0,5678327.0,0.0
1582914408132,5328101.0,5712294.0,0.0
1582914408182,5387530.0,5743874.0,0.0
1582914408230,5339487.0,5735834.0,0.0
1582914408280,5333122.0,5713718.0,0.0
1582914408323,5322266.0,5704955.0,0.0
1582914408372,5307769.0,5684183.0,0.0
1582914408424,5294563.0,5659115.0,0.0
1582914408472,5281243.0,5639870.0,0.0
1582914408522,5274323.0,5634421.0,0.0
1582914408572,5317562.0,5688005.0,0.0
1582914408622,5321543.0,5682432.0,0.0
1582914408668,5322752.0,5693647.0,0.0
1582914408717,5318511.0,5677941.0,0.0
1582914408766,5323928.0,5686920.0,0.0
1582914408813,5337112.0,5678214.0,0.0
1582914408863,5333223.0,5636502.0,0.0
1582914408914,5323611.0,5627016.0,0.0
1582914408962,5347616.0,5688864.0,0.0
1582914409010,5399200.0,5747165.0,0.0
1582914409057,5352750.0,5733867.0,0.0
1582914409108,5342392.0,5687474.0,0.0
1582914409154,5314803.0,5668975.0,0.0
1582914409204,5302070.0,5668398.0,0.0
1582914409253,5295016.0,5668477.0,0.0
1582914409303,5285010.0,5634456.0,0.0
1582914409352,5271588.0,5588809.0,0.0
1582914409394,5292641.0,5607952.0,0.0
1582914409449,5278553.0,5603417.0,0.0
1582914409493,5281991.0,5611897.0,0.0
1582914409546,5276121.0,5595422.0,0.0
1582914409594,5284126.0,5596249.0,0.0
1582914409643,5287948.0,5592393.0,0.0
1582914409693,5301030.0,5614464.0,0.0
1582914409742,5315752.0,5642800.0,0.0
1582914409789,5342776.0,5664386.0,0.0
1582914409841,5388401.0,5649312.0,0.0
1582914409882,5329966.0,5597334.0,0.0
1582914409940,5316624.0,5583278.0,0.0
1582914409984,5287688.0,5576484.0,0.0
1582914410032,5269438.0,5571756.0,0.0
1582914410078,5256844.0,5576053.0,0.0
1582914410130,5247571.0,5569653.0,0.0
1582914410177,5249968.0,5574312.0,0.0
1582914410227,5276609.0,5619167.0,0.0
1582914410279,5259784.0,5581628.0,0.0
1582914410320,5250444.0,5549358.0,0.0
1582914410374,5252116.0,5513740.0,0.0
1582914410417,5244564.0,5503327.0,0.0
1582914410471,5248069.0,5516749.0,0.0
1582914410515,5265245.0,5535835.0,0.0
1582914410568,5273600.0,5562315.0,0.0
1582914410620,5299244.0,5613730.0,0.0
1582914410665,5331165.0,5620232.0,0.0
1582914410716,5301461.0,5568128.0,0.0
1582914410759,5265131.0,5511117.0,0.0
1582914410812,5227501.0,5481695.0,0.0
1582914410855,5210676.0,5465719.0,0.0
1582914410910,5191952.0,5470581.0,0.0
1582914410958,5180452.0,5469529.0,0.0
1582914411006,5192878.0,5497616.0,0.0
1582914411056,5189250.0,5497593.0,0.0
1582914411102,5200826.0,5515912.0,0.0
1582914411153,5193285.0,5511862.0,0.0
1582914411195,5201834.0,5491193.0,0.0
1582914411250,5212348.0,5474822.0,0.0
1582914411295,5218184.0,5489601.0,0.0
1582914411347,5225522.0,5521316.0,0.0
1582914411399,5360790.0,5640098.0,0.0
1582914411438,5429627.0,5774969.0,0.0
1582914411495,5427151.0,5784986.0,0.0
1582914411537,5379842.0,5735755.0,0.0
1582914411591,5332126.0,5722989.0,0.0
1582914411635,5298690.0,5682261.0,0.0
1582914411688,5279831.0,5652534.0,0.0
1582914411738,5261570.0,5606708.0,0.0
1582914411785,5240876.0,5561864.0,0.0
1582914411836,5245287.0,5573443.0,0.0
1582914411878,5238741.0,5541544.0,0.0
1582914411933,5232985.0,5563662.0,0.0
1582914411976,5225341.0,5542054.0,0.0
1582914412029,5234070.0,5540979.0,0.0
1582914412077,5257929.0,5565696.0,0.0
1582914412127,5270796.0,5592189.0,0.0
1582914412176,5294427.0,5572900.0,0.0
1582914412224,5337077.0,5586785.0,0.0
1582914412274,5396926.0,5617200.0,0.0
1582914412318,5327049.0,5603677.0,0.0
1582914412371,5306628.0,5613886.0,0.0
1582914412417,5285280.0,5616861.0,0.0
1582914412468,5280509.0,5623306.0,0.0
1582914412518,5272797.0,5623363.0,0.0
1582914412566,5258493.0,5623759.0,0.0
1582914412614,5267596.0,5627897.0,0.0
1582914412661,5297525.0,5681141.0,0.0
1582914412712,5297594.0,5657532.0,0.0
1582914412754,5280091.0,5629309.0,0.0
1582914412809,5264678.0,5609646.0,0.0
1582914412859,5265401.0,5607330.0,0.0
1582914412906,5263989.0,5596972.0,0.0
1582914412955,5276720.0,5609285.0,0.0
1582914413004,5313221.0,5642211.0,0.0
1582914413054,5301315.0,5649800.0,0.0
1582914413100,5294043.0,5616861.0,0.0
1582914413150,5280260.0,5591793.0,0.0
1582914413199,5247164.0,5553802.0,0.0
1582914413247,5214419.0,5528066.0,0.0
1582914413297,5198770.0,5521960.0,0.0
1582914413344,5194619.0,5524731.0,0.0
1582914413394,5194721.0,5526562.0,0.0
1582914413436,5228993.0,5578508.0,0.0
1582914413487,5207080.0,5539057.0,0.0
1582914413535,5191159.0,5534047.0,0.0
1582914413585,5182669.0,5514069.0,0.0
1582914413634,5194032.0,5491815.0,0.0
1582914413682,5186332.0,5454537.0,0.0
1582914413733,5181401.0,5447572.0,0.0
1582914413784,5174176.0,5450963.0,0.0
1582914413833,5182646.0,5471089.0,0.0
1582914413878,5198136.0,5473893.0,0.0
1582914413929,5178099.0,5467302.0,0.0
1582914413979,5153450.0,5450579.0,0.0
1582914414027,5131966.0,5449662.0,0.0
1582914414077,5122525.0,5437474.0,0.0
1582914414124,5102366.0,5405159.0,0.0
1582914414173,5079988.0,5376733.0,0.0
1582914414217,5085202.0,5392369.0,0.0
1582914414271,5103496.0,5417697.0,0.0
1582914414322,5111174.0,5425625.0,0.0
1582914414369,5095411.0,5415742.0,0.0
1582914414417,5088514.0,5402908.0,0.0
1582914414466,5112281.0,5405464.0,0.0
1582914414512,5116397.0,5411829.0,0.0
1582914414559,5122287.0,5408020.0,0.0
1582914414609,5131402.0,5400139.0,0.0
1582914414658,5138728.0,5427976.0,0.0
1582914414705,5122131.0,5408233.0,0.0
1582914414755,5121462.0,5399854.0,0.0
1582914414803,5099414.0,5393196.0,0.0
1582914414852,5078044.0,5379445.0,0.0
1582914414900,5066307.0,5382363.0,0.0
1582914414950,5057340.0,5389464.0,0.0
1582914414997,5057702.0,5394043.0,0.0
1582914415047,5103337.0,5435270.0,0.0
1582914415096,5115233.0,5407396.0,0.0
1582914415144,5115345.0,5434195.0,0.0
1582914415194,5115515.0,5421858.0,0.0
1582914415242,5126156.0,5423849.0,0.0
1582914415292,5142641.0,5446599.0,0.0
1582914415340,5160675.0,5483912.0,0.0
1582914415389,5173814.0,5523781.0,0.0
1582914415439,5244881.0,5637292.0,0.0
1582914415489,5346407.0,5768342.0,0.0
1582914415541,5248826.0,5685416.0,0.0
1582914415587,5227885.0,5603395.0,0.0
1582914415637,5211253.0,5570897.0,0.0
1582914415682,5197062.0,5554243.0,0.0
1582914415734,5183256.0,5549911.0,0.0
1582914415778,5175375.0,5548385.0,0.0
1582914415832,5212078.0,5576234.0,0.0
1582914415874,5249277.0,5638842.0,0.0
1582914415922,5258957.0,5654570.0,0.0
1582914415971,5258516.0,5660676.0,0.0
1582914416020,5261354.0,5639430.0,0.0
1582914416077,5280396.0,5630860.0,0.0
1582914416118,5276314.0,5623023.0,0.0
1582914416174,5287100.0,5658189.0,0.0
1582914416224,5303202.0,5711886.0,0.0
1582914416271,5349268.0,5767868.0,0.0
1582914416320,5343093.0,5776946.0,0.0
1582914416368,5338333.0,5758358.0,0.0
1582914416418,5313288.0,5723611.0,0.0
1582914416464,5285518.0,5700126.0,0.0
1582914416517,5272673.0,5678711.0,0.0
1582914416560,5256787.0,5648544.0,0.0
1582914416612,5242223.0,5619620.0,0.0
1582914416655,5279457.0,5660631.0,0.0
1582914416710,5306932.0,5673906.0,0.0
1582914416753,5319574.0,5711128.0,0.0
1582914416805,5330090.0,5705146.0,0.0
1582914416855,5327388.0,5712111.0,0.0
1582914416902,5335009.0,5728371.0,0.0
1582914416953,5344225.0,5757748.0,0.0
1582914417001,5357125.0,5769201.0,0.0
1582914417050,5441714.0,5846011.0,0.0
1582914417099,5519394.0,5918082.0,0.0
1582914417148,5436162.0,5893376.0,0.0
1582914417197,5413164.0,5849120.0,0.0
1582914417239,5385258.0,5820615.0,0.0
1582914417296,5358222.0,5797130.0,0.0
1582914417344,5343727.0,5793828.0,0.0
1582914417392,5338808.0,5792597.0,0.0
1582914417441,5341612.0,5797650.0,0.0
1582914417490,5373362.0,5844360.0,0.0
1582914417541,5379413.0,5821645.0,0.0
1582914417588,5382328.0,5836682.0,0.0
1582914417636,5382125.0,5812508.0,0.0
1582914417680,5378970.0,5806108.0,0.0
1582914417734,5391782.0,5819168.0,0.0
1582914417782,5400082.0,5852003.0,0.0
1582914417831,5407634.0,5885710.0,0.0
1582914417881,5407364.0,5883381.0,0.0
1582914417929,5467495.0,5887079.0,0.0
1582914417978,5411829.0,5858076.0,0.0
1582914418021,5408585.0,5825026.0,0.0
1582914418074,5338977.0,5764723.0,0.0
1582914418124,5322491.0,5741003.0,0.0
1582914418173,5307398.0,5740255.0,0.0
1582914418222,5288988.0,5723385.0,0.0
1582914418270,5284750.0,5721758.0,0.0
1582914418319,5308121.0,5742935.0,0.0
1582914418368,5310021.0,5743264.0,0.0
1582914418418,5307849.0,5736976.0,0.0
1582914418461,5303180.0,5705374.0,0.0
1582914418512,5302739.0,5680203.0,0.0
1582914418557,5305463.0,5661795.0,0.0
1582914418608,5316002.0,5667279.0,0.0
1582914418657,5332136.0,5678214.0,0.0
1582914418706,5351879.0,5699945.0,0.0
1582914418756,5374606.0,5711559.0,0.0
1582914418801,5354479.0,5723138.0,0.0
1582914418852,5336671.0,5720931.0,0.0
1582914418902,5322254.0,5712451.0,0.0
1582914418950,5312745.0,5692032.0,0.0
1582914418998,5297674.0,5662451.0,0.0
1582914419050,5283370.0,5642201.0,0.0
1582914419098,5295400.0,5660982.0,0.0
1582914419142,5300614.0,5673205.0,0.0
1582914419198,5305723.0,5691194.0,0.0
1582914419243,5291566.0,5671430.0,0.0
1582914419295,5292901.0,5658766.0,0.0
1582914419338,5302298.0,5658731.0,0.0
1582914419391,5316906.0,5651065.0,0.0
1582914419441,5326608.0,5633156.0,0.0
1582914419484,5326053.0,5639633.0,0.0
1582914419540,5310756.0,5638446.0,0.0
1582914419584,5287281.0,5627818.0,0.0
1582914419635,5284591.0,5621067.0,0.0
1582914419683,5276891.0,5617607.0,0.0
1582914419733,5262157.0,5607363.0,0.0
1582914419781,5250432.0,5610112.0,0.0
1582914419830,5245423.0,5622515.0,0.0
1582914419878,5240482.0,5611467.0,0.0
1582914419925,5248522.0,5625849.0,0.0
1582914419975,5259964.0,5612180.0,0.0
1582914420018,5250545.0,5597639.0,0.0
1582914420068,5229322.0,5562044.0,0.0
1582914420115,5216487.0,5546790.0,0.0
1582914420163,5221317.0,5554830.0,0.0
1582914420214,5228812.0,5568546.0,0.0
1582914420265,5246803.0,5597299.0,0.0
1582914420317,5275511.0,5645582.0,0.0
1582914420365,5288537.0,5628101.0,0.0
1582914420414,5278258.0,5600058.0,0.0
1582914420463,5269428.0,5575476.0,0.0
1582914420513,5235155.0,5564395.0,0.0
1582914420561,5212485.0,5562632.0,0.0
1582914420603,5202060.0,5574775.0,0.0
1582914420657,5197277.0,5596090.0,0.0
1582914420706,5194042.0,5605542.0,0.0
1582914420752,5227952.0,5666127.0,0.0
1582914420803,5257476.0,5678429.0,0.0
1582914420853,5257996.0,5655395.0,0.0
1582914420900,5258731.0,5617007.0,0.0
1582914420945,5257228.0,5610020.0,0.0
1582914421000,5263605.0,5616093.0,0.0
1582914421046,5275658.0,5639464.0,0.0
1582914421096,5293047.0,5675150.0,0.0
1582914421144,5308099.0,5721213.0,0.0
1582914421187,5343106.0,5771995.0,0.0
1582914421241,5334952.0,5774913.0,0.0
1582914421292,5334704.0,5709523.0,0.0
1582914421335,5305045.0,5666657.0,0.0
1582914421385,5279977.0,5644078.0,0.0
1582914421437,5260416.0,5645931.0,0.0
1582914421485,5249505.0,5648589.0,0.0
1582914421536,5254684.0,5669609.0,0.0
1582914421583,5304185.0,5723239.0,0.0
1582914421632,5442222.0,5827896.0,0.0
1582914421680,5432578.0,5871973.0,0.0
1582914421726,5421756.0,5835721.0,0.0
1582914421778,5386536.0,5771780.0,0.0
1582914421823,5380656.0,5755611.0,0.0
1582914421876,5375975.0,5772763.0,0.0
1582914421925,5385100.0,5827399.0,0.0
1582914421974,5409603.0,5900692.0,0.0
1582914422022,5470648.0,5976360.0,0.0
1582914422071,5517980.0,6023600.0,0.0
1582914422121,5456776.0,5992539.0,0.0
1582914422166,5426381.0,5953678.0,0.0
1582914422218,5403032.0,5876835.0,0.0
1582914422265,5375703.0,5817291.0,0.0
1582914422316,5357929.0,5794056.0,0.0
1582914422363,5343760.0,5779864.0,0.0
1582914422413,5346553.0,5793637.0,0.0
1582914422461,5354368.0,5834579.0,0.0
1582914422509,5389769.0,5857601.0,0.0
1582914422560,5375386.0,5861536.0,0.0
1582914422607,5372706.0,5838685.0,0.0
1582914422656,5366985.0,5814395.0,0.0
1582914422704,5367562.0,5779886.0,0.0
1582914422754,5376223.0,5767755.0,0.0
1582914422802,5375975.0,5776235.0,0.0
1582914422846,5395072.0,5802693.0,0.0
1582914422898,5427953.0,5841296.0,0.0
1582914422948,5407624.0,5822707.0,0.0
1582914422997,5396339.0,5823136.0,0.0
1582914423045,5363435.0,5839916.0,0.0
1582914423096,5355802.0,5863424.0,0.0
1582914423143,5344010.0,5873794.0,0.0
1582914423191,5339725.0,5883178.0,0.0
1582914423240,5341714.0,5888097.0,0.0
1582914423288,5349583.0,5893762.0,0.0
1582914423334,5363311.0,5907295.0,0.0
1582914423387,5375715.0,5929955.0,0.0
1582914423437,5395230.0,5931062.0,0.0
1582914423483,5393603.0,5920739.0,0.0
1582914423530,5394236.0,5914544.0,0.0
1582914423582,5390142.0,5900365.0,0.0
1582914423628,5391567.0,5886252.0,0.0
1582914423674,5398725.0,5902490.0,0.0
1582914423723,5443376.0,5966522.0,0.0
1582914423774,5458098.0,6066964.0,0.0
1582914423822,5456652.0,6016658.0,0.0
1582914423872,5426405.0,5995457.0,0.0
1582914423919,5391792.0,5983550.0,0.0
1582914423969,5376765.0,5988853.0,0.0
1582914424017,5364406.0,5989069.0,0.0
1582914424068,5360993.0,5990030.0,0.0
1582914424119,5363673.0,5980261.0,0.0
1582914424167,5402004.0,5989950.0,0.0
1582914424216,5461229.0,6019202.0,0.0
1582914424264,5407024.0,5984737.0,0.0
1582914424307,5406752.0,5982262.0,0.0
1582914424364,5383064.0,5986389.0,0.0
1582914424409,5384330.0,5991986.0,0.0
1582914424459,5389271.0,6003880.0,0.0
1582914424508,5399482.0,6005126.0,0.0
1582914424551,5499064.0,6079051.0,0.0
1582914424605,5503349.0,6105406.0,0.0
1582914424656,5501177.0,6062055.0,0.0
1582914424703,5478123.0,6053384.0,0.0
1582914424749,5440164.0,6057782.0,0.0
1582914424801,5423205.0,6059873.0,0.0
1582914424850,5407136.0,6057646.0,0.0
1582914424899,5395965.0,6057307.0,0.0
1582914424946,5400409.0,6037010.0,0.0
1582914424990,5411785.0,6060903.0,0.0
1582914425038,5421655.0,6054672.0,0.0
1582914425092,5410596.0,6085010.0,0.0
1582914425141,5404107.0,6081629.0,0.0
1582914425190,5415549.0,6074380.0,0.0
1582914425240,5432996.0,6076032.0,0.0
1582914425288,5440357.0,6086005.0,0.0
1582914425333,5452231.0,6112101.0,0.0
1582914425385,5533188.0,6162497.0,0.0
1582914425431,5636400.0,6260484.0,0.0
1582914425482,5598850.0,6232612.0,0.0
1582914425533,5574572.0,6198430.0,0.0
1582914425580,5528892.0,6181709.0,0.0
1582914425629,5508018.0,6184320.0,0.0
1582914425678,5491850.0,6186061.0,0.0
1582914425725,5483855.0,6187678.0,0.0
1582914425775,5486061.0,6178801.0,0.0
1582914425824,5518941.0,6186987.0,0.0
1582914425870,5618228.0,6242494.0,0.0
1582914425921,5603055.0,6226326.0,0.0
1582914425969,5584105.0,6219044.0,0.0
1582914426019,5560224.0,6221746.0,0.0
1582914426066,5555917.0,6235044.0,0.0
1582914426113,5553292.0,6250997.0,0.0
1582914426164,5559850.0,6267574.0,0.0
1582914426211,5630159.0,6314386.0,0.0
1582914426256,5709795.0,6391308.0,0.0
1582914426312,5670345.0,6406810.0,0.0
1582914426359,5635709.0,6352026.0,0.0
1582914426408,5589916.0,6312001.0,0.0
1582914426458,5568682.0,6296746.0,0.0
1582914426506,5555137.0,6297402.0,0.0
1582914426554,5549584.0,6292484.0,0.0
1582914426603,5557760.0,6285970.0,0.0
1582914426651,5583528.0,6294767.0,0.0
1582914426694,5656821.0,6323025.0,0.0
1582914426749,5638119.0,6297697.0,0.0
1582914426800,5614453.0,6269687.0,0.0
1582914426842,5587179.0,6266579.0,0.0
1582914426893,5579875.0,6272900.0,0.0
1582914426944,5584648.0,6288028.0,0.0
1582914426991,5588729.0,6307161.0,0.0
1582914427041,5702444.0,6382986.0,0.0
1582914427091,5750838.0,6433099.0,0.0
1582914427138,5707759.0,6411355.0,0.0
1582914427188,5673929.0,6340912.0,0.0
1582914427234,5619258.0,6298465.0,0.0
1582914427284,5585495.0,6292132.0,0.0
1582914427335,5569371.0,6288617.0,0.0
1582914427382,5558822.0,6299810.0,0.0
1582914427431,5575590.0,6304062.0,0.0
1582914427480,5594302.0,6325997.0,0.0
1582914427529,5655893.0,6358946.0,0.0
1582914427575,5653394.0,6345616.0,0.0
1582914427628,5636626.0,6306866.0,0.0
1582914427673,5619620.0,6292801.0,0.0
1582914427724,5615583.0,6299324.0,0.0
1582914427774,5621973.0,6313990.0,0.0
1582914427823,5639543.0,6342324.0,0.0
1582914427871,5743943.0,6433235.0,0.0
1582914427921,5677626.0,6493106.0,0.0
1582914427968,5717347.0,6463152.0,0.0
1582914428019,5698385.0,6425817.0,0.0
1582914428065,5660958.0,6407432.0,0.0
1582914428117,5638129.0,6391704.0,0.0
1582914428163,5617527.0,6384274.0,0.0
1582914428213,5612145.0,6372957.0,0.0
1582914428255,5609138.0,6378790.0,0.0
1582914428303,5625896.0,6374233.0,0.0
1582914428354,5617834.0,6389861.0,0.0
1582914428401,5633607.0,6383699.0,0.0
1582914428455,5629446.0,6372752.0,0.0
1582914428504,5630451.0,6351721.0,0.0
1582914428557,5631865.0,6331335.0,0.0
1582914428598,5623940.0,6329955.0,0.0
1582914428651,5670649.0,6362057.0,0.0
1582914428694,5645683.0,6395662.0,0.0
1582914428748,5747356.0,6459717.0,0.0
1582914428797,5660088.0,6409534.0,0.0
1582914428845,5642845.0,6389837.0,0.0
1582914428896,5622662.0,6377027.0,0.0
1582914428942,5607409.0,6352806.0,0.0
1582914428992,5599741.0,6339644.0,0.0
1582914429035,5597911.0,6336808.0,0.0
1582914429083,5616759.0,6349415.0,0.0
1582914429135,5676178.0,6391736.0,0.0
1582914429182,5685302.0,6402649.0,0.0
1582914429232,5673701.0,6387961.0,0.0
1582914429279,5659422.0,6383360.0,0.0
1582914429329,5652975.0,6376496.0,0.0
1582914429375,5653926.0,6352026.0,0.0
1582914429430,5657012.0,6355622.0,0.0
1582914429474,5781018.0,6453146.0,0.0
1582914429527,5857962.0,6596295.0,0.0
1582914429578,5802682.0,6608188.0,0.0
1582914429623,5795254.0,6547301.0,0.0
1582914429674,5737892.0,6501822.0,0.0
1582914429716,5681424.0,6479628.0,0.0
1582914429771,5655350.0,6458959.0,0.0
1582914429814,5643682.0,6436152.0,0.0
1582914429868,5642211.0,6391974.0,0.0
1582914429921,5667031.0,6412452.0,0.0
1582914429965,5718286.0,6436175.0,0.0
1582914430015,5672244.0,6417257.0,0.0
1582914430062,5668150.0,6389103.0,0.0
1582914430112,5657092.0,6372549.0,0.0
1582914430157,5658957.0,6375716.0,0.0
1582914430209,5666454.0,6400737.0,0.0
1582914430258,5682578.0,6395536.0,0.0
1582914430299,5640346.0,6340709.0,0.0
1582914430356,5620083.0,6278202.0,0.0
1582914430404,5594800.0,6254819.0,0.0
1582914430453,5581876.0,6218603.0,0.0
1582914430500,5566567.0,6205905.0,0.0
1582914430550,5553970.0,6202140.0,0.0
1582914430596,5554547.0,6207668.0,0.0
1582914430647,5547786.0,6204062.0,0.0
1582914430697,5565594.0,6192631.0,0.0
1582914430738,5578745.0,6181357.0,0.0
1582914430794,5575761.0,6163480.0,0.0
1582914430841,5570117.0,6143920.0,0.0
1582914430885,5573995.0,6134241.0,0.0
1582914430937,5590934.0,6157374.0,0.0
1582914430988,5596487.0,6170140.0,0.0
1582914431039,5609116.0,6204706.0,0.0
1582914431085,5664339.0,6252627.0,0.0
1582914431135,5695739.0,6220288.0,0.0
1582914431183,5650285.0,6158246.0,0.0
1582914431233,5627444.0,6115346.0,0.0
1582914431280,5589566.0,6092416.0,0.0
1582914431330,5572922.0,6087180.0,0.0
1582914431379,5554807.0,6088527.0,0.0
1582914431427,5547209.0,6093637.0,0.0
1582914431475,5549257.0,6101654.0,0.0
1582914431524,5570874.0,6135314.0,0.0
1582914431575,5594461.0,6114397.0,0.0
1582914431616,5596383.0,6089035.0,0.0
1582914431671,5597346.0,6067982.0,0.0
1582914431720,5573735.0,6061446.0,0.0
1582914431767,5563706.0,6063435.0,0.0
1582914431817,5559251.0,6077840.0,0.0
1582914431865,5597978.0,6116918.0,0.0
1582914431917,5750816.0,6272459.0,0.0
1582914431961,5748859.0,6388333.0,0.0
1582914432012,5703541.0,6372549.0,0.0
1582914432058,5713424.0,6326653.0,0.0
1582914432109,5710778.0,6305680.0,0.0
1582914432158,5691883.0,6299855.0,0.0
1582914432206,5679152.0,6302309.0,0.0
1582914432255,5689498.0,6306876.0,0.0
1582914432305,5706833.0,6317257.0,0.0
1582914432348,5732668.0,6333381.0,0.0
1582914432399,5784161.0,6387565.0,0.0
1582914432449,5789181.0,6371689.0,0.0
1582914432498,5751925.0,6311503.0,0.0
1582914432547,5714724.0,6276280.0,0.0
1582914432594,5712475.0,6273261.0,0.0
1582914432640,5720513.0,6307907.0,0.0
1582914432694,5798192.0,6373499.0,0.0
1582914432736,5874584.0,6469847.0,0.0
1582914432792,5845682.0,6497300.0,0.0
1582914432841,5839634.0,6453168.0,0.0
1582914432884,5809806.0,6424675.0,0.0
1582914432938,5783675.0,6409772.0,0.0
1582914432985,5753620.0,6403372.0,0.0
1582914433035,5746893.0,6387575.0,0.0
1582914433082,5781684.0,6396588.0,0.0
1582914433133,5802229.0,6414951.0,0.0
1582914433178,5889318.0,6476834.0,0.0
1582914433229,5852885.0,6475715.0,0.0
1582914433278,5821407.0,6470402.0,0.0
1582914433327,5777422.0,6442032.0,0.0
1582914433377,5767980.0,6415132.0,0.0
1582914433421,5771351.0,6410949.0,0.0
1582914433474,5792302.0,6425512.0,0.0
1582914433520,5876914.0,6491026.0,0.0
1582914433573,5867845.0,6542077.0,0.0
1582914433620,5850319.0,6478203.0,0.0
1582914433668,5804525.0,6455125.0,0.0
1582914433718,5752909.0,6430758.0,0.0
1582914433765,5737112.0,6422775.0,0.0
1582914433816,5722967.0,6420004.0,0.0
1582914433858,5730474.0,6415414.0,0.0
1582914433912,5743026.0,6424120.0,0.0
1582914433959,5774935.0,6431402.0,0.0
1582914434009,5787146.0,6451100.0,0.0
1582914434059,5791849.0,6450399.0,0.0
1582914434107,5757330.0,6427977.0,0.0
1582914434155,5749008.0,6417257.0,0.0
1582914434198,5747809.0,6377797.0,0.0
1582914434247,5752513.0,6338944.0,0.0
1582914434298,5799076.0,6358267.0,0.0
1582914434345,5815074.0,6395875.0,0.0
1582914434395,5798556.0,6404876.0,0.0
1582914434444,5762870.0,6368264.0,0.0
1582914434497,5724854.0,6347211.0,0.0
1582914434539,5698622.0,6328836.0,0.0
1582914434595,5682194.0,6323974.0,0.0
1582914434643,5679536.0,6297018.0,0.0
1582914434691,5671994.0,6262678.0,0.0
1582914434740,5692279.0,6282668.0,0.0
1582914434789,5697808.0,6282997.0,0.0
1582914434838,5685213.0,6296657.0,0.0
1582914434882,5691804.0,6270807.0,0.0
1582914434938,5678982.0,6254616.0,0.0
1582914434981,5684490.0,6248126.0,0.0
1582914435026,5701654.0,6268218.0,0.0
1582914435074,5720750.0,6257873.0,0.0
1582914435124,5760666.0,6273068.0,0.0
1582914435172,5801449.0,6325477.0,0.0
1582914435221,5788515.0,6293670.0,0.0
1582914435270,5772572.0,6281843.0,0.0
1582914435318,5712034.0,6266500.0,0.0
1582914435369,5684093.0,6254175.0,0.0
1582914435420,5670400.0,6256550.0,0.0
1582914435467,5659274.0,6260994.0,0.0
1582914435513,5662689.0,6221972.0,0.0
1582914435568,5675014.0,6219881.0,0.0
1582914435617,5702117.0,6201858.0,0.0
1582914435659,5661649.0,6186130.0,0.0
1582914435715,5673780.0,6178643.0,0.0
1582914435761,5662179.0,6175477.0,0.0
1582914435812,5670456.0,6180057.0,0.0
1582914435860,5680713.0,6197209.0,0.0
1582914435909,5705667.0,6221102.0,0.0
1582914435958,5806980.0,6291919.0,0.0
1582914436005,5758709.0,6376573.0,0.0
1582914436055,5794925.0,6310767.0,0.0
1582914436103,5748837.0,6257670.0,0.0
1582914436153,5696666.0,6237033.0,0.0
1582914436201,5675331.0,6232758.0,0.0
1582914436250,5655734.0,6229073.0,0.0
1582914436299,5651427.0,6226314.0,0.0
1582914436343,5663492.0,6229142.0,0.0
1582914436397,5682216.0,6229323.0,0.0
1582914436445,5718298.0,6221486.0,0.0
1582914436493,5698125.0,6200590.0,0.0
1582914436541,5711071.0,6197504.0,0.0
1582914436592,5696926.0,6212419.0,0.0
1582914436639,5706605.0,6239963.0,0.0
1582914436689,5719180.0,6270502.0,0.0
1582914436738,5766851.0,6325105.0,0.0
1582914436781,5862960.0,6429899.0,0.0
1582914436836,5826789.0,6459897.0,0.0
1582914436881,5818433.0,6361807.0,0.0
1582914436933,5782274.0,6322639.0,0.0
1582914436980,5739103.0,6302321.0,0.0
1582914437030,5713481.0,6296531.0,0.0
1582914437079,5692178.0,6296508.0,0.0
1582914437124,5685178.0,6282081.0,0.0
1582914437177,5700579.0,6304729.0,0.0
1582914437223,5726021.0,6313809.0,0.0
1582914437273,5726291.0,6295684.0,0.0
1582914437322,5726801.0,6225115.0,0.0
1582914437370,5714600.0,6190913.0,0.0
1582914437419,5716012.0,6183064.0,0.0
1582914437465,5718219.0,6199913.0,0.0
1582914437517,5736988.0,6238017.0,0.0
1582914437563,5810620.0,6315121.0,0.0
1582914437615,5879820.0,6420016.0,0.0
1582914437662,5838086.0,6393195.0,0.0
1582914437712,5778722.0,6308414.0,0.0
1582914437760,5733392.0,6274076.0,0.0
1582914437808,5714182.0,6250534.0,0.0
1582914437859,5692505.0,6236944.0,0.0
1582914437904,5675308.0,6223126.0,0.0
1582914437955,5673736.0,6220015.0,0.0
1582914438003,5694427.0,6275364.0,0.0
1582914438046,5691229.0,6270965.0,0.0
1582914438101,5691081.0,6301574.0,0.0
1582914438151,5693954.0,6239544.0,0.0
1582914438198,5687791.0,6170717.0,0.0
1582914438244,5686310.0,6140052.0,0.0
1582914438296,5684987.0,6132012.0,0.0
1582914438344,5705429.0,6147187.0,0.0
1582914438388,5743319.0,6197650.0,0.0
1582914438442,5775071.0,6228496.0,0.0
1582914438491,5735732.0,6189419.0,0.0
1582914438539,5704807.0,6193174.0,0.0
1582914438583,5689973.0,6214521.0,0.0
1582914438637,5686422.0,6197684.0,0.0
1582914438685,5680713.0,6187690.0,0.0
1582914438735,5665560.0,6173362.0,0.0
1582914438782,5667098.0,6184230.0,0.0
1582914438830,5685428.0,6212542.0,0.0
1582914438881,5690652.0,6241137.0,0.0
1582914438925,5688391.0,6249380.0,0.0
1582914438978,5684727.0,6243015.0,0.0
1582914439023,5696520.0,6204604.0,0.0
1582914439070,5696814.0,6140483.0,0.0
1582914439117,5700161.0,6112961.0,0.0
1582914439169,5731346.0,6133991.0,0.0
1582914439218,5792359.0,6203802.0,0.0
1582914439267,5793647.0,6276902.0,0.0
1582914439313,5794811.0,6277434.0,0.0
1582914439367,5788515.0,6283517.0,0.0
1582914439416,5742642.0,6274267.0,0.0
1582914439464,5720096.0,6283936.0,0.0
1582914439514,5707962.0,6274041.0,0.0
1582914439561,5695264.0,6230113.0,0.0
1582914439606,5696577.0,6194259.0,0.0
1582914439653,5698645.0,6232330.0,0.0
1582914439703,5723205.0,6246091.0,0.0
1582914439751,5707125.0,6285779.0,0.0
1582914439798,5710417.0,6271644.0,0.0
1582914439853,5711863.0,6252263.0,0.0
1582914439901,5716148.0,6243027.0,0.0
1582914439952,5731096.0,6215279.0,0.0
1582914440000,5763334.0,6195807.0,0.0
1582914440045,5831820.0,6254967.0,0.0
1582914440098,5885314.0,6364068.0,0.0
1582914440145,5894676.0,6478927.0,0.0
1582914440189,5889011.0,6435496.0,0.0
1582914440239,5829920.0,6395526.0,0.0
1582914440288,5795151.0,6389623.0,0.0
1582914440334,5775567.0,6392370.0,0.0
1582914440386,5765087.0,6394993.0,0.0
1582914440438,5772674.0,6363186.0,0.0
1582914440486,5777672.0,6404209.0,0.0
1582914440535,5806425.0,6391194.0,0.0
1582914440586,5797595.0,6416286.0,0.0
1582914440633,5807827.0,6411060.0,0.0
1582914440681,5799233.0,6399719.0,0.0
1582914440724,5800443.0,6393841.0,0.0
1582914440780,5809771.0,6402411.0,0.0
1582914440828,5835054.0,6374731.0,0.0
1582914440876,5891161.0,6355283.0,0.0
1582914440924,5877717.0,6417099.0,0.0
1582914440974,5865199.0,6414181.0,0.0
1582914441022,5857410.0,6427977.0,0.0
1582914441066,5831899.0,6422820.0,0.0
1582914441119,5811569.0,6434625.0,0.0
1582914441167,5799086.0,6439068.0,0.0
1582914441218,5796949.0,6438627.0,0.0
1582914441266,5775274.0,6439239.0,0.0
1582914441316,5771564.0,6428678.0,0.0
1582914441357,5765459.0,6381131.0,0.0
1582914441409,5753880.0,6369812.0,0.0
1582914441460,5755068.0,6314294.0,0.0
1582914441509,5748374.0,6282928.0,0.0
1582914441558,5751596.0,6276959.0,0.0
1582914441607,5767415.0,6297650.0,0.0
1582914441656,5785144.0,6321487.0,0.0
1582914441703,5881821.0,6372786.0,0.0
1582914441747,5866827.0,6349891.0,0.0
1582914441802,5842381.0,6278316.0,0.0
1582914441849,5810935.0,6238774.0,0.0
1582914441898,5752265.0,6217935.0,0.0
1582914441947,5727173.0,6200510.0,0.0
1582914441997,5704287.0,6193546.0,0.0
1582914442045,5693805.0,6185530.0,0.0
1582914442096,5678486.0,6174063.0,0.0
1582914442143,5697243.0,6192381.0,0.0
1582914442186,5684601.0,6128485.0,0.0
1582914442240,5684557.0,6136299.0,0.0
1582914442289,5663809.0,6109761.0,0.0
1582914442338,5661897.0,6090142.0,0.0
1582914442385,5656029.0,6098590.0,0.0
1582914442436,5672876.0,6124235.0,0.0
1582914442484,5695502.0,6135710.0,0.0
1582914442527,5719021.0,6150206.0,0.0
1582914442581,5777015.0,6167891.0,0.0
1582914442629,5737882.0,6106075.0,0.0
1582914442678,5686016.0,6074347.0,0.0
1582914442727,5637701.0,6041589.0,0.0
1582914442776,5612655.0,6033143.0,0.0
1582914442825,5592234.0,6032680.0,0.0
1582914442872,5580667.0,6025931.0,0.0
1582914442922,5581797.0,6029435.0,0.0
1582914442969,5612871.0,6082466.0,0.0
1582914443020,5605973.0,6081810.0,0.0
1582914443068,5598203.0,6043083.0,0.0
1582914443118,5573566.0,5986478.0,0.0
1582914443165,5569393.0,5962847.0,0.0
1582914443216,5572425.0,5970027.0,0.0
1582914443262,5587531.0,6006696.0,0.0
1582914443309,5614996.0,6057713.0,0.0
1582914443354,5634771.0,6108324.0,0.0
1582914443409,5680046.0,6112532.0,0.0
1582914443458,5634726.0,6073545.0,0.0
1582914443505,5606334.0,6017913.0,0.0
1582914443556,5570570.0,5974426.0,0.0
1582914443604,5539768.0,5956187.0,0.0
1582914443651,5525569.0,5955419.0,0.0
1582914443696,5508301.0,5944665.0,0.0
1582914443751,5533923.0,5985314.0,0.0
1582914443793,5544506.0,6005227.0,0.0
1582914443847,5550500.0,6036026.0,0.0
1582914443893,5540618.0,6027105.0,0.0
1582914443944,5539429.0,5986818.0,0.0
1582914443997,5537757.0,5948375.0,0.0
1582914444042,5540120.0,5940041.0,0.0
1582914444091,5540516.0,5958381.0,0.0
1582914444140,5552150.0,5997990.0,0.0
1582914444188,5567981.0,6018830.0,0.0
1582914444239,5581312.0,6008324.0,0.0
1582914444285,5554525.0,5977762.0,0.0
1582914444331,5524630.0,5939600.0,0.0
1582914444384,5497051.0,5882376.0,0.0
1582914444433,5466351.0,5849811.0,0.0
1582914444480,5439012.0,5822403.0,0.0
1582914444529,5411265.0,5804842.0,0.0
1582914444579,5433561.0,5848047.0,0.0
1582914444626,5431255.0,5851664.0,0.0
1582914444672,5433979.0,5868885.0,0.0
1582914444723,5425273.0,5840934.0,0.0
1582914444775,5421100.0,5798566.0,0.0
1582914444821,5398442.0,5737067.0,0.0
1582914444871,5397469.0,5725986.0,0.0
1582914444920,5394665.0,5737858.0,0.0
1582914444968,5423939.0,5793298.0,0.0
1582914445013,5486401.0,5860756.0,0.0
1582914445060,5429999.0,5801597.0,0.0
1582914445111,5402219.0,5748884.0,0.0
1582914445158,5368161.0,5726201.0,0.0
1582914445209,5348859.0,5721463.0,0.0
1582914445256,5326823.0,5672165.0,0.0
1582914445305,5286625.0,5622141.0,0.0
1582914445354,5286241.0,5627377.0,0.0
1582914445404,5301845.0,5669258.0,0.0
1582914445452,5292606.0,5667212.0,0.0
1582914445503,5293161.0,5665369.0,0.0
1582914445552,5280034.0,5639283.0,0.0
1582914445600,5282409.0,5634364.0,0.0
1582914445649,5286231.0,5623352.0,0.0
1582914445699,5279514.0,5594654.0,0.0
1582914445747,5285347.0,5592539.0,0.0
1582914445793,5293862.0,5582466.0,0.0
1582914445843,5279242.0,5554027.0,0.0
1582914445894,5251551.0,5550986.0,0.0
1582914445942,5221644.0,5542290.0,0.0
1582914445991,5202173.0,5536343.0,0.0
1582914446040,5190741.0,5540922.0,0.0
1582914446087,5177004.0,5518998.0,0.0
1582914446133,5141036.0,5443206.0,0.0
1582914446185,5154198.0,5447413.0,0.0
1582914446233,5128643.0,5433947.0,0.0
1582914446282,5112972.0,5415742.0,0.0
1582914446331,5083245.0,5377117.0,0.0
1582914446380,5076959.0,5365414.0,0.0
1582914446428,5082624.0,5370435.0,0.0
1582914446474,5091159.0,5384047.0,0.0
1582914446525,5089566.0,5351539.0,0.0
1582914446576,5068974.0,5294439.0,0.0
1582914446622,5000161.0,5198780.0,0.0
1582914446673,4969506.0,5169777.0,0.0
1582914446721,4931898.0,5134240.0,0.0
1582914446770,4899120.0,5118478.0,0.0
1582914446814,4884658.0,5119947.0,0.0
1582914446867,4875544.0,5110914.0,0.0
1582914446920,4853292.0,5094834.0,0.0
1582914446964,4870231.0,5090718.0,0.0
1582914447014,4835642.0,5031448.0,0.0
1582914447060,4804933.0,4988899.0,0.0
1582914447110,4777671.0,4952376.0,0.0
1582914447153,4777037.0,4933595.0,0.0
1582914447208,4773430.0,4935641.0,0.0
1582914447257,4774639.0,4948317.0,0.0
1582914447305,4777455.0,4967121.0,0.0
1582914447354,4801686.0,5006390.0,0.0
1582914447401,4774674.0,4938288.0,0.0
1582914447451,4754503.0,4888854.0,0.0
1582914447494,4725794.0,4853054.0,0.0
1582914447549,4686919.0,4839610.0,0.0
1582914447599,4679491.0,4832804.0,0.0
1582914447645,4669947.0,4841872.0,0.0
1582914447695,4652353.0,4841250.0,0.0
1582914447744,4670071.0,4866669.0,0.0
1582914447793,4683528.0,4882679.0,0.0
1582914447837,4705497.0,4879727.0,0.0
1582914447885,4685846.0,4812304.0,0.0
1582914447934,4665979.0,4786897.0,0.0
1582914447987,4656538.0,4783177.0,0.0
1582914448040,4658425.0,4819065.0,0.0
1582914448084,4669484.0,4869609.0,0.0
1582914448134,4728970.0,4964453.0,0.0
1582914448180,4819009.0,5054864.0,0.0
1582914448230,4791803.0,5056154.0,0.0
1582914448274,4795853.0,4993263.0,0.0
1582914448328,4761579.0,4945751.0,0.0
1582914448380,4721089.0,4915730.0,0.0
1582914448425,4694381.0,4900918.0,0.0
1582914448475,4670220.0,4892416.0,0.0
1582914448523,4692325.0,4923792.0,0.0
1582914448572,4725217.0,4962021.0,0.0
1582914448615,4734205.0,4990900.0,0.0
1582914448663,4761297.0,5001652.0,0.0
1582914448718,4768601.0,4958596.0,0.0
1582914448762,4751595.0,4944948.0,0.0
1582914448815,4752467.0,4964701.0,0.0
1582914448859,4756165.0,5003337.0,0.0
1582914448913,4902907.0,5182250.0,0.0
1582914448960,4904230.0,5303541.0,0.0
1582914449010,4921112.0,5295118.0,0.0
1582914449054,4929920.0,5311321.0,0.0
1582914449107,4958663.0,5329627.0,0.0
1582914449156,4946564.0,5328022.0,0.0
1582914449200,4928824.0,5333404.0,0.0
1582914449249,4913491.0,5286105.0,0.0
1582914449299,4912847.0,5279095.0,0.0
1582914449348,4957952.0,5331990.0,0.0
1582914449397,4959827.0,5327477.0,0.0
1582914449445,4957330.0,5316035.0,0.0
1582914449496,4974244.0,5314373.0,0.0
1582914449546,5002636.0,5322979.0,0.0
1582914449599,5009489.0,5327613.0,0.0
1582914449643,5018445.0,5330746.0,0.0
1582914449693,5107409.0,5392912.0,0.0
1582914449735,5104739.0,5504333.0,0.0
1582914449790,5182025.0,5544189.0,0.0
1582914449836,5191647.0,5548883.0,0.0
1582914449883,5169913.0,5554887.0,0.0
1582914449937,5152467.0,5563174.0,0.0
1582914449985,5147786.0,5567030.0,0.0
1582914450035,5154446.0,5563446.0,0.0
1582914450082,5165742.0,5555996.0,0.0
1582914450132,5173950.0,5537123.0,0.0
1582914450175,5203145.0,5539407.0,0.0
1582914450225,5206345.0,5545287.0,0.0
1582914450276,5217968.0,5543456.0,0.0
1582914450323,5210981.0,5530215.0,0.0
1582914450370,5211964.0,5531855.0,0.0
1582914450424,5214679.0,5549188.0,0.0
1582914450473,5245592.0,5588898.0,0.0
1582914450519,5344394.0,5696983.0,0.0
1582914450570,5321339.0,5808550.0,0.0
1582914450619,5358256.0,5773929.0,0.0
1582914450667,5348205.0,5738073.0,0.0
1582914450716,5303643.0,5717743.0,0.0
1582914450765,5273329.0,5700725.0,0.0
1582914450815,5259014.0,5691782.0,0.0
1582914450861,5271791.0,5676076.0,0.0
1582914450912,5328416.0,5703948.0,0.0
1582914450957,5442178.0,5783675.0,0.0
1582914451009,5416183.0,5823916.0,0.0
1582914451058,5381154.0,5825251.0,0.0
1582914451107,5360381.0,5831663.0,0.0
1582914451156,5350115.0,5843738.0,0.0
1582914451205,5349595.0,5863446.0,0.0
1582914451253,5365109.0,5881469.0,0.0
1582914451296,5453462.0,5930802.0,0.0
1582914451350,5534094.0,6006334.0,0.0
1582914451398,5565889.0,6062214.0,0.0
1582914451443,5503327.0,6034364.0,0.0
1582914451497,5449346.0,5991749.0,0.0
1582914451546,5403869.0,5970220.0,0.0
1582914451599,5386185.0,5971882.0,0.0
1582914451637,5380904.0,5980566.0,0.0
1582914451692,5377558.0,5970718.0,0.0
1582914451742,5421509.0,5978235.0,0.0
1582914451782,5486547.0,6004400.0,0.0
1582914451832,5489576.0,6015798.0,0.0
1582914451879,5485155.0,6023771.0,0.0
1582914451929,5459963.0,6036026.0,0.0
1582914451980,5455485.0,6048420.0,0.0
1582914452032,5458935.0,6063536.0,0.0
1582914452082,5459488.0,6078169.0,0.0
1582914452129,5517121.0,6119621.0,0.0
1582914452179,5634885.0,6218388.0,0.0
1582914452227,5580611.0,6202331.0,0.0
1582914452276,5547582.0,6167901.0,0.0
1582914452322,5516781.0,6136921.0,0.0
1582914452370,5504977.0,6127546.0,0.0
1582914452419,5483901.0,6125003.0,0.0
1582914452471,5476404.0,6120005.0,0.0
1582914452520,5491082.0,6123046.0,0.0
1582914452569,5537259.0,6126236.0,0.0
1582914452618,5626258.0,6184342.0,0.0
1582914452664,5610585.0,6193422.0,0.0
1582914452715,5560234.0,6179502.0,0.0
1582914452759,5529130.0,6176235.0,0.0
1582914452811,5526574.0,6189565.0,0.0
1582914452860,5523882.0,6194529.0,0.0
1582914452908,5536932.0,6204617.0,0.0
1582914452958,5588028.0,6241783.0,0.0
1582914453000,5617212.0,6308246.0,0.0
1582914453054,5583008.0,6246430.0,0.0
1582914453098,5553044.0,6212158.0,0.0
1582914453153,5531211.0,6195705.0,0.0
1582914453202,5514916.0,6193152.0,0.0
1582914453250,5500409.0,6188119.0,0.0
1582914453298,5509885.0,6178700.0,0.0
1582914453347,5534545.0,6186977.0,0.0
1582914453396,5605825.0,6201008.0,0.0
1582914453439,5588786.0,6200250.0,0.0
1582914453494,5573408.0,6193694.0,0.0
1582914453540,5554864.0,6190279.0,0.0
1582914453590,5546168.0,6188097.0,0.0
1582914453640,5551483.0,6201823.0,0.0
1582914453683,5557239.0,6217348.0,0.0
1582914453738,5620841.0,6255951.0,0.0
1582914453782,5689295.0,6328360.0,0.0
1582914453837,5653644.0,6299438.0,0.0
1582914453883,5614057.0,6255894.0,0.0
1582914453932,5573916.0,6238990.0,0.0
1582914453980,5552727.0,6240426.0,0.0
1582914454029,5546282.0,6227795.0,0.0
1582914454078,5555023.0,6218083.0,0.0
1582914454127,5575816.0,6227535.0,0.0
1582914454176,5633019.0,6242980.0,0.0
1582914454219,5609081.0,6242234.0,0.0
1582914454273,5596418.0,6244587.0,0.0
1582914454320,5578124.0,6241680.0,0.0
1582914454365,5581346.0,6235983.0,0.0
1582914454419,5574810.0,6223034.0,0.0
1582914454468,5580702.0,6233675.0,0.0
1582914454516,5639058.0,6276201.0,0.0
1582914454560,5685404.0,6320999.0,0.0
1582914454615,5634320.0,6276055.0,0.0
1582914454659,5626246.0,6258574.0,0.0
1582914454709,5600036.0,6251698.0,0.0
1582914454757,5579786.0,6253147.0,0.0
1582914454805,5569948.0,6254740.0,0.0
1582914454854,5575048.0,6243592.0,0.0
1582914454903,5593252.0,6253271.0,0.0
1582914454950,5662632.0,6270232.0,0.0
1582914455001,5673362.0,6284355.0,0.0
1582914455053,5677433.0,6297957.0,0.0
1582914455100,5640064.0,6292313.0,0.0
1582914455150,5630837.0,6306651.0,0.0
1582914455198,5635031.0,6312214.0,0.0
1582914455246,5661297.0,6322334.0,0.0
1582914455296,5712463.0,6352197.0,0.0
1582914455343,5762281.0,6396915.0,0.0
1582914455394,5737734.0,6386287.0,0.0
1582914455441,5666238.0,6332546.0,0.0
1582914455491,5639328.0,6322074.0,0.0
1582914455539,5612802.0,6314136.0,0.0
1582914455587,5599449.0,6311649.0,0.0
1582914455637,5590166.0,6303530.0,0.0
1582914455682,5597559.0,6291770.0,0.0
1582914455736,5606865.0,6297628.0,0.0
1582914455782,5648012.0,6296023.0,0.0
1582914455833,5633596.0,6301155.0,0.0
1582914455881,5631516.0,6301563.0,0.0
1582914455927,5626778.0,6303270.0,0.0
1582914455978,5624200.0,6304719.0,0.0
1582914456024,5623543.0,6307714.0,0.0
1582914456076,5630996.0,6316635.0,0.0
1582914456122,5664589.0,6331607.0,0.0
1582914456173,5744609.0,6389443.0,0.0
1582914456221,5676393.0,6329006.0,0.0
1582914456271,5644078.0,6303473.0,0.0
1582914456319,5613594.0,6294180.0,0.0
1582914456364,5592009.0,6289011.0,0.0
1582914456417,5586525.0,6282341.0,0.0
1582914456463,5582850.0,6282770.0,0.0
1582914456516,5591442.0,6282817.0,0.0
1582914456562,5608279.0,6279740.0,0.0
1582914456612,5610382.0,6291228.0,0.0
1582914456661,5614035.0,6280701.0,0.0
1582914456707,5607702.0,6263210.0,0.0
1582914456759,5607952.0,6264238.0,0.0
1582914456803,5612361.0,6277207.0,0.0
1582914456856,5610201.0,6283404.0,0.0
1582914456903,5629649.0,6291319.0,0.0
1582914456947,5687068.0,6320310.0,0.0
1582914457001,5639940.0,6254321.0,0.0
1582914457052,5606448.0,6217404.0,0.0
1582914457099,5587632.0,6197052.0,0.0
1582914457147,5572209.0,6188379.0,0.0
1582914457196,5556311.0,6174913.0,0.0
1582914457243,5551156.0,6179705.0,0.0
1582914457294,5553631.0,6184602.0,0.0
1582914457343,5573916.0,6207012.0,0.0
1582914457393,5594914.0,6217415.0,0.0
1582914457441,5592732.0,6207658.0,0.0
1582914457489,5594857.0,6163549.0,0.0
1582914457539,5578124.0,6151145.0,0.0
1582914457585,5580283.0,6166239.0,0.0
1582914457637,5585800.0,6183472.0,0.0
1582914457684,5587134.0,6175908.0,0.0
1582914457735,5537700.0,6152886.0,0.0
1582914457782,5502772.0,6088378.0,0.0
1582914457832,5491736.0,6023724.0,0.0
1582914457880,5469167.0,5943795.0,0.0
1582914457927,5437281.0,5891386.0,0.0
1582914457977,5419428.0,5872130.0,0.0
1582914458025,5401563.0,5875998.0,0.0
1582914458077,5383990.0,5857724.0,0.0
1582914458123,5407069.0,5890346.0,0.0
1582914458174,5405927.0,5886569.0,0.0
1582914458221,5420196.0,5904006.0,0.0
1582914458269,5412882.0,5834591.0,0.0
1582914458319,5391262.0,5786920.0,0.0
1582914458365,5367371.0,5764882.0,0.0
1582914458417,5344225.0,5784240.0,0.0
1582914458464,5353981.0,5823205.0,0.0
1582914458514,5443523.0,5932781.0,0.0
1582914458562,5515008.0,6009941.0,0.0
1582914458614,5473397.0,5974562.0,0.0
1582914458661,5446192.0,5923567.0,0.0
1582914458703,5418433.0,5874460.0,0.0
1582914458757,5393093.0,5827738.0,0.0
1582914458806,5377647.0,5801699.0,0.0
1582914458855,5373565.0,5797831.0,0.0
1582914458903,5415629.0,5833392.0,0.0
1582914458947,5511434.0,5915188.0,0.0
1582914459001,5524211.0,5997425.0,0.0
1582914459044,5535404.0,6022775.0,0.0
1582914459099,5519699.0,6035586.0,0.0
1582914459146,5511931.0,6027355.0,0.0
1582914459196,5502988.0,6026416.0,0.0
1582914459243,5495842.0,6040957.0,0.0
1582914459289,5569596.0,6098905.0,0.0
1582914459342,5639588.0,6196803.0,0.0
1582914459392,5624606.0,6176540.0,0.0
1582914459439,5618986.0,6142268.0,0.0
1582914459490,5598724.0,6137146.0,0.0
1582914459537,5574188.0,6134343.0,0.0
1582914459585,5569903.0,6139838.0,0.0
1582914459637,5569450.0,6130633.0,0.0
1582914459683,5571214.0,6120547.0,0.0
1582914459733,5580667.0,6115730.0,0.0
1582914459774,5584613.0,6133550.0,0.0
1582914459829,5590912.0,6143286.0,0.0
1582914459875,5606322.0,6145141.0,0.0
1582914459923,5617473.0,6148057.0,0.0
1582914459972,5621237.0,6155769.0,0.0
1582914460020,5637666.0,6160190.0,0.0
1582914460072,5615256.0,6139249.0,0.0
1582914460121,5644913.0,6113458.0,0.0
1582914460167,5612643.0,6040596.0,0.0
1582914460218,5567414.0,5999991.0,0.0
1582914460268,5519112.0,5978181.0,0.0
1582914460316,5484862.0,5959602.0,0.0
1582914460365,5470592.0,5957036.0,0.0
1582914460416,5464860.0,5960699.0,0.0
1582914460463,5454559.0,5956605.0,0.0
1582914460506,5485133.0,5989577.0,0.0
1582914460556,5492325.0,5989950.0,0.0
1582914460611,5496486.0,6036286.0,0.0
1582914460658,5493217.0,5997956.0,0.0
1582914460705,5494653.0,5973373.0,0.0
1582914460756,5495954.0,5978473.0,0.0
1582914460802,5500964.0,5994914.0,0.0
1582914460848,5513311.0,6006538.0,0.0
1582914460899,5524345.0,5968150.0,0.0
1582914460950,5533992.0,5948194.0,0.0
1582914460998,5482940.0,5910586.0,0.0
1582914461048,5459795.0,5908855.0,0.0
1582914461097,5448362.0,5918976.0,0.0
1582914461143,5445298.0,5934829.0,0.0
1582914461193,5442301.0,5953542.0,0.0
1582914461242,5440300.0,5964702.0,0.0
1582914461292,5463966.0,5979040.0,0.0
1582914461338,5470616.0,5955768.0,0.0
1582914461386,5468771.0,5965945.0,0.0
1582914461437,5468535.0,5959037.0,0.0
1582914461485,5468206.0,5952615.0,0.0
1582914461536,5472503.0,5961876.0,0.0
1582914461583,5477197.0,5989443.0,0.0
1582914461628,5517291.0,6045886.0,0.0
1582914461676,5595863.0,6154628.0,0.0
1582914461728,5593760.0,6202276.0,0.0
1582914461779,5603848.0,6192733.0,0.0
1582914461826,5556662.0,6136118.0,0.0
1582914461876,5541477.0,6064849.0,0.0
1582914461923,5498544.0,6053711.0,0.0
1582914461968,5491342.0,6051518.0,0.0
1582914462021,5482069.0,6051234.0,0.0
1582914462070,5473261.0,6052252.0,0.0
1582914462118,5507057.0,6108755.0,0.0
1582914462167,5502896.0,6085428.0,0.0
1582914462217,5494643.0,6048408.0,0.0
1582914462264,5482871.0,5977445.0,0.0
1582914462315,5462824.0,5949393.0,0.0
1582914462362,5453846.0,5946938.0,0.0
1582914462410,5447040.0,5958800.0,0.0
1582914462460,5457702.0,5989113.0,0.0
1582914462509,5469123.0,6059704.0,0.0
1582914462558,5529559.0,6098657.0,0.0
1582914462604,5465098.0,5975738.0,0.0
1582914462656,5448013.0,5893274.0,0.0
1582914462702,5416907.0,5847220.0,0.0
1582914462749,5386536.0,5831426.0,0.0
1582914462801,5369293.0,5840550.0,0.0
1582914462843,5354479.0,5835257.0,0.0
1582914462898,5359410.0,5853316.0,0.0
1582914462946,5392065.0,5905905.0,0.0
1582914462995,5383415.0,5910857.0,0.0
1582914463044,5391668.0,5875037.0,0.0
1582914463093,5369858.0,5811604.0,0.0
1582914463141,5367267.0,5785632.0,0.0
1582914463191,5369020.0,5802489.0,0.0
1582914463239,5386140.0,5841635.0,0.0
1582914463288,5417709.0,5866195.0,0.0
1582914463338,5426507.0,5866827.0,0.0
1582914463380,5437801.0,5864882.0,0.0
1582914463431,5415042.0,5842121.0,0.0
1582914463482,5386875.0,5798081.0,0.0
1582914463531,5360359.0,5763616.0,0.0
1582914463581,5345298.0,5764272.0,0.0
1582914463629,5333122.0,5772334.0,0.0
1582914463678,5322900.0,5770796.0,0.0
1582914463726,5333097.0,5793850.0,0.0
1582914463772,5329976.0,5804503.0,0.0
1582914463823,5334444.0,5826348.0,0.0
1582914463872,5330157.0,5778791.0,0.0
1582914463921,5317426.0,5713164.0,0.0
1582914463970,5296136.0,5677614.0,0.0
1582914464020,5288480.0,5668784.0,0.0
1582914464067,5285607.0,5671994.0,0.0
1582914464114,5297345.0,5699628.0,0.0
1582914464158,5307769.0,5736287.0,0.0
1582914464212,5327049.0,5726518.0,0.0
1582914464256,5323656.0,5720433.0,0.0
1582914464306,5297741.0,5696091.0,0.0
1582914464361,5282635.0,5664182.0,0.0
1582914464409,5271655.0,5654513.0,0.0
1582914464457,5258120.0,5647662.0,0.0
1582914464507,5252423.0,5646305.0,0.0
1582914464552,5280361.0,5712554.0,0.0
1582914464597,5295784.0,5733404.0,0.0
1582914464654,5302016.0,5777976.0,0.0
1582914464702,5303903.0,5761107.0,0.0
1582914464750,5302105.0,5702038.0,0.0
1582914464798,5293127.0,5649245.0,0.0
1582914464848,5293986.0,5642414.0,0.0
1582914464895,5308619.0,5685768.0,0.0
1582914464940,5383314.0,5818150.0,0.0
1582914464992,5428926.0,5935733.0,0.0
1582914465041,5448317.0,5891726.0,0.0
1582914465092,5405001.0,5876551.0,0.0
1582914465135,5379797.0,5873997.0,0.0
1582914465189,5373092.0,5875510.0,0.0
1582914465237,5362249.0,5833370.0,0.0
1582914465286,5346033.0,5799279.0,0.0
1582914465340,5386457.0,5832793.0,0.0
1582914465379,5454965.0,5927751.0,0.0
1582914465433,5443649.0,5939340.0,0.0
1582914465478,5454705.0,5924392.0,0.0
1582914465529,5429638.0,5902557.0,0.0
1582914465573,5435054.0,5904672.0,0.0
1582914465628,5445219.0,5869893.0,0.0
1582914465678,5443896.0,5853395.0,0.0
1582914465724,5494507.0,5905566.0,0.0
1582914465774,5538243.0,6073262.0,0.0
1582914465821,5552841.0,6118897.0,0.0
1582914465871,5559885.0,6091670.0,0.0
1582914465914,5548950.0,6070276.0,0.0
1582914465968,5518151.0,6069327.0,0.0
1582914466017,5500590.0,6070141.0,0.0
1582914466066,5486423.0,6053666.0,0.0
1582914466116,5493715.0,6001336.0,0.0
1582914466158,5505769.0,6029854.0,0.0
1582914466213,5535676.0,6035880.0,0.0
1582914466259,5520422.0,6069518.0,0.0
1582914466309,5517710.0,6058335.0,0.0
1582914466354,5507069.0,6028893.0,0.0
1582914466407,5504570.0,6038503.0,0.0
1582914466459,5501043.0,5998758.0,0.0
1582914466504,5506968.0,5942562.0,0.0
1582914466553,5574404.0,5995117.0,0.0
1582914466596,5736864.0,6243512.0,0.0
1582914466652,5747006.0,6251302.0,0.0
1582914466694,5671621.0,6195096.0,0.0
1582914466749,5571169.0,6132329.0,0.0
1582914466798,5545106.0,6090662.0,0.0
1582914466846,5527592.0,6070117.0,0.0
1582914466898,5514237.0,6013933.0,0.0
1582914466943,5525601.0,5954401.0,0.0
1582914466993,5526609.0,5980544.0,0.0
1582914467042,5577128.0,6011152.0,0.0
1582914467091,5560801.0,6022345.0,0.0
1582914467136,5547627.0,5991771.0,0.0
1582914467188,5516702.0,5961797.0,0.0
1582914467233,5501053.0,5940685.0,0.0
1582914467286,5501224.0,5931211.0,0.0
1582914467334,5526901.0,5914758.0,0.0
1582914467379,5690709.0,6082545.0,0.0
1582914467433,5759874.0,6235383.0,0.0
1582914467479,5676980.0,6175443.0,0.0
1582914467530,5603248.0,6112428.0,0.0
1582914467574,5575714.0,6117959.0,0.0
1582914467629,5567867.0,6139205.0,0.0
1582914467677,5558359.0,6146474.0,0.0
1582914467725,5539102.0,6121114.0,0.0
1582914467775,5531865.0,6064611.0,0.0
1582914467823,5533437.0,5995298.0,0.0
1582914467872,5511716.0,5982285.0,0.0
1582914467919,5508494.0,5952197.0,0.0
1582914467970,5507498.0,5941036.0,0.0
1582914468017,5508256.0,5948826.0,0.0
1582914468067,5507781.0,5956234.0,0.0
1582914468116,5513356.0,5951540.0,0.0
1582914468164,5554096.0,5928677.0,0.0
1582914468214,5536152.0,5929356.0,0.0
1582914468261,5431549.0,5889928.0,0.0
1582914468311,5461229.0,5917777.0,0.0
1582914468356,5492833.0,5935236.0,0.0
1582914468408,5465526.0,5938990.0,0.0
1582914468457,5448273.0,5951337.0,0.0
1582914468505,5436659.0,5943037.0,0.0
1582914468556,5443275.0,5934614.0,0.0
1582914468603,5460189.0,5961829.0,0.0
1582914468651,5496362.0,5943931.0,0.0
1582914468697,5468669.0,5924008.0,0.0
1582914468749,5460370.0,5898183.0,0.0
1582914468800,5442923.0,5877410.0,0.0
1582914468846,5444677.0,5881425.0,0.0
1582914468895,5460597.0,5908167.0,0.0
1582914468944,5476234.0,5932375.0,0.0
1582914468994,5558674.0,5992947.0,0.0
1582914469039,5524008.0,6063865.0,0.0
1582914469091,5606402.0,6110994.0,0.0
1582914469137,5620727.0,6089488.0,0.0
1582914469187,5573747.0,6062508.0,0.0
1582914469237,5551201.0,6058810.0,0.0
1582914469285,5531367.0,6069054.0,0.0
1582914469332,5525455.0,6078112.0,0.0
1582914469378,5534488.0,6083754.0,0.0
1582914469431,5543682.0,6107816.0,0.0
1582914469478,5581458.0,6071677.0,0.0
1582914469528,5556051.0,6019892.0,0.0
1582914469578,5548645.0,5992687.0,0.0
1582914469627,5538639.0,5987937.0,0.0
1582914469675,5535676.0,6000353.0,0.0
1582914469722,5543253.0,6016952.0,0.0
1582914469773,5558901.0,6048408.0,0.0
1582914469815,5707205.0,6231052.0,0.0
1582914469870,5724042.0,6243693.0,0.0
1582914469918,5646949.0,6108732.0,0.0
1582914469968,5574200.0,6016160.0,0.0
1582914470017,5531154.0,5970005.0,0.0
1582914470066,5505972.0,5956878.0,0.0
1582914470115,5488751.0,5958223.0,0.0
1582914470162,5478983.0,5948928.0,0.0
1582914470212,5475193.0,5940979.0,0.0
1582914470259,5499776.0,5976789.0,0.0
1582914470309,5469846.0,5885179.0,0.0
1582914470359,5444689.0,5832894.0,0.0
1582914470406,5411535.0,5778688.0,0.0
1582914470456,5395084.0,5756029.0,0.0
1582914470503,5390098.0,5768852.0,0.0
1582914470554,5399413.0,5781199.0,0.0
1582914470599,5395886.0,5794066.0,0.0
1582914470649,5441194.0,5873227.0,0.0
1582914470702,5542993.0,5902151.0,0.0
1582914470748,5440820.0,5783992.0,0.0
1582914470798,5401439.0,5714927.0,0.0
1582914470846,5347571.0,5679457.0,0.0
1582914470894,5319440.0,5675172.0,0.0
1582914470940,5301721.0,5682318.0,0.0
1582914470992,5285867.0,5678021.0,0.0
1582914471039,5288401.0,5686637.0,0.0
1582914471090,5302184.0,5737508.0,0.0
1582914471139,5297570.0,5699888.0,0.0
1582914471187,5279095.0,5613933.0,0.0
1582914471236,5239102.0,5547729.0,0.0
1582914471283,5222966.0,5538243.0,0.0
1582914471335,5223001.0,5546317.0,0.0
1582914471380,5231605.0,5562768.0,0.0
1582914471430,5247526.0,5583437.0,0.0
1582914471479,5271056.0,5630791.0,0.0
1582914471527,5312270.0,5636705.0,0.0
1582914471576,5268715.0,5549108.0,0.0
1582914471621,5220908.0,5477014.0,0.0
1582914471674,5173396.0,5439057.0,0.0
1582914471720,5145750.0,5432986.0,0.0
1582914471771,5128632.0,5436107.0,0.0
1582914471820,5112122.0,5433595.0,0.0
1582914471869,5146213.0,5488830.0,0.0
1582914471918,5160811.0,5501643.0,0.0
1582914471967,5158359.0,5504920.0,0.0
1582914472015,5146213.0,5413469.0,0.0
1582914472059,5124561.0,5371440.0,0.0
1582914472113,5114215.0,5372424.0,0.0
1582914472160,5102862.0,5377456.0,0.0
1582914472210,5113650.0,5384466.0,0.0
1582914472258,5194756.0,5468172.0,0.0
1582914472301,5165945.0,5546599.0,0.0
1582914472357,5264361.0,5654095.0,0.0
1582914472405,5269359.0,5663288.0,0.0
1582914472456,5246882.0,5664475.0,0.0
1582914472503,5241793.0,5674754.0,0.0
1582914472550,5239464.0,5667856.0,0.0
1582914472600,5221441.0,5622662.0,0.0
1582914472648,5250476.0,5646315.0,0.0
1582914472698,5296881.0,5691363.0,0.0
1582914472744,5308166.0,5721961.0,0.0
1582914472794,5312473.0,5734727.0,0.0
1582914472840,5322300.0,5738898.0,0.0
1582914472888,5329434.0,5682499.0,0.0
1582914472940,5321406.0,5630350.0,0.0
1582914472989,5323713.0,5633347.0,0.0
1582914473037,5311422.0,5645062.0,0.0
1582914473086,5268648.0,5626315.0,0.0
1582914473136,5283504.0,5601789.0,0.0
1582914473179,5258788.0,5574946.0,0.0
1582914473233,5236388.0,5550250.0,0.0
1582914473281,5201280.0,5516206.0,0.0
1582914473330,5169698.0,5458799.0,0.0
1582914473379,5127478.0,5404389.0,0.0
1582914473428,5079740.0,5368320.0,0.0
1582914473477,5077739.0,5381922.0,0.0
1582914473521,5075330.0,5381583.0,0.0
1582914473573,5069529.0,5372357.0,0.0
1582914473625,5043411.0,5347390.0,0.0
1582914473671,5029152.0,5323656.0,0.0
1582914473719,5030633.0,5283787.0,0.0
1582914473768,5017482.0,5259838.0,0.0
1582914473816,5002138.0,5241760.0,0.0
1582914473861,4997944.0,5242414.0,0.0
1582914473909,5005204.0,5251754.0,0.0
1582914473961,5004525.0,5240695.0,0.0
1582914474006,4984602.0,5222018.0,0.0
1582914474057,4958516.0,5212157.0,0.0
1582914474103,4943579.0,5221034.0,0.0
1582914474155,4931413.0,5203145.0,0.0
1582914474203,4901099.0,5155181.0,0.0
1582914474256,4872378.0,5128744.0,0.0
1582914474308,4901099.0,5160687.0,0.0
1582914474352,4903021.0,5178745.0,0.0
1582914474396,4918330.0,5209059.0,0.0
1582914474451,4907769.0,5193975.0,0.0
1582914474499,4910585.0,5183301.0,0.0
1582914474544,4918026.0,5180814.0,0.0
1582914474597,4918704.0,5152060.0,0.0
1582914474642,4909815.0,5137915.0,0.0
1582914474695,4971780.0,5168975.0,0.0
1582914474741,5022175.0,5205158.0,0.0
1582914474792,5009885.0,5203915.0,0.0
1582914474839,4984206.0,5211196.0,0.0
1582914474885,4959817.0,5204286.0,0.0
1582914474938,4945603.0,5195152.0,0.0
1582914474981,4940797.0,5202139.0,0.0
1582914475035,4929706.0,5163062.0,0.0
1582914475082,4918026.0,5146191.0,0.0
1582914475132,4946407.0,5193591.0,0.0
1582914475181,4948859.0,5213005.0,0.0
1582914475230,4939960.0,5211841.0,0.0
1582914475278,4936807.0,5193715.0,0.0
1582914475322,4939780.0,5191273.0,0.0
1582914475377,4958120.0,5203325.0,0.0
1582914475422,4964587.0,5205837.0,0.0
1582914475472,4986987.0,5184512.0,0.0
1582914475518,5041861.0,5224571.0,0.0
1582914475567,5060981.0,5213265.0,0.0
1582914475616,5027523.0,5206471.0,0.0
1582914475665,4996213.0,5214012.0,0.0
1582914475715,4972050.0,5211196.0,0.0
1582914475763,4946598.0,5214080.0,0.0
1582914475811,4938707.0,5213017.0,0.0
1582914475859,4934274.0,5189827.0,0.0
1582914475908,4971971.0,5201789.0,0.0
1582914475954,4950635.0,5171124.0,0.0
1582914476003,4943116.0,5198793.0,0.0
1582914476052,4945863.0,5188616.0,0.0
1582914476103,4949798.0,5186706.0,0.0
1582914476152,4960201.0,5202862.0,0.0
1582914476200,4968320.0,5219303.0,0.0
1582914476251,4972401.0,5246644.0,0.0
1582914476298,4989791.0,5234647.0,0.0
1582914476347,4991002.0,5179706.0,0.0
1582914476395,4961320.0,5139067.0,0.0
1582914476443,4916996.0,5113921.0,0.0
1582914476498,4876336.0,5100182.0,0.0
1582914476545,4848475.0,5093873.0,0.0
1582914476596,4837926.0,5077772.0,0.0
1582914476644,4819325.0,5056414.0,0.0
1582914476693,4798555.0,5047728.0,0.0
1582914476741,4833889.0,5072424.0,0.0
1582914476789,4844485.0,5052602.0,0.0
1582914476839,4819132.0,5008991.0,0.0
1582914476884,4811524.0,4997457.0,0.0
1582914476936,4804933.0,5009387.0,0.0
1582914476984,4815469.0,5051686.0,0.0
1582914477035,4836388.0,5108221.0,0.0
1582914477081,4890018.0,5195672.0,0.0
1582914477132,4917877.0,5261399.0,0.0
1582914477179,4901132.0,5204831.0,0.0
1582914477224,4911353.0,5162010.0,0.0
1582914477278,4903157.0,5146067.0,0.0
1582914477326,4892290.0,5141081.0,0.0
1582914477375,4879479.0,5145016.0,0.0
1582914477422,4870219.0,5141918.0,0.0
1582914477472,4895750.0,5167053.0,0.0
1582914477520,4928280.0,5205012.0,0.0
1582914477569,4946915.0,5246090.0,0.0
1582914477618,4944562.0,5206028.0,0.0
1582914477666,4938095.0,5159194.0,0.0
1582914477712,4926732.0,5130689.0,0.0
1582914477764,4923859.0,5141126.0,0.0
1582914477814,4926212.0,5170976.0,0.0
1582914477862,4988446.0,5272289.0,0.0
1582914477905,5046304.0,5388921.0,0.0
1582914477958,5058438.0,5378700.0,0.0
1582914478010,5057430.0,5346350.0,0.0
1582914478057,5047005.0,5284183.0,0.0
1582914478105,5022831.0,5241250.0,0.0
1582914478155,4998712.0,5228237.0,0.0
1582914478202,4984037.0,5218308.0,0.0
1582914478250,4992528.0,5229344.0,0.0
1582914478302,5024414.0,5303801.0,0.0
1582914478346,5040820.0,5317934.0,0.0
1582914478394,5046859.0,5342279.0,0.0
1582914478446,5037474.0,5316104.0,0.0
1582914478495,5024889.0,5262949.0,0.0
1582914478543,5012778.0,5263378.0,0.0
1582914478594,5030395.0,5307725.0,0.0
1582914478642,5079456.0,5364723.0,0.0
1582914478685,5147570.0,5469110.0,0.0
1582914478739,5196145.0,5484907.0,0.0
1582914478787,5117551.0,5428473.0,0.0
1582914478837,5094304.0,5384104.0,0.0
1582914478885,5068013.0,5365221.0,0.0
1582914478936,5037813.0,5334546.0,0.0
1582914478976,5013209.0,5297515.0,0.0
1582914479032,4981697.0,5279378.0,0.0
1582914479074,5007238.0,5345015.0,0.0
1582914479127,5011569.0,5348770.0,0.0
1582914479175,5018160.0,5367358.0,0.0
1582914479223,5009184.0,5348362.0,0.0
1582914479272,5025160.0,5357330.0,0.0
1582914479318,5028144.0,5366826.0,0.0
1582914479375,5037429.0,5359420.0,0.0
1582914479422,5044585.0,5358685.0,0.0
1582914479466,5074007.0,5372956.0,0.0
1582914479519,5067030.0,5421519.0,0.0
1582914479568,5024132.0,5350749.0,0.0
1582914479618,4981504.0,5321971.0,0.0
1582914479665,4955745.0,5319755.0,0.0
1582914479715,4939034.0,5317912.0,0.0
1582914479763,4927319.0,5308290.0,0.0
1582914479807,4908426.0,5277094.0,0.0
1582914479861,4931368.0,5300636.0,0.0
1582914479908,4930078.0,5305339.0,0.0
1582914479958,4938479.0,5343579.0,0.0
1582914480004,4941013.0,5339871.0,0.0
1582914480049,4954593.0,5341805.0,0.0
1582914480098,4960552.0,5353959.0,0.0
1582914480154,4967844.0,5362791.0,0.0
1582914480201,4985392.0,5393850.0,0.0
1582914480247,5059478.0,5461162.0,0.0
1582914480295,5143184.0,5526936.0,0.0
1582914480344,5094936.0,5495976.0,0.0
1582914480394,5060008.0,5464714.0,0.0
1582914480442,5023748.0,5451156.0,0.0
1582914480496,4996994.0,5446462.0,0.0
1582914480542,4978700.0,5441838.0,0.0
1582914480590,4974754.0,5438153.0,0.0
1582914480642,5013932.0,5448374.0,0.0
1582914480690,5007205.0,5411502.0,0.0
1582914480738,4998160.0,5401100.0,0.0
1582914480787,4971847.0,5384206.0,0.0
1582914480836,4948599.0,5355022.0,0.0
1582914480884,4945659.0,5367086.0,0.0
1582914480934,4957622.0,5386920.0,0.0
1582914480981,4987802.0,5421283.0,0.0
1582914481032,5048533.0,5452241.0,0.0
1582914481079,5128145.0,5468387.0,0.0
1582914481123,5083166.0,5428847.0,0.0
1582914481178,5048397.0,5397040.0,0.0
1582914481225,5010643.0,5382769.0,0.0
1582914481272,4987247.0,5382769.0,0.0
1582914481323,4978881.0,5388887.0,0.0
1582914481369,4967257.0,5389679.0,0.0
1582914481420,4980396.0,5402794.0,0.0
1582914481469,5017947.0,5462678.0,0.0
1582914481519,5039282.0,5458460.0,0.0
1582914481567,5048793.0,5465425.0,0.0
1582914481613,5054774.0,5448825.0,0.0
1582914481663,5050804.0,5446351.0,0.0
1582914481709,5058911.0,5467629.0,0.0
1582914481761,5066193.0,5507025.0,0.0
1582914481811,5154661.0,5591092.0,0.0
1582914481853,5237304.0,5711750.0,0.0
1582914481907,5282058.0,5791477.0,0.0
1582914481958,5226290.0,5685699.0,0.0
1582914482005,5196950.0,5623273.0,0.0
1582914482051,5163434.0,5598827.0,0.0
1582914482103,5134976.0,5589881.0,0.0
1582914482152,5114894.0,5584014.0,0.0
1582914482201,5108199.0,5572197.0,0.0
1582914482249,5143466.0,5628960.0,0.0
1582914482292,5163491.0,5596271.0,0.0
1582914482347,5169913.0,5611558.0,0.0
1582914482393,5163650.0,5545457.0,0.0
1582914482443,5140469.0,5521011.0,0.0
1582914482491,5136016.0,5525115.0,0.0
1582914482540,5130339.0,5545728.0,0.0
1582914482590,5144722.0,5569936.0,0.0
1582914482633,5200477.0,5645513.0,0.0
1582914482687,5199494.0,5734806.0,0.0
1582914482732,5269971.0,5753870.0,0.0
1582914482784,5270853.0,5750692.0,0.0
1582914482833,5222718.0,5727829.0,0.0
1582914482878,5194800.0,5691816.0,0.0
1582914482931,5171112.0,5666295.0,0.0
1582914482980,5146044.0,5642845.0,0.0
1582914483028,5132873.0,5633629.0,0.0
1582914483073,5160563.0,5674776.0,0.0
1582914483126,5148407.0,5663764.0,0.0
1582914483171,5150770.0,5665030.0,0.0
1582914483223,5150738.0,5631831.0,0.0
1582914483273,5152591.0,5592506.0,0.0
1582914483321,5154198.0,5580667.0,0.0
1582914483365,5162689.0,5599075.0,0.0
1582914483431,5201540.0,5663152.0,0.0
1582914483484,5279390.0,5777580.0,0.0
1582914483539,5313718.0,5832827.0,0.0
1582914483583,5269926.0,5768275.0,0.0
1582914483614,5234478.0,5736490.0,0.0
1582914483662,5204480.0,5714769.0,0.0
1582914483712,5193002.0,5676517.0,0.0
1582914483761,5179367.0,5647707.0,0.0
1582914483810,5155565.0,5620898.0,0.0
1582914483857,5182872.0,5658957.0,0.0
1582914483907,5208980.0,5685585.0,0.0
1582914483956,5213559.0,5723782.0,0.0
1582914484004,5240561.0,5721159.0,0.0
1582914484053,5257669.0,5725047.0,0.0
1582914484095,5280339.0,5705169.0,0.0
1582914484147,5295229.0,5693309.0,0.0
1582914484195,5307544.0,5716748.0,0.0
1582914484244,5349528.0,5763933.0,0.0
1582914484294,5384941.0,5823104.0,0.0
1582914484346,5381707.0,5813650.0,0.0
1582914484397,5354004.0,5790742.0,0.0
1582914484443,5322536.0,5780577.0,0.0
1582914484493,5299403.0,5780000.0,0.0
1582914484537,5274063.0,5755656.0,0.0
1582914484589,5252059.0,5711616.0,0.0
1582914484637,5242674.0,5683437.0,0.0
1582914484687,5282781.0,5741815.0,0.0
1582914484739,5267009.0,5705587.0,0.0
1582914484784,5269902.0,5732713.0,0.0
1582914484833,5280249.0,5716148.0,0.0
1582914484877,5276133.0,5698283.0,0.0
1582914484932,5277389.0,5699313.0,0.0
1582914484974,5283358.0,5675001.0,0.0
1582914485022,5279886.0,5650612.0,0.0
1582914485074,5320716.0,5691692.0,0.0
1582914485126,5384614.0,5782001.0,0.0
1582914485174,5395671.0,5761422.0,0.0
1582914485223,5356379.0,5745389.0,0.0
1582914485273,5314870.0,5737677.0,0.0
1582914485316,5298984.0,5741624.0,0.0
1582914485366,5289634.0,5745434.0,0.0
1582914485413,5271769.0,5686105.0,0.0
1582914485463,5261592.0,5619982.0,0.0
1582914485518,5267777.0,5623397.0,0.0
1582914485564,5272344.0,5636343.0,0.0
1582914485613,5279106.0,5647254.0,0.0
1582914485657,5288673.0,5651902.0,0.0
1582914485711,5301528.0,5657364.0,0.0
1582914485754,5311173.0,5685134.0,0.0
1582914485809,5326687.0,5715222.0,0.0
1582914485857,5380419.0,5729865.0,0.0
1582914485905,5380689.0,5719462.0,0.0
1582914485954,5376574.0,5681922.0,0.0
1582914486003,5295774.0,5626134.0,0.0
1582914486052,5262179.0,5597582.0,0.0
1582914486099,5241929.0,5583223.0,0.0
1582914486149,5230892.0,5580135.0,0.0
1582914486195,5225262.0,5581945.0,0.0
1582914486247,5210845.0,5564306.0,0.0
1582914486296,5243920.0,5562938.0,0.0
1582914486337,5236819.0,5509319.0,0.0
1582914486393,5228621.0,5528598.0,0.0
1582914486440,5227070.0,5499708.0,0.0
1582914486490,5223407.0,5489363.0,0.0
1582914486536,5224697.0,5497809.0,0.0
1582914486588,5237508.0,5517437.0,0.0
1582914486640,5241171.0,5539260.0,0.0
1582914486685,5280961.0,5554909.0,0.0
1582914486736,5322628.0,5568784.0,0.0
1582914486783,5318590.0,5546723.0,0.0
1582914486833,5283527.0,5522232.0,0.0
1582914486876,5244688.0,5497165.0,0.0
1582914486929,5218783.0,5487926.0,0.0
1582914486978,5204264.0,5490289.0,0.0
1582914487026,5184432.0,5478530.0,0.0
1582914487076,5199335.0,5488526.0,0.0
1582914487124,5247095.0,5532454.0,0.0
1582914487172,5290516.0,5504808.0,0.0
1582914487217,5283630.0,5511513.0,0.0
1582914487271,5269733.0,5498837.0,0.0
1582914487319,5264700.0,5510879.0,0.0
1582914487367,5266578.0,5545411.0,0.0
1582914487416,5283527.0,5580804.0,0.0
1582914487465,5328314.0,5654694.0,0.0
1582914487509,5400850.0,5770682.0,0.0
1582914487555,5467664.0,5802693.0,0.0
1582914487605,5379208.0,5667189.0,0.0
1582914487654,5340775.0,5605485.0,0.0
1582914487709,5306526.0,5571632.0,0.0
1582914487757,5275093.0,5558064.0,0.0
1582914487806,5254479.0,5549539.0,0.0
1582914487855,5237859.0,5534760.0,0.0
1582914487903,5278201.0,5601743.0,0.0
1582914487953,5293433.0,5616306.0,0.0
1582914487995,5305904.0,5615132.0,0.0
1582914488050,5299289.0,5549549.0,0.0
1582914488098,5283177.0,5513910.0,0.0
1582914488147,5278248.0,5507974.0,0.0
1582914488196,5288886.0,5531865.0,0.0
1582914488244,5298816.0,5555226.0,0.0
1582914488296,5352931.0,5627095.0,0.0
1582914488338,5401744.0,5667484.0,0.0
1582914488392,5366781.0,5619246.0,0.0
1582914488438,5320208.0,5537598.0,0.0
1582914488489,5272153.0,5467290.0,0.0
1582914488538,5230553.0,5430836.0,0.0
1582914488587,5208957.0,5411772.0,0.0
1582914488637,5183845.0,5391579.0,0.0
1582914488684,5211387.0,5429707.0,0.0
1582914488734,5213515.0,5439713.0,0.0
1582914488778,5225092.0,5466534.0,0.0
1582914488832,5199652.0,5430802.0,0.0
1582914488876,5186106.0,5352443.0,0.0
1582914488928,5162756.0,5301857.0,0.0
1582914488977,5149019.0,5301518.0,0.0
1582914489027,5154468.0,5319393.0,0.0
1582914489069,5194134.0,5379299.0,0.0
1582914489122,5234726.0,5405962.0,0.0
1582914489174,5195140.0,5355960.0,0.0
1582914489221,5182260.0,5336513.0,0.0
1582914489270,5152534.0,5330984.0,0.0
1582914489319,5132296.0,5309478.0,0.0
1582914489368,5114441.0,5274097.0,0.0
1582914489413,5080972.0,5251279.0,0.0
1582914489463,5086557.0,5272242.0,0.0
1582914489515,5123588.0,5332646.0,0.0
1582914489560,5143523.0,5376394.0,0.0
1582914489611,5145908.0,5387780.0,0.0
1582914489662,5151414.0,5371780.0,0.0
1582914489708,5152071.0,5334286.0,0.0
1582914489757,5142235.0,5292993.0,0.0
1582914489806,5124244.0,5285879.0,0.0
1582914489848,5135721.0,5319383.0,0.0
1582914489897,5139441.0,5375173.0,0.0
1582914489950,5141081.0,5342776.0,0.0
1582914489998,5115164.0,5318038.0,0.0
1582914490046,5094981.0,5292245.0,0.0
1582914490095,5075193.0,5284953.0,0.0
1582914490143,5063050.0,5255769.0,0.0
1582914490197,5021903.0,5186897.0,0.0
1582914490239,4994767.0,5153926.0,0.0
1582914490295,5023589.0,5210902.0,0.0
1582914490337,5041036.0,5225059.0,0.0
1582914490387,5039091.0,5268557.0,0.0
1582914490434,5029185.0,5244292.0,0.0
1582914490485,5036592.0,5227060.0,0.0
1582914490534,5041385.0,5226087.0,0.0
1582914490585,5037880.0,5191568.0,0.0
1582914490637,5020966.0,5177331.0,0.0
1582914490679,5049358.0,5233584.0,0.0
1582914490733,5076675.0,5258890.0,0.0
1582914490781,5043059.0,5232069.0,0.0
1582914490830,5017630.0,5200138.0,0.0
1582914490878,4978858.0,5168128.0,0.0
1582914490928,4951631.0,5159105.0,0.0
1582914490977,4948510.0,5161344.0,0.0
1582914491019,4918263.0,5110641.0,0.0
1582914491073,4914803.0,5090255.0,0.0
1582914491120,4939148.0,5115708.0,0.0
1582914491171,4954593.0,5143196.0,0.0
1582914491219,4956233.0,5137383.0,0.0
1582914491268,4938955.0,5105871.0,0.0
1582914491317,4930440.0,5101167.0,0.0
1582914491364,4934952.0,5114871.0,0.0
1582914491411,4946801.0,5127761.0,0.0
1582914491463,4988401.0,5146542.0,0.0
1582914491506,5036862.0,5209376.0,0.0
1582914491559,5036694.0,5243501.0,0.0
1582914491609,5018886.0,5188650.0,0.0
1582914491658,4977342.0,5162847.0,0.0
1582914491705,4940198.0,5148521.0,0.0
1582914491756,4919123.0,5156764.0,0.0
1582914491801,4905102.0,5153269.0,0.0
1582914491852,4891861.0,5112813.0,0.0
1582914491901,4887044.0,5071565.0,0.0
1582914491950,4863571.0,5047119.0,0.0
1582914491998,4862915.0,5046475.0,0.0
1582914492045,4858855.0,5030078.0,0.0
1582914492096,4850816.0,5018353.0,0.0
1582914492143,4842630.0,5024300.0,0.0
1582914492195,4853902.0,5044461.0,0.0
1582914492241,4865040.0,5084930.0,0.0
1582914492291,4903361.0,5128427.0,0.0
1582914492339,4918907.0,5103666.0,0.0
1582914492388,4880497.0,5072843.0,0.0
1582914492438,4849674.0,5024788.0,0.0
1582914492480,4808187.0,4985144.0,0.0
1582914492535,4789418.0,4989994.0,0.0
1582914492581,4783843.0,4997605.0,0.0
1582914492633,4760291.0,4981751.0,0.0
1582914492681,4775962.0,4996666.0,0.0
1582914492730,4784861.0,4952059.0,0.0
1582914492779,4781017.0,4925466.0,0.0
1582914492826,4760212.0,4871925.0,0.0
1582914492876,4739011.0,4846949.0,0.0
1582914492922,4726076.0,4852319.0,0.0
1582914492977,4729559.0,4875093.0,0.0
1582914493022,4722718.0,4891838.0,0.0
1582914493072,4739090.0,4915752.0,0.0
1582914493120,4766850.0,4902117.0,0.0
1582914493169,4738129.0,4833515.0,0.0
1582914493218,4702071.0,4777547.0,0.0
1582914493263,4663107.0,4740514.0,0.0
1582914493317,4633878.0,4721564.0,0.0
1582914493365,4620320.0,4726889.0,0.0
1582914493410,4612711.0,4726347.0,0.0
1582914493462,4599629.0,4723407.0,0.0
1582914493512,4646440.0,4769156.0,0.0
1582914493560,4655067.0,4775714.0,0.0
1582914493607,4662383.0,4732645.0,0.0
1582914493659,4622356.0,4674673.0,0.0
1582914493701,4604558.0,4642494.0,0.0
1582914493755,4595208.0,4637316.0,0.0
1582914493798,4612258.0,4669551.0,0.0
1582914493852,4613942.0,4702579.0,0.0
1582914493900,4606628.0,4732001.0,0.0
1582914493949,4591725.0,4668162.0,0.0
1582914493999,4584612.0,4639272.0,0.0
1582914494042,4552151.0,4569506.0,0.0
1582914494097,4511274.0,4527806.0,0.0
1582914494144,4491589.0,4517144.0,0.0
1582914494195,4484047.0,4525261.0,0.0
1582914494241,4466895.0,4520683.0,0.0
1582914494292,4473587.0,4531163.0,0.0
1582914494340,4521463.0,4578031.0,0.0
1582914494382,4554558.0,4624266.0,0.0
1582914494437,4564542.0,4612020.0,0.0
1582914494484,4555780.0,4557125.0,0.0
1582914494535,4546610.0,4518296.0,0.0
1582914494582,4554965.0,4528597.0,0.0
1582914494633,4574516.0,4576902.0,0.0
1582914494681,4593692.0,4639169.0,0.0
1582914494728,4690708.0,4792098.0,0.0
1582914494779,4791318.0,4985449.0,0.0
1582914494823,4812779.0,4991634.0,0.0
1582914494876,4830701.0,4952433.0,0.0
1582914494925,4793478.0,4899368.0,0.0
1582914494975,4766488.0,4850590.0,0.0
1582914495021,4743738.0,4828101.0,0.0
1582914495072,4726042.0,4816272.0,0.0
1582914495119,4720060.0,4809319.0,0.0
1582914495165,4770706.0,4875715.0,0.0
1582914495216,4823838.0,4911173.0,0.0
1582914495265,4849899.0,4977048.0,0.0
1582914495314,4880396.0,4969969.0,0.0
1582914495362,4869371.0,4926291.0,0.0
1582914495407,4867063.0,4909828.0,0.0
1582914495457,4867640.0,4923091.0,0.0
1582914495506,4868195.0,4967438.0,0.0
1582914495555,4949142.0,5080102.0,0.0
1582914495603,5042878.0,5252185.0,0.0
1582914495650,5021588.0,5269042.0,0.0
1582914495704,5032149.0,5228123.0,0.0
1582914495753,5008516.0,5222582.0,0.0
1582914495801,5016194.0,5225884.0,0.0
1582914495849,5019879.0,5209059.0,0.0
1582914495898,5026009.0,5209354.0,0.0
1582914495945,5030462.0,5212779.0,0.0
1582914495996,5056979.0,5246429.0,0.0
1582914496044,5107023.0,5262169.0,0.0
1582914496095,5115912.0,5298102.0,0.0
1582914496139,5105668.0,5309092.0,0.0
1582914496185,5114250.0,5275499.0,0.0
1582914496237,5125760.0,5220480.0,0.0
1582914496283,5131627.0,5211422.0,0.0
1582914496334,5131674.0,5234545.0,0.0
1582914496383,5176200.0,5326823.0,0.0
1582914496432,5233753.0,5450544.0,0.0
1582914496480,5233334.0,5545853.0,0.0
1582914496530,5265062.0,5518636.0,0.0
1582914496581,5236366.0,5505034.0,0.0
1582914496630,5201393.0,5505475.0,0.0
1582914496679,5170173.0,5451404.0,0.0
1582914496728,5143749.0,5364894.0,0.0
1582914496778,5121135.0,5331130.0,0.0
1582914496825,5158968.0,5360822.0,0.0
1582914496875,5192980.0,5402873.0,0.0
1582914496923,5202354.0,5422086.0,0.0
1582914496971,5203642.0,5451201.0,0.0
1582914497020,5221304.0,5455327.0,0.0
1582914497067,5224878.0,5406752.0,0.0
1582914497118,5233359.0,5378190.0,0.0
1582914497166,5239576.0,5395118.0,0.0
1582914497212,5260371.0,5436332.0,0.0
1582914497264,5314633.0,5526076.0,0.0
1582914497315,5299730.0,5605690.0,0.0
1582914497362,5344381.0,5576021.0,0.0
1582914497407,5314113.0,5553757.0,0.0
1582914497458,5292517.0,5550998.0,0.0
1582914497507,5277852.0,5547424.0,0.0
1582914497558,5266206.0,5511389.0,0.0
1582914497605,5260800.0,5479513.0,0.0
1582914497651,5272695.0,5488446.0,0.0
1582914497702,5302501.0,5511298.0,0.0
1582914497747,5303608.0,5546114.0,0.0
1582914497800,5315968.0,5550014.0,0.0
1582914497849,5319552.0,5547966.0,0.0
1582914497899,5323633.0,5519382.0,0.0
1582914497947,5314791.0,5453440.0,0.0
1582914497996,5295286.0,5431842.0,0.0
1582914498043,5262134.0,5429095.0,0.0
1582914498095,5221034.0,5385687.0,0.0
1582914498141,5192764.0,5348181.0,0.0
1582914498186,5182929.0,5288334.0,0.0
1582914498239,5156368.0,5254605.0,0.0
1582914498288,5156142.0,5264802.0,0.0
1582914498338,5158800.0,5260720.0,0.0
1582914498386,5193874.0,5248306.0,0.0
1582914498435,5289768.0,5355487.0,0.0
1582914498483,5388785.0,5477432.0,0.0
1582914498526,5471169.0,5614080.0,0.0
1582914498580,5435235.0,5609443.0,0.0
1582914498631,5434556.0,5627174.0,0.0
1582914498679,5462034.0,5658278.0,0.0
1582914498727,5476823.0,5687598.0,0.0
1582914498776,5516387.0,5721746.0,0.0
1582914498824,5516749.0,5751304.0,0.0
1582914498876,5508551.0,5796124.0,0.0
1582914498921,5523352.0,5846668.0,0.0
1582914498971,5543048.0,5892959.0,0.0
1582914499019,5561411.0,5936501.0,0.0
1582914499068,5568635.0,5965029.0,0.0
1582914499117,5570570.0,5972358.0,0.0
1582914499166,5575070.0,5978723.0,0.0
1582914499215,5568026.0,5996893.0,0.0
1582914499263,5580271.0,6028972.0,0.0
1582914499306,5592427.0,6059410.0,0.0
1582914499354,5597299.0,6079197.0,0.0
1582914499403,5607352.0,6089951.0,0.0
1582914499452,5630010.0,6096237.0,0.0
1582914499503,5630520.0,6105872.0,0.0
1582914499553,5634330.0,6106605.0,0.0
1582914499604,5649131.0,6127252.0,0.0
1582914499649,5648160.0,6144156.0,0.0
1582914499701,5658177.0,6172188.0,0.0
1582914499751,5674833.0,6199109.0,0.0
1582914499798,5682702.0,6211921.0,0.0
1582914499849,5690573.0,6216374.0,0.0
1582914499898,5693614.0,6223205.0,0.0
1582914499945,5691975.0,6226304.0,0.0
1582914499992,5683584.0,6227490.0,0.0
1582914500038,5689022.0,6241523.0,0.0
1582914500090,5678179.0,6244406.0,0.0
1582914500141,5666318.0,6229390.0,0.0
1582914500191,5621248.0,6193694.0,0.0
1582914500240,5569609.0,6134454.0,0.0
1582914500286,5551223.0,6080532.0,0.0
1582914500337,5542369.0,6045175.0,0.0
1582914500384,5546475.0,6022255.0,0.0
1582914500431,5576031.0,5960224.0,0.0
1582914500481,5513400.0,5840481.0,0.0
1582914500531,5460563.0,5716951.0,0.0
1582914500579,5433246.0,5670615.0,0.0
1582914500628,5411988.0,5644190.0,0.0
1582914500679,5399584.0,5640257.0,0.0
1582914500726,5392223.0,5646780.0,0.0
1582914500772,5372854.0,5632024.0,0.0
1582914500822,5362043.0,5619246.0,0.0
1582914500873,5380644.0,5637225.0,0.0
1582914500921,5365833.0,5592732.0,0.0
1582914500968,5353077.0,5556301.0,0.0
1582914501019,5327534.0,5509002.0,0.0
1582914501062,5317325.0,5485754.0,0.0
1582914501112,5309872.0,5487032.0,0.0
1582914501160,5313865.0,5502309.0,0.0
1582914501215,5324990.0,5516647.0,0.0
1582914501257,5369033.0,5546678.0,0.0
1582914501307,5397412.0,5558267.0,0.0
1582914501353,5386977.0,5539283.0,0.0
1582914501407,5344134.0,5528937.0,0.0
1582914501456,5318162.0,5512395.0,0.0
1582914501504,5299425.0,5513898.0,0.0
1582914501551,5294461.0,5530272.0,0.0
1582914501602,5291613.0,5527545.0,0.0
1582914501655,5319970.0,5574347.0,0.0
1582914501694,5340379.0,5591159.0,0.0
1582914501749,5327683.0,5579763.0,0.0
1582914501797,5311524.0,5489883.0,0.0
1582914501847,5308438.0,5459297.0,0.0
1582914501892,5307160.0,5462135.0,0.0
1582914501943,5306831.0,5489871.0,0.0
1582914501992,5309251.0,5508167.0,0.0
1582914502035,5346645.0,5559952.0,0.0
1582914502092,5397932.0,5575850.0,0.0
1582914502136,5351856.0,5535382.0,0.0
1582914502188,5324629.0,5479864.0,0.0
1582914502234,5294474.0,5428010.0,0.0
1582914502286,5270469.0,5395423.0,0.0
1582914502339,5258018.0,5386841.0,0.0
1582914502384,5262531.0,5406774.0,0.0
1582914502432,5325805.0,5538312.0,0.0
1582914502479,5387745.0,5594936.0,0.0
1582914502525,5346169.0,5542087.0,0.0
1582914502573,5340978.0,5506198.0,0.0
1582914502627,5321406.0,5425466.0,0.0
1582914502679,5301471.0,5371700.0,0.0
1582914502724,5293897.0,5374732.0,0.0
1582914502777,5295207.0,5398623.0,0.0
1582914502822,5302139.0,5407024.0,0.0
1582914502872,5306335.0,5410789.0,0.0
1582914502917,5306424.0,5407475.0,0.0
1582914502968,5296768.0,5434128.0,0.0
1582914503012,5277728.0,5424369.0,0.0
1582914503066,5251539.0,5380057.0,0.0
1582914503118,5227977.0,5325952.0,0.0
1582914503163,5200906.0,5290719.0,0.0
1582914503212,5202671.0,5306922.0,0.0
1582914503258,5234070.0,5361026.0,0.0
1582914503310,5233166.0,5383131.0,0.0
1582914503353,5226382.0,5379921.0,0.0
1582914503407,5213559.0,5361444.0,0.0
1582914503460,5219766.0,5333347.0,0.0
1582914503504,5207962.0,5273567.0,0.0
1582914503554,5195253.0,5246575.0,0.0
1582914503597,5192019.0,5241161.0,0.0
1582914503654,5198374.0,5292042.0,0.0
1582914503694,5196643.0,5288955.0,0.0
1582914503748,5179085.0,5257963.0,0.0
1582914503794,5158607.0,5248725.0,0.0
1582914503846,5138966.0,5247175.0,0.0
1582914503898,5125195.0,5250996.0,0.0
1582914503943,5100229.0,5196170.0,0.0
1582914503994,5055339.0,5125093.0,0.0
1582914504034,5074210.0,5172016.0,0.0
1582914504090,5074980.0,5166273.0,0.0
1582914504133,5076392.0,5185834.0,0.0
1582914504187,5075013.0,5178904.0,0.0
1582914504238,5076291.0,5175783.0,0.0
1582914504284,5087835.0,5184556.0,0.0
1582914504335,5101742.0,5212609.0,0.0
1582914504382,5097955.0,5136377.0,0.0
1582914504426,5119575.0,5133403.0,0.0
1582914504475,5131075.0,5191432.0,0.0
1582914504528,5126416.0,5234330.0,0.0
1582914504578,5142280.0,5266702.0,0.0
1582914504625,5142404.0,5280361.0,0.0
1582914504670,5108132.0,5279683.0,0.0
1582914504723,5110302.0,5269812.0,0.0
1582914504771,5101009.0,5237993.0,0.0
1582914504818,5114148.0,5188492.0,0.0
1582914504865,5086569.0,5115865.0,0.0
1582914504915,5051664.0,5065888.0,0.0
1582914504967,4993714.0,5022073.0,0.0
1582914505016,4963831.0,5007498.0,0.0
1582914505064,4967629.0,5015527.0,0.0
1582914505115,4983086.0,5035778.0,0.0
1582914505160,4973498.0,5037405.0,0.0
1582914505205,4965493.0,5036694.0,0.0
1582914505260,4963581.0,4993546.0,0.0
1582914505304,4918387.0,4916012.0,0.0
1582914505354,4839328.0,4845738.0,0.0
1582914505402,4791578.0,4811749.0,0.0
