time,value,value2,value3
1579101372678,5264735.0,4877947.0,0.0
1579101372681,5274264.0,4881103.0,0.0
1579101372686,5277612.0,4884557.0,0.0
1579101372686,5285341.0,4894547.0,0.0
1579101372687,5291562.0,4895703.0,0.0
1579101372689,5293196.0,4902501.0,0.0
1579101372691,5295473.0,4905307.0,0.0
1579101372692,5302621.0,4908877.0,0.0
1579101372693,5309309.0,4913208.0,0.0
1579101372693,5308800.0,4918292.0,0.0
1579101372695,5310256.0,4920364.0,0.0
1579101372695,5313887.0,4925960.0,0.0
1579101372697,5321636.0,4926722.0,0.0
1579101372698,5321522.0,4927646.0,0.0
1579101372699,5326984.0,4936005.0,0.0
1579101372700,5327504.0,4940379.0,0.0
1579101372701,5332362.0,4942630.0,0.0
1579101372708,5338561.0,4947779.0,0.0
1579101372798,5341484.0,4948971.0,0.0
1579101372800,5344199.0,4952602.0,0.0
1579101373032,5347352.0,4954548.0,0.0
1579101373033,5351440.0,4962208.0,0.0
1579101373033,5357754.0,4965615.0,0.0
1579101373035,5358212.0,4965481.0,0.0
1579101373036,5366160.0,4968978.0,0.0
1579101373087,5364213.0,4971668.0,0.0
1579101373301,5370372.0,4978448.0,0.0
1579101373302,5370528.0,4982653.0,0.0
1579101373302,5357921.0,4991611.0,0.0
1579101373302,5345261.0,5004615.0,0.0
1579101373346,5328887.0,5005171.0,0.0
1579101373392,5303505.0,4992410.0,0.0
1579101373421,5271340.0,4972430.0,0.0
1579101373466,5202330.0,4962773.0,0.0
1579101373518,5154883.0,4927502.0,0.0
1579101373570,5145510.0,4924812.0,0.0
1579101373617,5115239.0,4919342.0,0.0
1579101373710,5061510.0,4890851.0,0.0
1579101373711,5022136.0,4869229.0,0.0
1579101373808,4997160.0,4861643.0,0.0
1579101373810,4970540.0,4852299.0,0.0
1579101373848,4926464.0,4888106.0,0.0
1579101373897,4920118.0,4881497.0,0.0
1579101373945,4974598.0,4974896.0,0.0
1579101373995,5012983.0,4983523.0,0.0
1579101374041,4996880.0,4935367.0,0.0
1579101374094,4877478.0,4806905.0,0.0
1579101374139,4774649.0,4734687.0,0.0
1579101374188,4738314.0,4713892.0,0.0
1579101374238,4664986.0,4702153.0,0.0
1579101374287,4549810.0,4650319.0,0.0
1579101374338,4515149.0,4627586.0,0.0
1579101374384,4513672.0,4636903.0,0.0
1579101374438,4534507.0,4656077.0,0.0
1579101374481,4532457.0,4670228.0,0.0
1579101374531,4540779.0,4690405.0,0.0
1579101374579,4546523.0,4698790.0,0.0
1579101374626,4514306.0,4670945.0,0.0
1579101374679,4474589.0,4641450.0,0.0
1579101374724,4463739.0,4638715.0,0.0
1579101374776,4480331.0,4650723.0,0.0
1579101374820,4517999.0,4674074.0,0.0
1579101374872,4561284.0,4693562.0,0.0
1579101374920,4563061.0,4689769.0,0.0
1579101374969,4571843.0,4695023.0,0.0
1579101375017,4563427.0,4688217.0,0.0
1579101375066,4554355.0,4682057.0,0.0
1579101375118,4522680.0,4663887.0,0.0
1579101375160,4501219.0,4650418.0,0.0
1579101375216,4485105.0,4636034.0,0.0
1579101375260,4461763.0,4646570.0,0.0
1579101375313,4459942.0,4646777.0,0.0
1579101375364,4486822.0,4666408.0,0.0
1579101375410,4476013.0,4674415.0,0.0
1579101375460,4498462.0,4663170.0,0.0
1579101375505,4470761.0,4623156.0,0.0
1579101375556,4427757.0,4597284.0,0.0
1579101375599,4415699.0,4594891.0,0.0
1579101375653,4422784.0,4605257.0,0.0
1579101375705,4415128.0,4600055.0,0.0
1579101375751,4412828.0,4598450.0,0.0
1579101375804,4395790.0,4555863.0,0.0
1579101375846,4361045.0,4493886.0,0.0
1579101375898,4361252.0,4558984.0,0.0
1579101375939,4424823.0,4614404.0,0.0
1579101375993,4476649.0,4653324.0,0.0
1579101376044,4512162.0,4674371.0,0.0
1579101376091,4556913.0,4684003.0,0.0
1579101376142,4577127.0,4685635.0,0.0
1579101376188,4564894.0,4672910.0,0.0
1579101376237,4539719.0,4657430.0,0.0
1579101376284,4511091.0,4649979.0,0.0
1579101376334,4496902.0,4621470.0,0.0
1579101376381,4409697.0,4514297.0,0.0
1579101376425,4298849.0,4410246.0,0.0
1579101376484,4264208.0,4382193.0,0.0
1579101376528,4294168.0,4434484.0,0.0
1579101376578,4314014.0,4493106.0,0.0
1579101376622,4305277.0,4479189.0,0.0
1579101376674,4267786.0,4444529.0,0.0
1579101376721,4256749.0,4441918.0,0.0
1579101376771,4253316.0,4437615.0,0.0
1579101376825,4291047.0,4451720.0,0.0
1579101376862,4314453.0,4466840.0,0.0
1579101376918,4258133.0,4386060.0,0.0
1579101376963,4146273.0,4286715.0,0.0
1579101377015,4082984.0,4248925.0,0.0
1579101377060,4048635.0,4234451.0,0.0
1579101377112,4022359.0,4221637.0,0.0
1579101377164,4040086.0,4222722.0,0.0
1579101377208,4029194.0,4200059.0,0.0
1579101377259,4007848.0,4171158.0,0.0
1579101377302,3975797.0,4124704.0,0.0
1579101377349,3954742.0,4093192.0,0.0
1579101377399,3949708.0,4081767.0,0.0
1579101377452,3939555.0,4063258.0,0.0
1579101377504,3881134.0,3997541.0,0.0
1579101377549,3816576.0,3931611.0,0.0
1579101377598,3826688.0,3925002.0,0.0
1579101377645,3865687.0,3935943.0,0.0
1579101377696,3919000.0,3972378.0,0.0
1579101377738,3931367.0,4000627.0,0.0
1579101377792,3925959.0,4005390.0,0.0
1579101377842,3918707.0,3993732.0,0.0
1579101377884,3887416.0,3976943.0,0.0
1579101377940,3853370.0,3962524.0,0.0
1579101377987,3856314.0,3961053.0,0.0
1579101378038,3817128.0,3918573.0,0.0
1579101378078,3765115.0,3831092.0,0.0
1579101378127,3725907.0,3774632.0,0.0
1579101378183,3742697.0,3776048.0,0.0
1579101378230,3765302.0,3794728.0,0.0
1579101378279,3793046.0,3826277.0,0.0
1579101378327,3798475.0,3854776.0,0.0
1579101378377,3825127.0,3890566.0,0.0
1579101378420,3845579.0,3927235.0,0.0
1579101378473,3880561.0,3981813.0,0.0
1579101378525,3923161.0,4030122.0,0.0
1579101378564,3936371.0,4058038.0,0.0
1579101378619,3888396.0,4009703.0,0.0
1579101378667,3869639.0,3980342.0,0.0
1579101378717,3891724.0,4002403.0,0.0
1579101378762,3936258.0,4044139.0,0.0
1579101378806,3920694.0,4064440.0,0.0
1579101378860,3938795.0,4087856.0,0.0
1579101378906,3948647.0,4108249.0,0.0
1579101378955,3951872.0,4111567.0,0.0
1579101379001,3954732.0,4113082.0,0.0
1579101379051,3962191.0,4122587.0,0.0
1579101379099,3954015.0,4101881.0,0.0
1579101379150,3860319.0,3972280.0,0.0
1579101379202,3780406.0,3876729.0,0.0
1579101379251,3742021.0,3835971.0,0.0
1579101379300,3743498.0,3829487.0,0.0
1579101379348,3750269.0,3837639.0,0.0
1579101379398,3755503.0,3833425.0,0.0
1579101379440,3742510.0,3813660.0,0.0
1579101379494,3741033.0,3806305.0,0.0
1579101379543,3741698.0,3806197.0,0.0
1579101379591,3756814.0,3815255.0,0.0
1579101379641,3742811.0,3796128.0,0.0
1579101379688,3657189.0,3687196.0,0.0
1579101379733,3596812.0,3610782.0,0.0
1579101379781,3573333.0,3580283.0,0.0
1579101379829,3581635.0,3588937.0,0.0
1579101379879,3599162.0,3606469.0,0.0
1579101379932,3614539.0,3621634.0,0.0
1579101379981,3617233.0,3620987.0,0.0
1579101380029,3619644.0,3617993.0,0.0
1579101380079,3624285.0,3623706.0,0.0
1579101380123,3636841.0,3638897.0,0.0
1579101380175,3631234.0,3621024.0,0.0
1579101380223,3555285.0,3521617.0,0.0
1579101380267,3497061.0,3453427.0,0.0
1579101380321,3491362.0,3436936.0,0.0
1579101380364,3503563.0,3455542.0,0.0
1579101380415,3529902.0,3485074.0,0.0
1579101380463,3541981.0,3497996.0,0.0
1579101380511,3540337.0,3497010.0,0.0
1579101380562,3544049.0,3495117.0,0.0
1579101380612,3555254.0,3508524.0,0.0
1579101380662,3570858.0,3527033.0,0.0
1579101380707,3557042.0,3502120.0,0.0
1579101380760,3479940.0,3410777.0,0.0
1579101380805,3445621.0,3362826.0,0.0
1579101380856,3444675.0,3361714.0,0.0
1579101380904,3469411.0,3389523.0,0.0
1579101380953,3492536.0,3422990.0,0.0
1579101381002,3506789.0,3432057.0,0.0
1579101381047,3504396.0,3432638.0,0.0
1579101381100,3509378.0,3436182.0,0.0
1579101381144,3525835.0,3452574.0,0.0
1579101381196,3543269.0,3472958.0,0.0
1579101381246,3505353.0,3422102.0,0.0
1579101381293,3434605.0,3342990.0,0.0
1579101381342,3407859.0,3309342.0,0.0
1579101381390,3416795.0,3320892.0,0.0
1579101381439,3443208.0,3357005.0,0.0
1579101381481,3463680.0,3378537.0,0.0
1579101381537,3460195.0,3378448.0,0.0
1579101381586,3463659.0,3381684.0,0.0
1579101381633,3479253.0,3392160.0,0.0
1579101381682,3492037.0,3408006.0,0.0
1579101381732,3475466.0,3382107.0,0.0
1579101381779,3389551.0,3276458.0,0.0
1579101381825,3324952.0,3209173.0,0.0
1579101381878,3315006.0,3202375.0,0.0
1579101381929,3328446.0,3228830.0,0.0
1579101381973,3300156.0,3257841.0,0.0
1579101382022,3290810.0,3254280.0,0.0
1579101382072,3282724.0,3243178.0,0.0
1579101382119,3281432.0,3246344.0,0.0
1579101382167,3292852.0,3261490.0,0.0
1579101382218,3310370.0,3284494.0,0.0
1579101382264,3273299.0,3238408.0,0.0
1579101382313,3203539.0,3153824.0,0.0
1579101382362,3172317.0,3121468.0,0.0
1579101382409,3185304.0,3142489.0,0.0
1579101382460,3223281.0,3189731.0,0.0
1579101382507,3253172.0,3223933.0,0.0
1579101382557,3255883.0,3224777.0,0.0
1579101382604,3257711.0,3225449.0,0.0
1579101382653,3270060.0,3236650.0,0.0
1579101382703,3290613.0,3262648.0,0.0
1579101382750,3312357.0,3283165.0,0.0
1579101382801,3251636.0,3210240.0,0.0
1579101382851,3193319.0,3140902.0,0.0
1579101382897,3179046.0,3131637.0,0.0
1579101382945,3198126.0,3158586.0,0.0
1579101382994,3225266.0,3191759.0,0.0
1579101383043,3233156.0,3198537.0,0.0
1579101383084,3230917.0,3197740.0,0.0
1579101383134,3234108.0,3201828.0,0.0
1579101383187,3244834.0,3220150.0,0.0
1579101383234,3265119.0,3242398.0,0.0
1579101383281,3255080.0,3228273.0,0.0
1579101383330,3176470.0,3140768.0,0.0
1579101383382,3132889.0,3095964.0,0.0
1579101383430,3133275.0,3100879.0,0.0
1579101383480,3155476.0,3130276.0,0.0
1579101383530,3174113.0,3155484.0,0.0
1579101383577,3170102.0,3153672.0,0.0
1579101383625,3167162.0,3154935.0,0.0
1579101383674,3175942.0,3162729.0,0.0
1579101383723,3191159.0,3183678.0,0.0
1579101383769,3205778.0,3201668.0,0.0
1579101383819,3152306.0,3138929.0,0.0
1579101383864,3083225.0,3066766.0,0.0
1579101383911,3058968.0,3044516.0,0.0
1579101383965,3069362.0,3060256.0,0.0
1579101384014,3093997.0,3086602.0,0.0
1579101384063,3101358.0,3093508.0,0.0
1579101384105,3099467.0,3093957.0,0.0
1579101384160,3100893.0,3097669.0,0.0
1579101384212,3114463.0,3114339.0,0.0
1579101384258,3132700.0,3139807.0,0.0
1579101384304,3144915.0,3153861.0,0.0
1579101384354,3080214.0,3080504.0,0.0
1579101384403,3017862.0,3018376.0,0.0
1579101384445,3006372.0,3011023.0,0.0
1579101384500,3019477.0,3029900.0,0.0
1579101384553,3037659.0,3055368.0,0.0
1579101384597,3043285.0,3058480.0,0.0
1579101384645,3044563.0,3060319.0,0.0
1579101384694,3054421.0,3072327.0,0.0
1579101384742,3070852.0,3095328.0,0.0
1579101384785,3092177.0,3115765.0,0.0
1579101384839,3111027.0,3139781.0,0.0
1579101384891,3073997.0,3095749.0,0.0
1579101384938,3005876.0,3029514.0,0.0
1579101384985,2987333.0,3009426.0,0.0
1579101385035,2995559.0,3023703.0,0.0
1579101385083,3016216.0,3051162.0,0.0
1579101385128,3025253.0,3054338.0,0.0
1579101385180,3028319.0,3060435.0,0.0
1579101385227,3034089.0,3070685.0,0.0
1579101385273,3053011.0,3088377.0,0.0
1579101385324,3071900.0,3110115.0,0.0
1579101385374,3090529.0,3132365.0,0.0
1579101385416,3113274.0,3153359.0,0.0
1579101385466,3092689.0,3133261.0,0.0
1579101385516,3022165.0,3057871.0,0.0
1579101385564,2985463.0,3025318.0,0.0
1579101385613,2992816.0,3034634.0,0.0
1579101385664,3013504.0,3058551.0,0.0
1579101385712,3023465.0,3070299.0,0.0
1579101385763,3024733.0,3070577.0,0.0
1579101385809,3033372.0,3077491.0,0.0
1579101385862,3046800.0,3091705.0,0.0
1579101385908,3066896.0,3112332.0,0.0
1579101385958,3082672.0,3133431.0,0.0
1579101386005,3106204.0,3154462.0,0.0
1579101386054,3125111.0,3172683.0,0.0
1579101386103,3079529.0,3122330.0,0.0
1579101386152,3019895.0,3058094.0,0.0
1579101386194,3001327.0,3042383.0,0.0
1579101386247,3015411.0,3057072.0,0.0
1579101386298,3033238.0,3074434.0,0.0
1579101386345,3040717.0,3082693.0,0.0
1579101386392,3045516.0,3083580.0,0.0
1579101386443,3053137.0,3094556.0,0.0
1579101386488,3074785.0,3112815.0,0.0
1579101386540,3097039.0,3134650.0,0.0
1579101386587,3110893.0,3151636.0,0.0
1579101386638,3125213.0,3169204.0,0.0
1579101386685,3144537.0,3188772.0,0.0
1579101386733,3118941.0,3158962.0,0.0
1579101386782,3043561.0,3072398.0,0.0
1579101386833,3011439.0,3035164.0,0.0
1579101386879,3013126.0,3034626.0,0.0
1579101386928,3029430.0,3053771.0,0.0
1579101386978,3037966.0,3058956.0,0.0
1579101387025,3038754.0,3060640.0,0.0
1579101387073,3049693.0,3067877.0,0.0
1579101387123,3068330.0,3087626.0,0.0
1579101387172,3090994.0,3108673.0,0.0
1579101387220,3114063.0,3129988.0,0.0
1579101387268,3131564.0,3143466.0,0.0
1579101387318,3152188.0,3164757.0,0.0
1579101387365,3172654.0,3183319.0,0.0
1579101387417,3160179.0,3165572.0,0.0
1579101387470,3086329.0,3081392.0,0.0
1579101387511,3044538.0,3033774.0,0.0
1579101387558,3037312.0,3030044.0,0.0
1579101387604,3056052.0,3048643.0,0.0
1579101387654,3071790.0,3064147.0,0.0
1579101387706,3072902.0,3063986.0,0.0
1579101387749,3079434.0,3066945.0,0.0
1579101387803,3092579.0,3080827.0,0.0
1579101387855,3113841.0,3101974.0,0.0
1579101387900,3141432.0,3129746.0,0.0
1579101387948,3178715.0,3156551.0,0.0
1579101387996,3203870.0,3174164.0,0.0
1579101388045,3226646.0,3195022.0,0.0
1579101388089,3244598.0,3211487.0,0.0
1579101388143,3219712.0,3176557.0,0.0
1579101388194,3159172.0,3102090.0,0.0
1579101388240,3128933.0,3067430.0,0.0
1579101388283,3136467.0,3079320.0,0.0
1579101388339,3152826.0,3098835.0,0.0
1579101388386,3160716.0,3110036.0,0.0
1579101388432,3164277.0,3112689.0,0.0
1579101388482,3168438.0,3116645.0,0.0
1579101388536,3185523.0,3137009.0,0.0
1579101388581,3210979.0,3159456.0,0.0
1579101388628,3243314.0,3187561.0,0.0
1579101388680,3292072.0,3226274.0,0.0
1579101388725,3352886.0,3283811.0,0.0
1579101388771,3402630.0,3338900.0,0.0
1579101388824,3430993.0,3369892.0,0.0
1579101388869,3365063.0,3303755.0,0.0
1579101388921,3313097.0,3252254.0,0.0
1579101388969,3313830.0,3256783.0,0.0
1579101389019,3335637.0,3280467.0,0.0
1579101389066,3355235.0,3303549.0,0.0
1579101389113,3357663.0,3308867.0,0.0
1579101389164,3363132.0,3313611.0,0.0
1579101389217,3379051.0,3333241.0,0.0
1579101389261,3403259.0,3360432.0,0.0
1579101389310,3427533.0,3390329.0,0.0
1579101389358,3457598.0,3420838.0,0.0
1579101389406,3485708.0,3451392.0,0.0
1579101389454,3513827.0,3480984.0,0.0
1579101389504,3541394.0,3512783.0,0.0
1579101389556,3535018.0,3503108.0,0.0
1579101389601,3481965.0,3446503.0,0.0
1579101389650,3452972.0,3420084.0,0.0
1579101389699,3453366.0,3433429.0,0.0
1579101389747,3473217.0,3461587.0,0.0
1579101389791,3488190.0,3481746.0,0.0
1579101389839,3486157.0,3481262.0,0.0
1579101389896,3481366.0,3483513.0,0.0
1579101389943,3493274.0,3493719.0,0.0
1579101389990,3508610.0,3510426.0,0.0
1579101390040,3528098.0,3535902.0,0.0
1579101390087,3542804.0,3553166.0,0.0
1579101390134,3562199.0,3573333.0,0.0
1579101390184,3578536.0,3596875.0,0.0
1579101390232,3586582.0,3605733.0,0.0
1579101390282,3529658.0,3539435.0,0.0
1579101390330,3475061.0,3481459.0,0.0
1579101390380,3463383.0,3470510.0,0.0
1579101390426,3474588.0,3485728.0,0.0
1579101390473,3500988.0,3513303.0,0.0
1579101390524,3508270.0,3519573.0,0.0
1579101390573,3504079.0,3519106.0,0.0
1579101390623,3508404.0,3521089.0,0.0
1579101390670,3521566.0,3536755.0,0.0
1579101390720,3536973.0,3557380.0,0.0
1579101390768,3550299.0,3577998.0,0.0
1579101390815,3565295.0,3596040.0,0.0
1579101390864,3580245.0,3617086.0,0.0
1579101390914,3559905.0,3594918.0,0.0
1579101390962,3486228.0,3516129.0,0.0
1579101391011,3449150.0,3477613.0,0.0
1579101391057,3451995.0,3477944.0,0.0
1579101391102,3466077.0,3500426.0,0.0
1579101391157,3485645.0,3519752.0,0.0
1579101391199,3484802.0,3518228.0,0.0
1579101391250,3479901.0,3512730.0,0.0
1579101391302,3486945.0,3519581.0,0.0
1579101391352,3497183.0,3536459.0,0.0
1579101391401,3516767.0,3559838.0,0.0
1579101391448,3536152.0,3581988.0,0.0
1579101391497,3555405.0,3602039.0,0.0
1579101391546,3573532.0,3624226.0,0.0
1579101391594,3527704.0,3567719.0,0.0
1579101391643,3468308.0,3499170.0,0.0
1579101391691,3452523.0,3477308.0,0.0
1579101391740,3468978.0,3491126.0,0.0
1579101391788,3491935.0,3515735.0,0.0
1579101391837,3505149.0,3527992.0,0.0
1579101391881,3500225.0,3522513.0,0.0
1579101391935,3501761.0,3517303.0,0.0
1579101391984,3509981.0,3522917.0,0.0
1579101392031,3524955.0,3542700.0,0.0
1579101392075,3546737.0,3569263.0,0.0
1579101392128,3570354.0,3593770.0,0.0
1579101392177,3593155.0,3615526.0,0.0
1579101392225,3604431.0,3630699.0,0.0
1579101392274,3549108.0,3564411.0,0.0
1579101392323,3502943.0,3512838.0,0.0
1579101392370,3493298.0,3503207.0,0.0
1579101392415,3508374.0,3522675.0,0.0
1579101392461,3530817.0,3550726.0,0.0
1579101392517,3537493.0,3556878.0,0.0
1579101392562,3527074.0,3547058.0,0.0
1579101392610,3522494.0,3544951.0,0.0
1579101392659,3531605.0,3556599.0,0.0
1579101392708,3547652.0,3578213.0,0.0
1579101392759,3566059.0,3596452.0,0.0
1579101392808,3581074.0,3612290.0,0.0
1579101392859,3598238.0,3632700.0,0.0
1579101392906,3603935.0,3638601.0,0.0
1579101392955,3536885.0,3558286.0,0.0
1579101393001,3485045.0,3497691.0,0.0
1579101393052,3470791.0,3479190.0,0.0
1579101393098,3478215.0,3495342.0,0.0
1579101393148,3496080.0,3516838.0,0.0
1579101393198,3493313.0,3511438.0,0.0
1579101393239,3481563.0,3495665.0,0.0
1579101393289,3474131.0,3491951.0,0.0
1579101393340,3483416.0,3499010.0,0.0
1579101393388,3498018.0,3518281.0,0.0
1579101393438,3511021.0,3533033.0,0.0
1579101393484,3526381.0,3556142.0,0.0
1579101393540,3564216.0,3595483.0,0.0
1579101393586,3577707.0,3622180.0,0.0
1579101393634,3570023.0,3607151.0,0.0
1579101393682,3570543.0,3601527.0,0.0
1579101393731,3599670.0,3649263.0,0.0
1579101393777,3649194.0,3712002.0,0.0
1579101393828,3701892.0,3771501.0,0.0
1579101393880,3735614.0,3826816.0,0.0
1579101393926,3774496.0,3874765.0,0.0
1579101393975,3814373.0,3920654.0,0.0
1579101394017,3868806.0,3965204.0,0.0
1579101394072,3919518.0,4014401.0,0.0
1579101394123,3955415.0,4046004.0,0.0
1579101394168,3966329.0,4057581.0,0.0
1579101394222,3967928.0,4059706.0,0.0
1579101394265,3942111.0,4022202.0,0.0
1579101394315,3841444.0,3901578.0,0.0
1579101394360,3780053.0,3831424.0,0.0
1579101394412,3767641.0,3820241.0,0.0
1579101394464,3774433.0,3828195.0,0.0
1579101394508,3773724.0,3820377.0,0.0
1579101394558,3750989.0,3793832.0,0.0
1579101394606,3733690.0,3769297.0,0.0
1579101394656,3721933.0,3759575.0,0.0
1579101394698,3727882.0,3759504.0,0.0
1579101394748,3731185.0,3761324.0,0.0
1579101394799,3728711.0,3764471.0,0.0
1579101394845,3726803.0,3765932.0,0.0
1579101394895,3734046.0,3772005.0,0.0
1579101394941,3731429.0,3762320.0,0.0
1579101394992,3649375.0,3663110.0,0.0
1579101395040,3592382.0,3590865.0,0.0
1579101395088,3578339.0,3570178.0,0.0
1579101395140,3584784.0,3573432.0,0.0
1579101395185,3589355.0,3583727.0,0.0
1579101395235,3571017.0,3567477.0,0.0
1579101395282,3552056.0,3552627.0,0.0
1579101395332,3544925.0,3556358.0,0.0
1579101395380,3558503.0,3577693.0,0.0
1579101395428,3575509.0,3607062.0,0.0
1579101395478,3587187.0,3627481.0,0.0
1579101395525,3593146.0,3654267.0,0.0
1579101395575,3606473.0,3681485.0,0.0
1579101395622,3554822.0,3633991.0,0.0
1579101395671,3498177.0,3571817.0,0.0
1579101395718,3484881.0,3555730.0,0.0
1579101395772,3506214.0,3583404.0,0.0
1579101395825,3537980.0,3611375.0,0.0
1579101395869,3537997.0,3596767.0,0.0
1579101395919,3530416.0,3577853.0,0.0
1579101395967,3530542.0,3570446.0,0.0
1579101396016,3535530.0,3570598.0,0.0
1579101396058,3546209.0,3576472.0,0.0
1579101396112,3549377.0,3588695.0,0.0
1579101396164,3558621.0,3594183.0,0.0
1579101396205,3551481.0,3575100.0,0.0
1579101396258,3471609.0,3477737.0,0.0
1579101396307,3415617.0,3407735.0,0.0
1579101396356,3403418.0,3389208.0,0.0
1579101396399,3403450.0,3396051.0,0.0
1579101396452,3403591.0,3407565.0,0.0
1579101396505,3390313.0,3412230.0,0.0
1579101396550,3402307.0,3432838.0,0.0
1579101396598,3401148.0,3459453.0,0.0
1579101396647,3409432.0,3509026.0,0.0
1579101396695,3436131.0,3563802.0,0.0
1579101396738,3451387.0,3605788.0,0.0
1579101396792,3449102.0,3627247.0,0.0
1579101396842,3414822.0,3628986.0,0.0
1579101396891,3346551.0,3593216.0,0.0
1579101396939,3294657.0,3615508.0,0.0
1579101396986,3275442.0,3682444.0,0.0
1579101397036,3281859.0,3742931.0,0.0
1579101397080,3277232.0,3788980.0,0.0
1579101397133,3280400.0,3817309.0,0.0
1579101397183,3280369.0,3845459.0,0.0
1579101397230,3281850.0,3869850.0,0.0
1579101397279,3285932.0,3892047.0,0.0
1579101397327,3295404.0,3916080.0,0.0
1579101397377,3316226.0,3937135.0,0.0
1579101397420,3321931.0,3953842.0,0.0
1579101397473,3327258.0,3963241.0,0.0
1579101397525,3287249.0,3912771.0,0.0
1579101397570,3250013.0,3862363.0,0.0
1579101397618,3237388.0,3855987.0,0.0
1579101397667,3256498.0,3872298.0,0.0
1579101397716,3268311.0,3888558.0,0.0
1579101397763,3273370.0,3886728.0,0.0
1579101397813,3276531.0,3883993.0,0.0
1579101397866,3285483.0,3892522.0,0.0
1579101397911,3293970.0,3905901.0,0.0
1579101397960,3313830.0,3917318.0,0.0
1579101398008,3335889.0,3928563.0,0.0
1579101398058,3352903.0,3943718.0,0.0
1579101398102,3347395.0,3920410.0,0.0
1579101398154,3285546.0,3810108.0,0.0
1579101398207,3246884.0,3729095.0,0.0
1579101398245,3248916.0,3685924.0,0.0
1579101398295,3258776.0,3657378.0,0.0
1579101398344,3255165.0,3614567.0,0.0
1579101398395,3252014.0,3561002.0,0.0
1579101398442,3248570.0,3519689.0,0.0
1579101398489,3258987.0,3498642.0,0.0
1579101398547,3271692.0,3484877.0,0.0
1579101398592,3289494.0,3489629.0,0.0
1579101398642,3315218.0,3511277.0,0.0
1579101398690,3355030.0,3540215.0,0.0
1579101398738,3339489.0,3499081.0,0.0
1579101398785,3318859.0,3434046.0,0.0
1579101398836,3329166.0,3428603.0,0.0
1579101398886,3368326.0,3464403.0,0.0
1579101398932,3422624.0,3516757.0,0.0
1579101398980,3439093.0,3533149.0,0.0
1579101399030,3451979.0,3535894.0,0.0
1579101399078,3460742.0,3533033.0,0.0
1579101399121,3474486.0,3543956.0,0.0
1579101399176,3490263.0,3544116.0,0.0
1579101399225,3496559.0,3537911.0,0.0
1579101399273,3501123.0,3538458.0,0.0
1579101399322,3508711.0,3537024.0,0.0
1579101399370,3491224.0,3498973.0,0.0
1579101399418,3424113.0,3381317.0,0.0
1579101399462,3383432.0,3309962.0,0.0
1579101399515,3373771.0,3296644.0,0.0
1579101399564,3379563.0,3300114.0,0.0
1579101399609,3376284.0,3291103.0,0.0
1579101399656,3369996.0,3275005.0,0.0
1579101399706,3367308.0,3275058.0,0.0
1579101399755,3374212.0,3279353.0,0.0
1579101399802,3373858.0,3292493.0,0.0
1579101399851,3379216.0,3302160.0,0.0
1579101399906,3380792.0,3309127.0,0.0
1579101399948,3392235.0,3318363.0,0.0
1579101400001,3405616.0,3331269.0,0.0
1579101400050,3383188.0,3292690.0,0.0
1579101400099,3323034.0,3203307.0,0.0
1579101400145,3299157.0,3182082.0,0.0
1579101400197,3306896.0,3218178.0,0.0
1579101400248,3328432.0,3275221.0,0.0
1579101400294,3353888.0,3315386.0,0.0
1579101400338,3382873.0,3331718.0,0.0
1579101400387,3397902.0,3346397.0,0.0
1579101400437,3425712.0,3377363.0,0.0
1579101400482,3447464.0,3407136.0,0.0
1579101400535,3460790.0,3433608.0,0.0
1579101400586,3472004.0,3462314.0,0.0
1579101400634,3486890.0,3491413.0,0.0
1579101400682,3482028.0,3482321.0,0.0
1579101400730,3430046.0,3385711.0,0.0
1579101400779,3404891.0,3344369.0,0.0
1579101400823,3409101.0,3353868.0,0.0
1579101400877,3426169.0,3374358.0,0.0
1579101400928,3429810.0,3383326.0,0.0
1579101400974,3421094.0,3375605.0,0.0
1579101401021,3421614.0,3371983.0,0.0
1579101401071,3431686.0,3389523.0,0.0
1579101401120,3444366.0,3411116.0,0.0
1579101401165,3468647.0,3430639.0,0.0
1579101401217,3484659.0,3438055.0,0.0
1579101401264,3501454.0,3444512.0,0.0
1579101401313,3509674.0,3434963.0,0.0
1579101401362,3447147.0,3334765.0,0.0
1579101401411,3396798.0,3262683.0,0.0
1579101401459,3386278.0,3250909.0,0.0
1579101401508,3395712.0,3264172.0,0.0
1579101401557,3405758.0,3279104.0,0.0
1579101401605,3411748.0,3282429.0,0.0
1579101401654,3420259.0,3283874.0,0.0
1579101401703,3441812.0,3307012.0,0.0
1579101401744,3477930.0,3346665.0,0.0
1579101401801,3527358.0,3390868.0,0.0
1579101401850,3579544.0,3433878.0,0.0
1579101401899,3623864.0,3480096.0,0.0
1579101401945,3678061.0,3535786.0,0.0
1579101401994,3690504.0,3566850.0,0.0
1579101402042,3610877.0,3493341.0,0.0
1579101402091,3556256.0,3457129.0,0.0
1579101402140,3588047.0,3475074.0,0.0
1579101402187,3637010.0,3520774.0,0.0
1579101402238,3676493.0,3550906.0,0.0
1579101402285,3696674.0,3554259.0,0.0
1579101402334,3702269.0,3552958.0,0.0
1579101402382,3691656.0,3546179.0,0.0
1579101402430,3668801.0,3539472.0,0.0
1579101402480,3672537.0,3551802.0,0.0
1579101402529,3685280.0,3567595.0,0.0
1579101402578,3706786.0,3590148.0,0.0
1579101402653,3713066.0,3604666.0,0.0
1579101402699,3647713.0,3555659.0,0.0
1579101402724,3631469.0,3566474.0,0.0
1579101402766,3631020.0,3585826.0,0.0
1579101402825,3631589.0,3628997.0,0.0
1579101402867,3639328.0,3673575.0,0.0
1579101402920,3636892.0,3698846.0,0.0
1579101402963,3644702.0,3730054.0,0.0
1579101403015,3658784.0,3749046.0,0.0
1579101403066,3669195.0,3786918.0,0.0
1579101403114,3703263.0,3822807.0,0.0
1579101403163,3725456.0,3862757.0,0.0
1579101403213,3707448.0,3884980.0,0.0
1579101403259,3669888.0,3870533.0,0.0
1579101403305,3628838.0,3835997.0,0.0
1579101403354,3624220.0,3826771.0,0.0
1579101403407,3657626.0,3851109.0,0.0
1579101403446,3680646.0,3871502.0,0.0
1579101403504,3686832.0,3867036.0,0.0
1579101403550,3693082.0,3852982.0,0.0
1579101403600,3683348.0,3874048.0,0.0
1579101403646,3691607.0,3866955.0,0.0
1579101403699,3719135.0,3878066.0,0.0
1579101403746,3759477.0,3902807.0,0.0
1579101403787,3841200.0,3950031.0,0.0
1579101403836,3892014.0,3988610.0,0.0
1579101403887,3876512.0,3974227.0,0.0
1579101403936,3903575.0,3994457.0,0.0
1579101403984,3916775.0,4003317.0,0.0
1579101404033,3896600.0,4021191.0,0.0
1579101404081,3934577.0,4067059.0,0.0
1579101404129,3941221.0,4068861.0,0.0
1579101404190,3932757.0,4096079.0,0.0
1579101404231,3958016.0,4106302.0,0.0
1579101404282,3996984.0,4139887.0,0.0
1579101404329,4021597.0,4159041.0,0.0
1579101404370,4080851.0,4189612.0,0.0
1579101404427,4099766.0,4207368.0,0.0
1579101404468,4093208.0,4202867.0,0.0
1579101404526,4076974.0,4186867.0,0.0
1579101404570,4078652.0,4197853.0,0.0
1579101404617,4108678.0,4213601.0,0.0
1579101404662,4091869.0,4245715.0,0.0
1579101404713,4121823.0,4251517.0,0.0
1579101404761,4108978.0,4291638.0,0.0
1579101404811,4104037.0,4313098.0,0.0
1579101404862,4132581.0,4307108.0,0.0
1579101404912,4096471.0,4317322.0,0.0
1579101404962,4118828.0,4329778.0,0.0
1579101405009,4095045.0,4322775.0,0.0
1579101405051,4059881.0,4282689.0,0.0
1579101405104,4036295.0,4261319.0,0.0
1579101405157,4010611.0,4286419.0,0.0
1579101405205,3983611.0,4322657.0,0.0
1579101405252,3948810.0,4340441.0,0.0
1579101405295,3927454.0,4355451.0,0.0
1579101405340,3922086.0,4350305.0,0.0
1579101405392,3916288.0,4349041.0,0.0
1579101405439,3910131.0,4365775.0,0.0
1579101405488,3944177.0,4379450.0,0.0
1579101405539,3947826.0,4373934.0,0.0
1579101405583,3885362.0,4324469.0,0.0
1579101405638,3860878.0,4261766.0,0.0
1579101405688,3831956.0,4225877.0,0.0
1579101405730,3796610.0,4193190.0,0.0
1579101405788,3783269.0,4158683.0,0.0
1579101405831,3812662.0,4121063.0,0.0
1579101405884,3832082.0,4105567.0,0.0
1579101405933,3971829.0,4151948.0,0.0
1579101405976,4163189.0,4288024.0,0.0
1579101406029,4234077.0,4311438.0,0.0
1579101406073,4212098.0,4302587.0,0.0
1579101406137,4088330.0,4213780.0,0.0
1579101406175,3897429.0,4062594.0,0.0
1579101406223,3763913.0,3925380.0,0.0
1579101406273,3669424.0,3827039.0,0.0
1579101406317,3594296.0,3753953.0,0.0
1579101406369,3541936.0,3705185.0,0.0
1579101406410,3507301.0,3662025.0,0.0
1579101406468,3479064.0,3617328.0,0.0
1579101406513,3450049.0,3577037.0,0.0
1579101406565,3428636.0,3548842.0,0.0
1579101406612,3421110.0,3526387.0,0.0
1579101406663,3416287.0,3503798.0,0.0
1579101406711,3381682.0,3455750.0,0.0
1579101406750,3297920.0,3352037.0,0.0
1579101406808,3235441.0,3274861.0,0.0
1579101406857,3204193.0,3232902.0,0.0
1579101406896,3194894.0,3217773.0,0.0
1579101406953,3185509.0,3197785.0,0.0
1579101406994,3165492.0,3170019.0,0.0
1579101407049,3149092.0,3145144.0,0.0
1579101407091,3144827.0,3140679.0,0.0
1579101407145,3146626.0,3141995.0,0.0
1579101407196,3148225.0,3143726.0,0.0
1579101407243,3151455.0,3147341.0,0.0
1579101407294,3118514.0,3109335.0,0.0
1579101407336,3055067.0,3042301.0,0.0
1579101407389,3019052.0,3002370.0,0.0
1579101407431,3012937.0,2998091.0,0.0
1579101407487,3022102.0,3007382.0,0.0
1579101407533,3025294.0,3010054.0,0.0
1579101407584,3024245.0,3003983.0,0.0
1579101407634,3028390.0,3008054.0,0.0
1579101407675,3040999.0,3020367.0,0.0
1579101407730,3057692.0,3035908.0,0.0
1579101407771,3070646.0,3048724.0,0.0
1579101407828,3086455.0,3066264.0,0.0
1579101407874,3061262.0,3037710.0,0.0
1579101407922,3006175.0,2979760.0,0.0
1579101407973,2986221.0,2962399.0,0.0
1579101408019,2991579.0,2967870.0,0.0
1579101408071,3008231.0,2987016.0,0.0
1579101408118,3014300.0,2994783.0,0.0
1579101408166,3019296.0,3002522.0,0.0
1579101408216,3030432.0,3017461.0,0.0
1579101408263,3050630.0,3038526.0,0.0
1579101408306,3076644.0,3068021.0,0.0
1579101408356,3131416.0,3105058.0,0.0
1579101408411,3179093.0,3143879.0,0.0
1579101408454,3222280.0,3173508.0,0.0
1579101408506,3203925.0,3144183.0,0.0
1579101408556,3177130.0,3108323.0,0.0
1579101408604,3178613.0,3110816.0,0.0
1579101408653,3191056.0,3148273.0,0.0
1579101408697,3215581.0,3194546.0,0.0
1579101408751,3239365.0,3239529.0,0.0
1579101408797,3274774.0,3304445.0,0.0
1579101408841,3304153.0,3345375.0,0.0
1579101408900,3386530.0,3395594.0,0.0
1579101408942,3436548.0,3438630.0,0.0
1579101408994,3477632.0,3471075.0,0.0
1579101409040,3513047.0,3500210.0,0.0
1579101409090,3515601.0,3492364.0,0.0
1579101409136,3503061.0,3470931.0,0.0
1579101409187,3499587.0,3475128.0,0.0
1579101409238,3528281.0,3507718.0,0.0
1579101409284,3524301.0,3564088.0,0.0
1579101409334,3547611.0,3577943.0,0.0
1579101409375,3570655.0,3575046.0,0.0
1579101409431,3594485.0,3581011.0,0.0
1579101409474,3606716.0,3590363.0,0.0
1579101409528,3623440.0,3610934.0,0.0
1579101409577,3635072.0,3638672.0,0.0
1579101409631,3639879.0,3650196.0,0.0
1579101409666,3577258.0,3611213.0,0.0
1579101409716,3538958.0,3580848.0,0.0
1579101409765,3527241.0,3574877.0,0.0
1579101409815,3539281.0,3589916.0,0.0
1579101409863,3582484.0,3612334.0,0.0
1579101409912,3644962.0,3644529.0,0.0
1579101409966,3742998.0,3716520.0,0.0
1579101410015,3837086.0,3799033.0,0.0
1579101410056,3903622.0,3864578.0,0.0
1579101410111,3937958.0,3918069.0,0.0
1579101410163,3963028.0,3947564.0,0.0
1579101410202,3959812.0,3952130.0,0.0
1579101410252,3935713.0,3958865.0,0.0
1579101410300,3947857.0,3982843.0,0.0
1579101410355,3991539.0,4002025.0,0.0
1579101410395,3997568.0,4023243.0,0.0
1579101410452,3970860.0,4024382.0,0.0
1579101410497,3954673.0,4035996.0,0.0
1579101410546,3966715.0,4045868.0,0.0
1579101410594,3964627.0,4044416.0,0.0
1579101410639,3946573.0,4041583.0,0.0
1579101410691,3923072.0,4058433.0,0.0
1579101410738,3937895.0,4102115.0,0.0
1579101410791,3956983.0,4098115.0,0.0
1579101410837,3980617.0,4063024.0,0.0
1579101410887,4011627.0,4046785.0,0.0
1579101410939,4030707.0,4048613.0,0.0
1579101410980,4040218.0,4052120.0,0.0
1579101411036,4020573.0,4056415.0,0.0
1579101411075,4084817.0,4103174.0,0.0
1579101411133,4161952.0,4145824.0,0.0
1579101411177,4201088.0,4170932.0,0.0
1579101411229,4154008.0,4186357.0,0.0
1579101411278,4128845.0,4185380.0,0.0
1579101411326,4116528.0,4195953.0,0.0
1579101411375,4108860.0,4204239.0,0.0
1579101411417,4047091.0,4162458.0,0.0
1579101411473,3984164.0,4100276.0,0.0
1579101411516,3958007.0,4058217.0,0.0
1579101411568,3951530.0,4043501.0,0.0
1579101411616,3959781.0,4045574.0,0.0
1579101411662,3962957.0,4035636.0,0.0
1579101411717,3969300.0,4032050.0,0.0
1579101411758,3984266.0,4029862.0,0.0
1579101411813,4004589.0,4031126.0,0.0
1579101411859,4018807.0,4038219.0,0.0
1579101411908,4044474.0,4051384.0,0.0
1579101411960,4069268.0,4057356.0,0.0
1579101412008,4103564.0,4079490.0,0.0
1579101412056,4095967.0,4043152.0,0.0
1579101412100,4058140.0,3994914.0,0.0
1579101412157,4049580.0,4015577.0,0.0
1579101412205,4094557.0,4055653.0,0.0
1579101412244,4150123.0,4096097.0,0.0
1579101412299,4163764.0,4095112.0,0.0
1579101412340,4136118.0,4061196.0,0.0
1579101412397,4137451.0,4055330.0,0.0
1579101412440,4152439.0,4051789.0,0.0
1579101412493,4152472.0,4071373.0,0.0
1579101412546,4158224.0,4081938.0,0.0
1579101412584,4147862.0,4075211.0,0.0
1579101412640,4147695.0,4056701.0,0.0
1579101412679,4108513.0,3997874.0,0.0
1579101412738,4012952.0,3893607.0,0.0
1579101412779,3951711.0,3826931.0,0.0
1579101412834,3937564.0,3807203.0,0.0
1579101412882,3933758.0,3812144.0,0.0
1579101412924,3938330.0,3825200.0,0.0
1579101412981,3931394.0,3832797.0,0.0
1579101413023,3930394.0,3850731.0,0.0
1579101413077,3941711.0,3889598.0,0.0
1579101413122,3954090.0,3961528.0,0.0
1579101413174,3994463.0,4036955.0,0.0
1579101413221,4112044.0,4135976.0,0.0
1579101413269,4268745.0,4203154.0,0.0
1579101413314,4401629.0,4281953.0,0.0
1579101413362,4480530.0,4306265.0,0.0
1579101413418,4541494.0,4327895.0,0.0
1579101413459,4589685.0,4309636.0,0.0
1579101413514,4616456.0,4334234.0,0.0
1579101413561,4623674.0,4342800.0,0.0
1579101413608,4649998.0,4353812.0,0.0
1579101413662,4670526.0,4370931.0,0.0
1579101413702,4682599.0,4375665.0,0.0
1579101413759,4778873.0,4387108.0,0.0
1579101413800,4792594.0,4396157.0,0.0
1579101413854,4806721.0,4405662.0,0.0
1579101413902,4828243.0,4415678.0,0.0
1579101413947,4844170.0,4423525.0,0.0
1579101413994,4865338.0,4436762.0,0.0
1579101414041,4884199.0,4444036.0,0.0
1579101414098,4899210.0,4459926.0,0.0
1579101414140,4908208.0,4473656.0,0.0
1579101414197,4911225.0,4485420.0,0.0
1579101414243,4912786.0,4501132.0,0.0
1579101414289,4899179.0,4507786.0,0.0
1579101414337,4862457.0,4504299.0,0.0
1579101414386,4869959.0,4495268.0,0.0
1579101414438,4858817.0,4485672.0,0.0
1579101414478,4831636.0,4465011.0,0.0
1579101414535,4808811.0,4456931.0,0.0
1579101414582,4767565.0,4413850.0,0.0
1579101414633,4667410.0,4315402.0,0.0
1579101414680,4537108.0,4220318.0,0.0
1579101414725,4453191.0,4160325.0,0.0
1579101414778,4390952.0,4113172.0,0.0
1579101414818,4338440.0,4072387.0,0.0
1579101414875,4275714.0,4018948.0,0.0
1579101414925,4212549.0,3968146.0,0.0
1579101414969,4162627.0,3926276.0,0.0
1579101415019,4113017.0,3897059.0,0.0
1579101415068,4076982.0,3874980.0,0.0
1579101415115,4049956.0,3853941.0,0.0
1579101415164,4013870.0,3825899.0,0.0
1579101415216,3910895.0,3728062.0,0.0
1579101415262,3819769.0,3636512.0,0.0
1579101415305,3754733.0,3577126.0,0.0
1579101415357,3723942.0,3548611.0,0.0
1579101415406,3706288.0,3537885.0,0.0
1579101415458,3683403.0,3518291.0,0.0
1579101415501,3652622.0,3490373.0,0.0
1579101415555,3622267.0,3469425.0,0.0
1579101415603,3608431.0,3458566.0,0.0
1579101415651,3601783.0,3456564.0,0.0
1579101415695,3598559.0,3460475.0,0.0
1579101415743,3594607.0,3466680.0,0.0
1579101415792,3569121.0,3441840.0,0.0
1579101415840,3488875.0,3353965.0,0.0
1579101415889,3428664.0,3292222.0,0.0
1579101415938,3391798.0,3277624.0,0.0
1579101415985,3370567.0,3285928.0,0.0
1579101416035,3368756.0,3297854.0,0.0
1579101416083,3359156.0,3281946.0,0.0
1579101416132,3307591.0,3254487.0,0.0
1579101416182,3279262.0,3244478.0,0.0
1579101416229,3281395.0,3250612.0,0.0
1579101416278,3298031.0,3263229.0,0.0
1579101416325,3321124.0,3281184.0,0.0
1579101416375,3331114.0,3290197.0,0.0
1579101416423,3279055.0,3231601.0,0.0
1579101416472,3225344.0,3175257.0,0.0
1579101416521,3211026.0,3154722.0,0.0
1579101416568,3215685.0,3160838.0,0.0
1579101416631,3243312.0,3191614.0,0.0
1579101416663,3270633.0,3217836.0,0.0
1579101416721,3284356.0,3226426.0,0.0
1579101416767,3295156.0,3233842.0,0.0
1579101416819,3319594.0,3254846.0,0.0
1579101416867,3345288.0,3280323.0,0.0
1579101416915,3374354.0,3309673.0,0.0
1579101416964,3407106.0,3341958.0,0.0
1579101417003,3421945.0,3351464.0,0.0
1579101417058,3373037.0,3282718.0,0.0
1579101417102,3335314.0,3239251.0,0.0
1579101417155,3340682.0,3243538.0,0.0
1579101417205,3362665.0,3264656.0,0.0
1579101417255,3390644.0,3293964.0,0.0
1579101417302,3412910.0,3309137.0,0.0
1579101417348,3423091.0,3318686.0,0.0
1579101417397,3437641.0,3332327.0,0.0
1579101417441,3459929.0,3352082.0,0.0
1579101417496,3484544.0,3378106.0,0.0
1579101417541,3515400.0,3404903.0,0.0
1579101417587,3540717.0,3429168.0,0.0
1579101417638,3512937.0,3392599.0,0.0
1579101417687,3482922.0,3351669.0,0.0
1579101417736,3478584.0,3346513.0,0.0
1579101417781,3498800.0,3363417.0,0.0
1579101417838,3531302.0,3398034.0,0.0
1579101417884,3565271.0,3427069.0,0.0
1579101417933,3583835.0,3445213.0,0.0
1579101417984,3603262.0,3459265.0,0.0
1579101418029,3620504.0,3478670.0,0.0
1579101418078,3640435.0,3502212.0,0.0
1579101418128,3664591.0,3528504.0,0.0
1579101418176,3679118.0,3544718.0,0.0
1579101418224,3637315.0,3506775.0,0.0
1579101418273,3610254.0,3491970.0,0.0
1579101418318,3628320.0,3529652.0,0.0
1579101418366,3667642.0,3591403.0,0.0
1579101418417,3724499.0,3674069.0,0.0
1579101418466,3768671.0,3736340.0,0.0
1579101418518,3800651.0,3792837.0,0.0
1579101418567,3829219.0,3834250.0,0.0
1579101418616,3858523.0,3879356.0,0.0
1579101418663,3885868.0,3918886.0,0.0
1579101418706,3911966.0,3950730.0,0.0
1579101418759,3961530.0,3960838.0,0.0
1579101418807,3981348.0,3937700.0,0.0
1579101418859,4048483.0,3956049.0,0.0
1579101418907,4145542.0,4014232.0,0.0
1579101418948,4199596.0,4072074.0,0.0
1579101419004,4295139.0,4134749.0,0.0
1579101419044,4385976.0,4192652.0,0.0
1579101419097,4456708.0,4240164.0,0.0
1579101419151,4518877.0,4278751.0,0.0
1579101419201,4578807.0,4315412.0,0.0
1579101419247,4631117.0,4351579.0,0.0
1579101419288,4756301.0,4390221.0,0.0
1579101419343,4787177.0,4406119.0,0.0
1579101419385,4817174.0,4429614.0,0.0
1579101419438,4846512.0,4445488.0,0.0
1579101419486,4861696.0,4466635.0,0.0
1579101419540,4882360.0,4481351.0,0.0
1579101419587,4889923.0,4490784.0,0.0
1579101419627,4898025.0,4498344.0,0.0
1579101419687,4910338.0,4503732.0,0.0
1579101419724,4916008.0,4514692.0,0.0
1579101419778,4920750.0,4522215.0,0.0
1579101419827,4931013.0,4531803.0,0.0
1579101419878,4939385.0,4540590.0,0.0
1579101419929,4947976.0,4546976.0,0.0
1579101419969,4954158.0,4551361.0,0.0
1579101420033,4964301.0,4555235.0,0.0
1579101420064,4973324.0,4561611.0,0.0
1579101420116,4976144.0,4569144.0,0.0
1579101420166,4987426.0,4578299.0,0.0
1579101420217,4991286.0,4585851.0,0.0
1579101420265,4999549.0,4594056.0,0.0
1579101420315,5008782.0,4603759.0,0.0
1579101420365,5019914.0,4609991.0,0.0
1579101420407,5021015.0,4622268.0,0.0
1579101420459,5028756.0,4629191.0,0.0
1579101420509,5035908.0,4633344.0,0.0
1579101420555,5038439.0,4632634.0,0.0
1579101420604,5044811.0,4632403.0,0.0
1579101420646,5049472.0,4635495.0,0.0
1579101420705,5052552.0,4641450.0,0.0
1579101420747,5056843.0,4644786.0,0.0
1579101420799,5065856.0,4650166.0,0.0
1579101420843,5071847.0,4660551.0,0.0
1579101420896,5076878.0,4668720.0,0.0
1579101420947,5081839.0,4674352.0,0.0
1579101420988,5093642.0,4680962.0,0.0
1579101421042,5098993.0,4687150.0,0.0
1579101421086,5104485.0,4694637.0,0.0
1579101421137,5102063.0,4705678.0,0.0
1579101421189,5107525.0,4695543.0,0.0
1579101421235,5110716.0,4695507.0,0.0
1579101421287,5114248.0,4699713.0,0.0
1579101421335,5120499.0,4706350.0,0.0
1579101421384,5123590.0,4715119.0,0.0
1579101421429,5130851.0,4720707.0,0.0
1579101421479,5136843.0,4724124.0,0.0
1579101421526,5140894.0,4729853.0,0.0
1579101421575,5143785.0,4736948.0,0.0
1579101421626,5152696.0,4743996.0,0.0
1579101421665,5152347.0,4752174.0,0.0
1579101421724,5153538.0,4757160.0,0.0
1579101421770,5157449.0,4755949.0,0.0
1579101421819,5157778.0,4753117.0,0.0
1579101421868,5157018.0,4744740.0,0.0
1579101421914,5160169.0,4747459.0,0.0
1579101421966,5168800.0,4752166.0,0.0
1579101422008,5175531.0,4756963.0,0.0
1579101422064,5178922.0,4764003.0,0.0
1579101422115,5180464.0,4774477.0,0.0
1579101422159,5185775.0,4778199.0,0.0
1579101422212,5194967.0,4781112.0,0.0
1579101422250,5198427.0,4783624.0,0.0
1579101422307,5202348.0,4788996.0,0.0
1579101422348,5205410.0,4797659.0,0.0
1579101422404,5205178.0,4792762.0,0.0
1579101422450,5200497.0,4780190.0,0.0
1579101422501,5200268.0,4775698.0,0.0
1579101422549,5207320.0,4781598.0,0.0
1579101422591,5210752.0,4786072.0,0.0
1579101422644,5217442.0,4790842.0,0.0
1579101422690,5220652.0,4794520.0,0.0
1579101422743,5223444.0,4803039.0,0.0
1579101422791,5231715.0,4810699.0,0.0
1579101422834,5238647.0,4815496.0,0.0
1579101422888,5239358.0,4824204.0,0.0
1579101422929,5247620.0,4832615.0,0.0
1579101422986,5248280.0,4831916.0,0.0
1579101423031,5247130.0,4817316.0,0.0
1579101423083,5242808.0,4809246.0,0.0
1579101423130,5247089.0,4812267.0,0.0
1579101423181,5254101.0,4820006.0,0.0
1579101423229,5256102.0,4828858.0,0.0
1579101423270,5260903.0,4834669.0,0.0
1579101423318,5261943.0,4839277.0,0.0
1579101423370,5267545.0,4847904.0,0.0
1579101423418,5273346.0,4851285.0,0.0
1579101423465,5280568.0,4862531.0,0.0
1579101423514,5288860.0,4870818.0,0.0
1579101423563,5300173.0,4878386.0,0.0
1579101423609,5310096.0,4879597.0,0.0
1579101423666,5279567.0,4838418.0,0.0
1579101423712,5276976.0,4825935.0,0.0
1579101423761,5251860.0,4807092.0,0.0
1579101423811,5245399.0,4806599.0,0.0
1579101423861,5223115.0,4800394.0,0.0
1579101423908,5218622.0,4795946.0,0.0
1579101423951,5139844.0,4823298.0,0.0
1579101424006,5068586.0,4863660.0,0.0
1579101424053,5056833.0,4884825.0,0.0
1579101424101,5062304.0,4907621.0,0.0
1579101424155,5054153.0,4918804.0,0.0
1579101424193,5046361.0,4927851.0,0.0
1579101424248,5051142.0,4937581.0,0.0
1579101424291,5052602.0,4943258.0,0.0
1579101424345,5046211.0,4949447.0,0.0
1579101424392,5058903.0,4950639.0,0.0
1579101424442,5020143.0,4953597.0,0.0
1579101424490,5001429.0,4950521.0,0.0
1579101424539,5009381.0,4944398.0,0.0
1579101424588,5061485.0,4961785.0,0.0
1579101424630,5109077.0,4971991.0,0.0
1579101424685,5184835.0,4980878.0,0.0
1579101424734,5264123.0,4997351.0,0.0
1579101424782,5326589.0,5015054.0,0.0
1579101424831,5352966.0,5036558.0,0.0
1579101424875,5367139.0,5050853.0,0.0
1579101424928,5385094.0,5059238.0,0.0
1579101424971,5386654.0,5068708.0,0.0
1579101425029,5393615.0,5070770.0,0.0
1579101425065,5399537.0,5077012.0,0.0
1579101425117,5403018.0,5080537.0,0.0
1579101425169,5406077.0,5083083.0,0.0
1579101425214,5412209.0,5086321.0,0.0
1579101425269,5415740.0,5090023.0,0.0
1579101425311,5416750.0,5087719.0,0.0
1579101425365,5417831.0,5083038.0,0.0
1579101425415,5418571.0,5076258.0,0.0
1579101425460,5416212.0,5074080.0,0.0
1579101425511,5414060.0,5077684.0,0.0
1579101425551,5422293.0,5076339.0,0.0
1579101425606,5419593.0,5078420.0,0.0
1579101425659,5427734.0,5078509.0,0.0
1579101425706,5433665.0,5081092.0,0.0
1579101425754,5432084.0,5083056.0,0.0
1579101425799,5438106.0,5086356.0,0.0
1579101425846,5438896.0,5087656.0,0.0
1579101425892,5436166.0,5088347.0,0.0
1579101425949,5425223.0,5060610.0,0.0
1579101425994,5419481.0,5024111.0,0.0
1579101426044,5412821.0,5009458.0,0.0
1579101426094,5410499.0,5008668.0,0.0
1579101426134,5406679.0,5009143.0,0.0
1579101426195,5414891.0,5003997.0,0.0
1579101426232,5405828.0,4996742.0,0.0
1579101426289,5405799.0,5001307.0,0.0
1579101426337,5405789.0,5002418.0,0.0
1579101426384,5408879.0,5003889.0,0.0
1579101426433,5410720.0,5009574.0,0.0
1579101426479,5413879.0,5008883.0,0.0
1579101426530,5409710.0,4986447.0,0.0
1579101426571,5390675.0,4950190.0,0.0
1579101426627,5367190.0,4930139.0,0.0
1579101426678,5362899.0,4935824.0,0.0
1579101426723,5366410.0,4942443.0,0.0
1579101426774,5365678.0,4944550.0,0.0
1579101426816,5369380.0,4938595.0,0.0
1579101426871,5364309.0,4942325.0,0.0
1579101426913,5368860.0,4951438.0,0.0
1579101426966,5376792.0,4959741.0,0.0
1579101427017,5378722.0,4967759.0,0.0
1579101427063,5390264.0,4979848.0,0.0
1579101427104,5388865.0,4978169.0,0.0
1579101427159,5370240.0,4919925.0,0.0
1579101427204,5347963.0,4891631.0,0.0
1579101427254,5336982.0,4886188.0,0.0
1579101427301,5337041.0,4895120.0,0.0
1579101427357,5338812.0,4894689.0,0.0
1579101427404,5339292.0,4891686.0,0.0
1579101427453,5333650.0,4884234.0,0.0
1579101427495,5335442.0,4889398.0,0.0
1579101427550,5338652.0,4891794.0,0.0
1579101427595,5336092.0,4901640.0,0.0
1579101427645,5339073.0,4908921.0,0.0
1579101427692,5346923.0,4918076.0,0.0
1579101427736,5338601.0,4887058.0,0.0
1579101427784,5306384.0,4832373.0,0.0
1579101427835,5291930.0,4816904.0,0.0
1579101427883,5285479.0,4827771.0,0.0
1579101427939,5292220.0,4844300.0,0.0
1579101427987,5294401.0,4843843.0,0.0
1579101428037,5295201.0,4844040.0,0.0
1579101428081,5298832.0,4854739.0,0.0
1579101428133,5307804.0,4863544.0,0.0
1579101428175,5314816.0,4880656.0,0.0
1579101428231,5323788.0,4890995.0,0.0
1579101428277,5333430.0,4909100.0,0.0
1579101428322,5340222.0,4919629.0,0.0
1579101428369,5353195.0,4932524.0,0.0
1579101428418,5350605.0,4897954.0,0.0
1579101428467,5323148.0,4842928.0,0.0
1579101428515,5307975.0,4840139.0,0.0
1579101428563,5313036.0,4845411.0,0.0
1579101428616,5315876.0,4858971.0,0.0
1579101428659,5317617.0,4856791.0,0.0
1579101428723,5321669.0,4859016.0,0.0
1579101428758,5324099.0,4865948.0,0.0
1579101428813,5333341.0,4882261.0,0.0
1579101428858,5343254.0,4898482.0,0.0
1579101428910,5355406.0,4914078.0,0.0
1579101428960,5366048.0,4925019.0,0.0
1579101429005,5369309.0,4943670.0,0.0
1579101429056,5380912.0,4953526.0,0.0
1579101429097,5393046.0,4969041.0,0.0
1579101429154,5404257.0,4972753.0,0.0
1579101429203,5402518.0,4941708.0,0.0
1579101429248,5396325.0,4928479.0,0.0
1579101429299,5397057.0,4936909.0,0.0
1579101429346,5406888.0,4949885.0,0.0
1579101429395,5410789.0,4961491.0,0.0
1579101429437,5417671.0,4966018.0,0.0
1579101429493,5421742.0,4977470.0,0.0
1579101429536,5433886.0,4989047.0,0.0
1579101429590,5437267.0,5001218.0,0.0
1579101429638,5450510.0,5011315.0,0.0
1579101429689,5454561.0,5021322.0,0.0
1579101429734,5465083.0,5034703.0,0.0
1579101429776,5471274.0,5042988.0,0.0
1579101429833,5473036.0,5050225.0,0.0
1579101429878,5480716.0,5054951.0,0.0
1579101429928,5486978.0,5043356.0,0.0
1579101429980,5481728.0,5039374.0,0.0
1579101430019,5488729.0,5051597.0,0.0
1579101430075,5496250.0,5065882.0,0.0
1579101430123,5505414.0,5077388.0,0.0
1579101430170,5506273.0,5090096.0,0.0
1579101430221,5513695.0,5088365.0,0.0
1579101430263,5515745.0,5095153.0,0.0
1579101430321,5521137.0,5101279.0,0.0
1579101430360,5516316.0,5103583.0,0.0
1579101430416,5526688.0,5110381.0,0.0
1579101430460,5530839.0,5113986.0,0.0
1579101430511,5528838.0,5121357.0,0.0
1579101430563,5531708.0,5124209.0,0.0
1579101430603,5536741.0,5129492.0,0.0
1579101430656,5541841.0,5133669.0,0.0
1579101430706,5542952.0,5121877.0,0.0
1579101430757,5543602.0,5112380.0,0.0
1579101430799,5540882.0,5110219.0,0.0
1579101430853,5545122.0,5113770.0,0.0
1579101430901,5546333.0,5118461.0,0.0
1579101430942,5547664.0,5119331.0,0.0
1579101430999,5552605.0,5121052.0,0.0
1579101431040,5550953.0,5125455.0,0.0
1579101431097,5554635.0,5130441.0,0.0
1579101431141,5557126.0,5136359.0,0.0
1579101431190,5556376.0,5138234.0,0.0
1579101431242,5560045.0,5141920.0,0.0
1579101431288,5562717.0,5144799.0,0.0
1579101431336,5567829.0,5145364.0,0.0
1579101431381,5567108.0,5153121.0,0.0
1579101431436,5571289.0,5152152.0,0.0
1579101431478,5564157.0,5145085.0,0.0
1579101431532,5561205.0,5135490.0,0.0
1579101431581,5559785.0,5134315.0,0.0
1579101431637,5562906.0,5138045.0,0.0
1579101431679,5569349.0,5143688.0,0.0
1579101431723,5573489.0,5149425.0,0.0
1579101431776,5572079.0,5151766.0,0.0
1579101431820,5563587.0,5185198.0,0.0
1579101431874,5561577.0,5227221.0,0.0
1579101431918,5566988.0,5263209.0,0.0
1579101431962,5572918.0,5272750.0,0.0
1579101432021,5579170.0,5274248.0,0.0
1579101432064,5579320.0,5320200.0,0.0
1579101432115,5582431.0,5321563.0,0.0
1579101432160,5585712.0,5318651.0,0.0
1579101432206,5586803.0,5315197.0,0.0
1579101432259,5592834.0,5312721.0,0.0
1579101432306,5600306.0,5309693.0,0.0
1579101432360,5601186.0,5306272.0,0.0
1579101432401,5611619.0,5317174.0,0.0
1579101432455,5610989.0,5307416.0,0.0
1579101432505,5613409.0,5304285.0,0.0
1579101432552,5618090.0,5304919.0,0.0
1579101432593,5621621.0,5301038.0,0.0
1579101432653,5621491.0,5304118.0,0.0
1579101432697,5624212.0,5298084.0,0.0
1579101432739,5616020.0,5294319.0,0.0
1579101432796,5618490.0,5293332.0,0.0
1579101432841,5624561.0,5296400.0,0.0
1579101432892,5623271.0,5294080.0,0.0
1579101432938,5628172.0,5290752.0,0.0
1579101432986,5627483.0,5290221.0,0.0
1579101433037,5638005.0,5296514.0,0.0
1579101433097,5638465.0,5296690.0,0.0
1579101433134,5641906.0,5296463.0,0.0
1579101433182,5644556.0,5300030.0,0.0
1579101433232,5650509.0,5303318.0,0.0
1579101433278,5649958.0,5307676.0,0.0
1579101433323,5652949.0,5310193.0,0.0
1579101433379,5661452.0,5316528.0,0.0
1579101433419,5656159.0,5317278.0,0.0
1579101433475,5656970.0,5319109.0,0.0
1579101433525,5655840.0,5319659.0,0.0
1579101433570,5666352.0,5323239.0,0.0
1579101433617,5661370.0,5323550.0,0.0
1579101433666,5659751.0,5319826.0,0.0
1579101433718,5662461.0,5322302.0,0.0
1579101433760,5663772.0,5317788.0,0.0
1579101433815,5666171.0,5320502.0,0.0
1579101433863,5668662.0,5319442.0,0.0
1579101433911,5666421.0,5321419.0,0.0
1579101433959,5671633.0,5332622.0,0.0
1579101434002,5679085.0,5347518.0,0.0
1579101434051,5682627.0,5355121.0,0.0
1579101434105,5682076.0,5350887.0,0.0
1579101434155,5680956.0,5338717.0,0.0
1579101434201,5684156.0,5322853.0,0.0
1579101434252,5671444.0,5311244.0,0.0
1579101434297,5671482.0,5312097.0,0.0
1579101434349,5688358.0,5348392.0,0.0
1579101434399,5678845.0,5332309.0,0.0
1579101434446,5672484.0,5339788.0,0.0
1579101434494,5665521.0,5321563.0,0.0
1579101434542,5665751.0,5310610.0,0.0
1579101434590,5661811.0,5306999.0,0.0
1579101434637,5666572.0,5314501.0,0.0
1579101434685,5673474.0,5333038.0,0.0
1579101434737,5691729.0,5355308.0,0.0
1579101434786,5685126.0,5356371.0,0.0
1579101434834,5699490.0,5357234.0,0.0
1579101434882,5706902.0,5363370.0,0.0
1579101434929,5716874.0,5373242.0,0.0
1579101434978,5709903.0,5371715.0,0.0
1579101435021,5707292.0,5373878.0,0.0
1579101435077,5708942.0,5373056.0,0.0
1579101435124,5703781.0,5372348.0,0.0
1579101435174,5704661.0,5357992.0,0.0
1579101435219,5698679.0,5334619.0,0.0
1579101435270,5699510.0,5325850.0,0.0
1579101435317,5690648.0,5313907.0,0.0
1579101435363,5689177.0,5307229.0,0.0
1579101435417,5666992.0,5288212.0,0.0
1579101435463,5646598.0,5266887.0,0.0
1579101435514,5613700.0,5259700.0,0.0
1579101435562,5604217.0,5253853.0,0.0
1579101435609,5603718.0,5254156.0,0.0
1579101435658,5605997.0,5258107.0,0.0
1579101435704,5608248.0,5260824.0,0.0
1579101435757,5605237.0,5250149.0,0.0
1579101435808,5547873.0,5206741.0,0.0
1579101435854,5505722.0,5164797.0,0.0
1579101435902,5481366.0,5149194.0,0.0
1579101435944,5458161.0,5142202.0,0.0
1579101435998,5444498.0,5132363.0,0.0
1579101436046,5415812.0,5121086.0,0.0
1579101436098,5396187.0,5106866.0,0.0
1579101436147,5388304.0,5113545.0,0.0
1579101436194,5385463.0,5120950.0,0.0
1579101436241,5385744.0,5123905.0,0.0
1579101436284,5386284.0,5128368.0,0.0
1579101436334,5385864.0,5131749.0,0.0
1579101436381,5351604.0,5088442.0,0.0
1579101436438,5290359.0,5034817.0,0.0
1579101436486,5261872.0,5016051.0,0.0
1579101436533,5250931.0,5015665.0,0.0
1579101436583,5256892.0,5021003.0,0.0
1579101436626,5248060.0,5018662.0,0.0
1579101436675,5240068.0,5009820.0,0.0
1579101436721,5238448.0,5011734.0,0.0
1579101436771,5241309.0,5015854.0,0.0
1579101436820,5246910.0,5027504.0,0.0
1579101436868,5260283.0,5038967.0,0.0
1579101436918,5265934.0,5044888.0,0.0
1579101436966,5252041.0,5014438.0,0.0
1579101437015,5191296.0,4958037.0,0.0
1579101437063,5161528.0,4934621.0,0.0
1579101437112,5152757.0,4937565.0,0.0
1579101437160,5158599.0,4943026.0,0.0
1579101437208,5154677.0,4938812.0,0.0
1579101437257,5140224.0,4925966.0,0.0
1579101437305,5132621.0,4921888.0,0.0
1579101437355,5138482.0,4930448.0,0.0
1579101437404,5149907.0,4937252.0,0.0
1579101437451,5157528.0,4947364.0,0.0
1579101437499,5173881.0,4960585.0,0.0
1579101437546,5155947.0,4931957.0,0.0
1579101437604,5091691.0,4868648.0,0.0
1579101437644,5058813.0,4844617.0,0.0
1579101437700,5059854.0,4848404.0,0.0
1579101437744,5066936.0,4858057.0,0.0
1579101437794,5073456.0,4854792.0,0.0
1579101437841,5060295.0,4848477.0,0.0
1579101437887,5062995.0,4851151.0,0.0
1579101437945,5066735.0,4857027.0,0.0
1579101437987,5078078.0,4868055.0,0.0
1579101438040,5081350.0,4872880.0,0.0
1579101438088,5088981.0,4880361.0,0.0
1579101438135,5052743.0,4833424.0,0.0
1579101438185,4964091.0,4755437.0,0.0
1579101438226,4925100.0,4722470.0,0.0
1579101438282,4916929.0,4718715.0,0.0
1579101438325,4917520.0,4723500.0,0.0
1579101438378,4906827.0,4711631.0,0.0
1579101438427,4885912.0,4697317.0,0.0
1579101438475,4879059.0,4687445.0,0.0
1579101438524,4877649.0,4691545.0,0.0
1579101438566,4875749.0,4694779.0,0.0
1579101438623,4874199.0,4695300.0,0.0
1579101438667,4874959.0,4701769.0,0.0
1579101438720,4876570.0,4693406.0,0.0
1579101438767,4801231.0,4623876.0,0.0
1579101438813,4754730.0,4579458.0,0.0
1579101438866,4739976.0,4570012.0,0.0
1579101438906,4751028.0,4583440.0,0.0
1579101438963,4750218.0,4586083.0,0.0
1579101439009,4733795.0,4567139.0,0.0
1579101439058,4718140.0,4557756.0,0.0
1579101439108,4717860.0,4559130.0,0.0
1579101439149,4727673.0,4569096.0,0.0
1579101439205,4731213.0,4576908.0,0.0
1579101439245,4751888.0,4595029.0,0.0
1579101439302,4769824.0,4616728.0,0.0
1579101439352,4781576.0,4633248.0,0.0
1579101439400,4760380.0,4602187.0,0.0
1579101439447,4679541.0,4531346.0,0.0
1579101439492,4644662.0,4501146.0,0.0
1579101439544,4633439.0,4496839.0,0.0
1579101439587,4638201.0,4504766.0,0.0
1579101439643,4630879.0,4501323.0,0.0
1579101439689,4606943.0,4482818.0,0.0
1579101439740,4598152.0,4477064.0,0.0
1579101439787,4593731.0,4475536.0,0.0
1579101439828,4596280.0,4482421.0,0.0
1579101439885,4602542.0,4486312.0,0.0
1579101439926,4599432.0,4488246.0,0.0
1579101439982,4599202.0,4494187.0,0.0
1579101440030,4574155.0,4464343.0,0.0
1579101440077,4486875.0,4381476.0,0.0
1579101440128,4445244.0,4340303.0,0.0
1579101440168,4430811.0,4334145.0,0.0
1579101440226,4425880.0,4334331.0,0.0
1579101440267,4413986.0,4325540.0,0.0
1579101440322,4384660.0,4298536.0,0.0
1579101440369,4363064.0,4288394.0,0.0
1579101440417,4362983.0,4289558.0,0.0
1579101440468,4369875.0,4303508.0,0.0
1579101440509,4375397.0,4314951.0,0.0
1579101440564,4387049.0,4328027.0,0.0
1579101440609,4393181.0,4338710.0,0.0
1579101440662,4356973.0,4295873.0,0.0
1579101440708,4286835.0,4227642.0,0.0
1579101440757,4261609.0,4203666.0,0.0
1579101440808,4265890.0,4210468.0,0.0
1579101440857,4286705.0,4229786.0,0.0
1579101440905,4285446.0,4228193.0,0.0
1579101440953,4275573.0,4218780.0,0.0
1579101441004,4253907.0,4202199.0,0.0
1579101441050,4250636.0,4205381.0,0.0
1579101441100,4249906.0,4209625.0,0.0
1579101441147,4257188.0,4210625.0,0.0
1579101441189,4269411.0,4223211.0,0.0
1579101441245,4303668.0,4245483.0,0.0
1579101441290,4382539.0,4314847.0,0.0
1579101441336,4460609.0,4355344.0,0.0
1579101441384,4535826.0,4398203.0,0.0
1579101441441,4648003.0,4487842.0,0.0
1579101441488,4747247.0,4556123.0,0.0
1579101441529,4819815.0,4612390.0,0.0
1579101441585,4877850.0,4649258.0,0.0
1579101441630,4924580.0,4675649.0,0.0
1579101441682,4959729.0,4694686.0,0.0
1579101441730,4984254.0,4707149.0,0.0
1579101441778,5019363.0,4719973.0,0.0
1579101441828,5037539.0,4731365.0,0.0
1579101441897,5057523.0,4741050.0,0.0
1579101441943,5080748.0,4759909.0,0.0
1579101441977,5102805.0,4770425.0,0.0
1579101442027,5118457.0,4780153.0,0.0
1579101442073,5135713.0,4792927.0,0.0
1579101442120,5141233.0,4801009.0,0.0
1579101442168,5155137.0,4813305.0,0.0
1579101442209,5163698.0,4824011.0,0.0
1579101442265,5170021.0,4842079.0,0.0
1579101442311,5168881.0,4852845.0,0.0
1579101442372,5149935.0,4839415.0,0.0
1579101442409,5126731.0,4813379.0,0.0
1579101442458,5047312.0,4716968.0,0.0
1579101442508,4928241.0,4615314.0,0.0
1579101442549,4754060.0,4513733.0,0.0
1579101442605,4612465.0,4430772.0,0.0
1579101442653,4501217.0,4360275.0,0.0
1579101442704,4341189.0,4193877.0,0.0
1579101442751,4108901.0,3953462.0,0.0
1579101442796,3900952.0,3771948.0,0.0
1579101442840,3765378.0,3658384.0,0.0
1579101442897,3662724.0,3570712.0,0.0
1579101442948,3551485.0,3470774.0,0.0
1579101442995,3447251.0,3379785.0,0.0
1579101443042,3367710.0,3311532.0,0.0
1579101443083,3311926.0,3263973.0,0.0
1579101443135,3274558.0,3232233.0,0.0
1579101443188,3242810.0,3170832.0,0.0
1579101443230,3222235.0,3128066.0,0.0
1579101443287,3192279.0,3098778.0,0.0
1579101443333,3118756.0,3078593.0,0.0
1579101443377,3074722.0,3040568.0,0.0
1579101443432,2990760.0,2950320.0,0.0
1579101443478,2930929.0,2891906.0,0.0
1579101443528,2910661.0,2876393.0,0.0
1579101443573,2913558.0,2883827.0,0.0
1579101443625,2907493.0,2884010.0,0.0
1579101443674,2885885.0,2863490.0,0.0
1579101443723,2876216.0,2856764.0,0.0
1579101443770,2882275.0,2864812.0,0.0
1579101443814,2896709.0,2881448.0,0.0
1579101443867,2913773.0,2896188.0,0.0
1579101443913,2924450.0,2908296.0,0.0
1579101443960,2940674.0,2921965.0,0.0
1579101444014,2957572.0,2940765.0,0.0
1579101444061,2962779.0,2940491.0,0.0
1579101444112,2901849.0,2868047.0,0.0
1579101444155,2848306.0,2813312.0,0.0
1579101444208,2839074.0,2807377.0,0.0
1579101444254,2852282.0,2822139.0,0.0
1579101444306,2867604.0,2842400.0,0.0
1579101444346,2866212.0,2843465.0,0.0
1579101444401,2862616.0,2839547.0,0.0
1579101444452,2863894.0,2845468.0,0.0
1579101444494,2876944.0,2857577.0,0.0
1579101444548,2889717.0,2871037.0,0.0
1579101444595,2902629.0,2884729.0,0.0
1579101444644,2909856.0,2891790.0,0.0
1579101444696,2920435.0,2898681.0,0.0
1579101444741,2908586.0,2885020.0,0.0
1579101444791,2832036.0,2802779.0,0.0
1579101444833,2772849.0,2746567.0,0.0
1579101444889,2760068.0,2742162.0,0.0
1579101444938,2772291.0,2755049.0,0.0
1579101444984,2786066.0,2768008.0,0.0
1579101445034,2780582.0,2761705.0,0.0
1579101445077,2769842.0,2751569.0,0.0
1579101445131,2775235.0,2751156.0,0.0
1579101445173,2781966.0,2755303.0,0.0
1579101445229,2789914.0,2763686.0,0.0
1579101445275,2795253.0,2778449.0,0.0
1579101445324,2806779.0,2797868.0,0.0
1579101445374,2821573.0,2813021.0,0.0
1579101445425,2779749.0,2762989.0,0.0
1579101445471,2709991.0,2691900.0,0.0
1579101445513,2681467.0,2669596.0,0.0
1579101445568,2691557.0,2682132.0,0.0
1579101445615,2708337.0,2702425.0,0.0
1579101445667,2712346.0,2713195.0,0.0
1579101445714,2716737.0,2717019.0,0.0
1579101445756,2722718.0,2726068.0,0.0
1579101445803,2738023.0,2743432.0,0.0
1579101445856,2758523.0,2765391.0,0.0
1579101445901,2778028.0,2788146.0,0.0
1579101445955,2800286.0,2809411.0,0.0
1579101446001,2819608.0,2827156.0,0.0
1579101446047,2819990.0,2835265.0,0.0
1579101446104,2756656.0,2760870.0,0.0
1579101446152,2701454.0,2703229.0,0.0
1579101446196,2691212.0,2695763.0,0.0
1579101446250,2709875.0,2715237.0,0.0
1579101446297,2730008.0,2734789.0,0.0
1579101446340,2735179.0,2734742.0,0.0
1579101446395,2732448.0,2729831.0,0.0
1579101446437,2741979.0,2737091.0,0.0
1579101446494,2757367.0,2753284.0,0.0
1579101446535,2779893.0,2775204.0,0.0
1579101446589,2798809.0,2796194.0,0.0
1579101446636,2818153.0,2809892.0,0.0
1579101446684,2820203.0,2810819.0,0.0
1579101446735,2758737.0,2748143.0,0.0
1579101446776,2716109.0,2705745.0,0.0
1579101446833,2724945.0,2707466.0,0.0
1579101446879,2748143.0,2732974.0,0.0
1579101446931,2767953.0,2751073.0,0.0
1579101446979,2763227.0,2748318.0,0.0
1579101447024,2752778.0,2737885.0,0.0
1579101447076,2746361.0,2738222.0,0.0
1579101447116,2755998.0,2747501.0,0.0
1579101447173,2764350.0,2760848.0,0.0
1579101447217,2777821.0,2780109.0,0.0
1579101447270,2790495.0,2797876.0,0.0
1579101447319,2764962.0,2773231.0,0.0
1579101447366,2691151.0,2696903.0,0.0
1579101447413,2657060.0,2661266.0,0.0
1579101447458,2656944.0,2664892.0,0.0
1579101447513,2667172.0,2676878.0,0.0
1579101447558,2673978.0,2683587.0,0.0
1579101447609,2673328.0,2683922.0,0.0
1579101447660,2675234.0,2684818.0,0.0
1579101447704,2686486.0,2695915.0,0.0
1579101447756,2708461.0,2707811.0,0.0
1579101447797,2735254.0,2724455.0,0.0
1579101447852,2768558.0,2742987.0,0.0
1579101447904,2822292.0,2786907.0,0.0
1579101447948,2835173.0,2794526.0,0.0
1579101447998,2841230.0,2772559.0,0.0
1579101448044,2875566.0,2785974.0,0.0
1579101448089,2873768.0,2793272.0,0.0
1579101448139,2918593.0,2816753.0,0.0
1579101448192,2944530.0,2817495.0,0.0
1579101448240,2957127.0,2816961.0,0.0
1579101448288,2977007.0,2832855.0,0.0
1579101448332,3005078.0,2859412.0,0.0
1579101448380,3045349.0,2909933.0,0.0
1579101448438,3081293.0,2962549.0,0.0
1579101448480,3075586.0,2987670.0,0.0
1579101448532,3049764.0,2999647.0,0.0
1579101448582,3006630.0,2980402.0,0.0
1579101448622,2911471.0,2892493.0,0.0
1579101448680,2862563.0,2854133.0,0.0
1579101448719,2882251.0,2861891.0,0.0
1579101448776,2987219.0,2948453.0,0.0
1579101448819,3084978.0,3030351.0,0.0
1579101448876,3121058.0,3061749.0,0.0
1579101448923,3144909.0,3120989.0,0.0
1579101448966,3222162.0,3178670.0,0.0
1579101449019,3358100.0,3276271.0,0.0
1579101449059,3418985.0,3318814.0,0.0
1579101449109,3456640.0,3333156.0,0.0
1579101449160,3558410.0,3388198.0,0.0
1579101449211,3609817.0,3419282.0,0.0
1579101449261,3558095.0,3384602.0,0.0
1579101449308,3505716.0,3362161.0,0.0
1579101449360,3508776.0,3378255.0,0.0
1579101449399,3533756.0,3405966.0,0.0
1579101449456,3574930.0,3441357.0,0.0
1579101449499,3575710.0,3460449.0,0.0
1579101449554,3569562.0,3455524.0,0.0
1579101449601,3533474.0,3433380.0,0.0
1579101449647,3526184.0,3426909.0,0.0
1579101449701,3543929.0,3428874.0,0.0
1579101449740,3568361.0,3433281.0,0.0
1579101449796,3579536.0,3439622.0,0.0
1579101449839,3575635.0,3441097.0,0.0
1579101449896,3501531.0,3379102.0,0.0
1579101449947,3388871.0,3285097.0,0.0
1579101449982,3301061.0,3205542.0,0.0
1579101450039,3244428.0,3144978.0,0.0
1579101450081,3187894.0,3097226.0,0.0
1579101450136,3132326.0,3050290.0,0.0
1579101450178,3087435.0,3015397.0,0.0
1579101450233,3062483.0,3007244.0,0.0
1579101450281,3058811.0,3003028.0,0.0
1579101450328,3062377.0,3005094.0,0.0
1579101450378,3071632.0,3012077.0,0.0
1579101450427,3079547.0,3024759.0,0.0
1579101450477,3089286.0,3039788.0,0.0
1579101450517,3097943.0,3048387.0,0.0
1579101450565,3056792.0,3004604.0,0.0
1579101450622,2991770.0,2934983.0,0.0
1579101450667,2965548.0,2903982.0,0.0
1579101450721,2967308.0,2898314.0,0.0
1579101450761,2977940.0,2901290.0,0.0
1579101450816,2967484.0,2891316.0,0.0
1579101450860,2948545.0,2873732.0,0.0
1579101450910,2936313.0,2855663.0,0.0
1579101450958,2938120.0,2858579.0,0.0
1579101451004,2958496.0,2876974.0,0.0
1579101451053,2984748.0,2897672.0,0.0
1579101451102,3008260.0,2912617.0,0.0
1579101451149,3029670.0,2922630.0,0.0
1579101451206,3033815.0,2901373.0,0.0
1579101451253,2979254.0,2827524.0,0.0
1579101451298,2951712.0,2791131.0,0.0
1579101451342,2954061.0,2792919.0,0.0
1579101451396,2971767.0,2818399.0,0.0
1579101451442,2990927.0,2849538.0,0.0
1579101451491,2992940.0,2861752.0,0.0
1579101451541,2984931.0,2865493.0,0.0
1579101451588,2983354.0,2872484.0,0.0
1579101451634,2990890.0,2888196.0,0.0
1579101451688,2991837.0,2903753.0,0.0
1579101451740,2999005.0,2924054.0,0.0
1579101451781,3019710.0,2941584.0,0.0
1579101451835,3056172.0,2964646.0,0.0
1579101451886,3042419.0,2928635.0,0.0
1579101451931,2975071.0,2855304.0,0.0
1579101451983,2933491.0,2811759.0,0.0
1579101452028,2929361.0,2807507.0,0.0
1579101452074,2972227.0,2836006.0,0.0
1579101452120,3038388.0,2873409.0,0.0
1579101452178,3097163.0,2905169.0,0.0
1579101452225,3162823.0,2942281.0,0.0
1579101452275,3235134.0,2981910.0,0.0
1579101452321,3319885.0,3032285.0,0.0
1579101452363,3457566.0,3126383.0,0.0
1579101452417,3578701.0,3216700.0,0.0
1579101452462,3715167.0,3351621.0,0.0
1579101452517,3836869.0,3471067.0,0.0
1579101452564,3957867.0,3552627.0,0.0
1579101452613,4065212.0,3630392.0,0.0
1579101452662,4154605.0,3706829.0,0.0
1579101452708,4230558.0,3771463.0,0.0
1579101452758,4269423.0,3819292.0,0.0
1579101452801,4290688.0,3847836.0,0.0
1579101452855,4315806.0,3896614.0,0.0
1579101452908,4334791.0,3946737.0,0.0
1579101452952,4355319.0,3978924.0,0.0
1579101453002,4372638.0,4005489.0,0.0
1579101453048,4382252.0,4026715.0,0.0
1579101453097,4407401.0,4062778.0,0.0
1579101453144,4441837.0,4070964.0,0.0
1579101453197,4467852.0,4075751.0,0.0
1579101453248,4498470.0,4104687.0,0.0
1579101453293,4491654.0,4104909.0,0.0
1579101453342,4458359.0,4123589.0,0.0
1579101453390,4462321.0,4144394.0,0.0
1579101453439,4477748.0,4148807.0,0.0
1579101453483,4490331.0,4169413.0,0.0
1579101453537,4512713.0,4179447.0,0.0
1579101453585,4529861.0,4179441.0,0.0
1579101453632,4588029.0,4175739.0,0.0
1579101453681,4565743.0,4174370.0,0.0
1579101453727,4546088.0,4164289.0,0.0
1579101453780,4539046.0,4136033.0,0.0
1579101453823,4557092.0,4110187.0,0.0
1579101453878,4600133.0,4173452.0,0.0
1579101453926,4624757.0,4231484.0,0.0
1579101453966,4652314.0,4254669.0,0.0
1579101454020,4672568.0,4265553.0,0.0
1579101454063,4675200.0,4253009.0,0.0
1579101454119,4698595.0,4271244.0,0.0
1579101454164,4719841.0,4291673.0,0.0
1579101454217,4733754.0,4309152.0,0.0
1579101454265,4772073.0,4358404.0,0.0
1579101454311,4807893.0,4403492.0,0.0
1579101454361,4809683.0,4415953.0,0.0
1579101454403,4853014.0,4452591.0,0.0
1579101454460,4877490.0,4458725.0,0.0
1579101454507,4879110.0,4456523.0,0.0
1579101454556,4872437.0,4447963.0,0.0
1579101454604,4862346.0,4442877.0,0.0
1579101454651,4854324.0,4441914.0,0.0
1579101454700,4878669.0,4457020.0,0.0
1579101454745,4917839.0,4473465.0,0.0
1579101454799,4967812.0,4528231.0,0.0
1579101454841,4970792.0,4562446.0,0.0
1579101454894,4985045.0,4581743.0,0.0
1579101454946,4979354.0,4630259.0,0.0
1579101454985,4952317.0,4590279.0,0.0
1579101455042,4939954.0,4569055.0,0.0
1579101455084,4948786.0,4571515.0,0.0
1579101455139,4958149.0,4585738.0,0.0
1579101455185,4969762.0,4595890.0,0.0
1579101455235,4994927.0,4631098.0,0.0
1579101455285,5015033.0,4671408.0,0.0
1579101455325,5030117.0,4684222.0,0.0
1579101455379,5016874.0,4672219.0,0.0
1579101455432,4998859.0,4662727.0,0.0
1579101455481,4949128.0,4627809.0,0.0
1579101455528,4875520.0,4554770.0,0.0
1579101455573,4802312.0,4491095.0,0.0
1579101455624,4762191.0,4465048.0,0.0
1579101455671,4751038.0,4472090.0,0.0
1579101455720,4797689.0,4521492.0,0.0
1579101455764,4799500.0,4549849.0,0.0
1579101455819,4772583.0,4532014.0,0.0
1579101455869,4725932.0,4489124.0,0.0
1579101455911,4682351.0,4470540.0,0.0
1579101455967,4684062.0,4476881.0,0.0
1579101456004,4659947.0,4434312.0,0.0
1579101456063,4596240.0,4343119.0,0.0
1579101456109,4566784.0,4279184.0,0.0
1579101456158,4579547.0,4288635.0,0.0
1579101456207,4583978.0,4290966.0,0.0
1579101456252,4569774.0,4283105.0,0.0
1579101456305,4481332.0,4255248.0,0.0
1579101456345,4427700.0,4241235.0,0.0
1579101456400,4429511.0,4244065.0,0.0
1579101456449,4392681.0,4254768.0,0.0
1579101456492,4373477.0,4267751.0,0.0
1579101456538,4359013.0,4268541.0,0.0
1579101456591,4384249.0,4224300.0,0.0
1579101456637,4328746.0,4140759.0,0.0
1579101456688,4265469.0,4058640.0,0.0
1579101456736,4222579.0,4015148.0,0.0
1579101456789,4203414.0,4004096.0,0.0
1579101456833,4215808.0,4004756.0,0.0
1579101456886,4216687.0,3998025.0,0.0
1579101456935,4221649.0,3977299.0,0.0
1579101456987,4251836.0,3987163.0,0.0
1579101457025,4313581.0,4063041.0,0.0
1579101457074,4400233.0,4129436.0,0.0
1579101457125,4425039.0,4172596.0,0.0
1579101457169,4455517.0,4199273.0,0.0
1579101457219,4385899.0,4155763.0,0.0
1579101457270,4358682.0,4115094.0,0.0
1579101457324,4354661.0,4108312.0,0.0
1579101457369,4367116.0,4122396.0,0.0
1579101457414,4438962.0,4168267.0,0.0
1579101457469,4494417.0,4256357.0,0.0
1579101457518,4531545.0,4305210.0,0.0
1579101457561,4557531.0,4320603.0,0.0
1579101457606,4555751.0,4305601.0,0.0
1579101457658,4568894.0,4314392.0,0.0
1579101457708,4589389.0,4324664.0,0.0
1579101457755,4599621.0,4316793.0,0.0
1579101457803,4616915.0,4329325.0,0.0
1579101457855,4663907.0,4391710.0,0.0
1579101457900,4727243.0,4447904.0,0.0
1579101457949,4779235.0,4490274.0,0.0
1579101457999,4807363.0,4515380.0,0.0
1579101458048,4810142.0,4505539.0,0.0
1579101458095,4803852.0,4503868.0,0.0
1579101458143,4803281.0,4505648.0,0.0
1579101458192,4814963.0,4519911.0,0.0
1579101458240,4855885.0,4538286.0,0.0
1579101458289,4895333.0,4588519.0,0.0
1579101458338,4909287.0,4613154.0,0.0
1579101458390,4913267.0,4638650.0,0.0
1579101458434,4916768.0,4631700.0,0.0
1579101458482,4901666.0,4616665.0,0.0
1579101458532,4911447.0,4621657.0,0.0
1579101458578,4929152.0,4633839.0,0.0
1579101458627,4962651.0,4662056.0,0.0
1579101458685,5004930.0,4687292.0,0.0
1579101458729,5027425.0,4708398.0,0.0
1579101458780,5060764.0,4725371.0,0.0
1579101458828,5091592.0,4743976.0,0.0
1579101458871,5092571.0,4734925.0,0.0
1579101458923,5073347.0,4726893.0,0.0
1579101458966,5067717.0,4725603.0,0.0
1579101459024,5062786.0,4724471.0,0.0
1579101459070,5091482.0,4745177.0,0.0
1579101459114,5144675.0,4765041.0,0.0
1579101459169,5128870.0,4793490.0,0.0
1579101459210,5162890.0,4810542.0,0.0
1579101459266,5182754.0,4826656.0,0.0
1579101459308,5179333.0,4817495.0,0.0
1579101459361,5163670.0,4809083.0,0.0
1579101459411,5163198.0,4802401.0,0.0
1579101459462,5173081.0,4791198.0,0.0
1579101459508,5184274.0,4800642.0,0.0
1579101459550,5184314.0,4821625.0,0.0
1579101459607,5221863.0,4837670.0,0.0
1579101459649,5245590.0,4857455.0,0.0
1579101459704,5249160.0,4859745.0,0.0
1579101459751,5244338.0,4856254.0,0.0
1579101459799,5244708.0,4859054.0,0.0
1579101459840,5229716.0,4857774.0,0.0
1579101459898,5245210.0,4875048.0,0.0
1579101459948,5262433.0,4880981.0,0.0
1579101459994,5235346.0,4902556.0,0.0
1579101460044,5240807.0,4923901.0,0.0
1579101460091,5270235.0,4938114.0,0.0
1579101460132,5271066.0,4927162.0,0.0
1579101460189,5270375.0,4917178.0,0.0
1579101460229,5273705.0,4910128.0,0.0
1579101460286,5277917.0,4916979.0,0.0
1579101460331,5282409.0,4921890.0,0.0
1579101460379,5285760.0,4921041.0,0.0
1579101460429,5299833.0,4949898.0,0.0
1579101460480,5334412.0,4975104.0,0.0
1579101460529,5365028.0,4982105.0,0.0
1579101460569,5360908.0,4972253.0,0.0
1579101460626,5354985.0,4970823.0,0.0
1579101460671,5341163.0,4966771.0,0.0
1579101460724,5332971.0,4963709.0,0.0
1579101460772,5331460.0,4974474.0,0.0
1579101460821,5325279.0,4986817.0,0.0
1579101460868,5294000.0,4995067.0,0.0
1579101460910,5288799.0,4993578.0,0.0
1579101460968,5280727.0,4984996.0,0.0
1579101461010,5255592.0,4959620.0,0.0
1579101461064,5248239.0,4932733.0,0.0
1579101461112,5247839.0,4911028.0,0.0
1579101461158,5258463.0,4906806.0,0.0
1579101461204,5279947.0,4937025.0,0.0
1579101461250,5310065.0,4961430.0,0.0
1579101461307,5339241.0,4984116.0,0.0
1579101461355,5365248.0,5002219.0,0.0
1579101461402,5371170.0,4997538.0,0.0
1579101461453,5342943.0,4984675.0,0.0
1579101461493,5335730.0,4990348.0,0.0
1579101461548,5302103.0,4972172.0,0.0
1579101461591,5305764.0,4975573.0,0.0
1579101461647,5333741.0,4974354.0,0.0
1579101461694,5341462.0,5000059.0,0.0
1579101461742,5345783.0,5025416.0,0.0
1579101461791,5349174.0,5027787.0,0.0
1579101461833,5346765.0,5016502.0,0.0
1579101461886,5333632.0,5004560.0,0.0
1579101461933,5329340.0,5000269.0,0.0
1579101461984,5341033.0,5002010.0,0.0
1579101462034,5362328.0,5016403.0,0.0
1579101462082,5390004.0,5029526.0,0.0
1579101462127,5397727.0,5030706.0,0.0
1579101462173,5406839.0,5029506.0,0.0
1579101462231,5408650.0,5027126.0,0.0
1579101462271,5396075.0,5004771.0,0.0
1579101462327,5360617.0,4989907.0,0.0
1579101462371,5339952.0,4984265.0,0.0
1579101462422,5322918.0,4984055.0,0.0
1579101462471,5329889.0,4987505.0,0.0
1579101462522,5338422.0,4994048.0,0.0
1579101462561,5354786.0,5028896.0,0.0
1579101462612,5348864.0,4997178.0,0.0
1579101462666,5298182.0,4946106.0,0.0
1579101462714,5243969.0,4904706.0,0.0
1579101462760,5198427.0,4863605.0,0.0
1579101462810,5182453.0,4853814.0,0.0
1579101462855,5178272.0,4853774.0,0.0
1579101462907,5190666.0,4855864.0,0.0
1579101462957,5234996.0,4908056.0,0.0
1579101463004,5260582.0,4939906.0,0.0
1579101463054,5310555.0,4969782.0,0.0
1579101463096,5312485.0,4963319.0,0.0
1579101463151,5304874.0,4960420.0,0.0
1579101463194,5280887.0,4945926.0,0.0
1579101463248,5279697.0,4951226.0,0.0
1579101463296,5288169.0,4958128.0,0.0
1579101463343,5319497.0,4976814.0,0.0
1579101463393,5366479.0,5006311.0,0.0
1579101463435,5359926.0,5040828.0,0.0
1579101463491,5386654.0,5059374.0,0.0
1579101463533,5395096.0,5051392.0,0.0
1579101463587,5392855.0,5034467.0,0.0
1579101463635,5391004.0,5028116.0,0.0
1579101463684,5393956.0,5014192.0,0.0
1579101463734,5409509.0,5018873.0,0.0
1579101463775,5418122.0,5042840.0,0.0
1579101463821,5412260.0,5048041.0,0.0
1579101463870,5446999.0,5078438.0,0.0
1579101463919,5472674.0,5088711.0,0.0
1579101463967,5469655.0,5077658.0,0.0
1579101464016,5439697.0,5058273.0,0.0
1579101464064,5441336.0,5065986.0,0.0
1579101464115,5420893.0,5052682.0,0.0
1579101464161,5424723.0,5034388.0,0.0
1579101464214,5459921.0,5036468.0,0.0
1579101464259,5459882.0,5048472.0,0.0
1579101464316,5442718.0,5032567.0,0.0
1579101464360,5436867.0,5030377.0,0.0
1579101464412,5402528.0,4995378.0,0.0
1579101464456,5371489.0,4973023.0,0.0
1579101464510,5358797.0,4959890.0,0.0
1579101464556,5363177.0,4967332.0,0.0
1579101464606,5376932.0,4985835.0,0.0
1579101464656,5396547.0,5002971.0,0.0
1579101464698,5404137.0,5027976.0,0.0
1579101464752,5408828.0,5016423.0,0.0
1579101464796,5397727.0,5001079.0,0.0
1579101464849,5376611.0,4991128.0,0.0
1579101464902,5313566.0,4977623.0,0.0
1579101464945,5282088.0,4987895.0,0.0
1579101464997,5291520.0,4997770.0,0.0
1579101465039,5320167.0,5009172.0,0.0
1579101465093,5360627.0,5024386.0,0.0
1579101465138,5359666.0,5051702.0,0.0
1579101465191,5341722.0,5003560.0,0.0
1579101465237,5264195.0,4936094.0,0.0
1579101465288,5191757.0,4878350.0,0.0
1579101465336,5166480.0,4854934.0,0.0
1579101465384,5156518.0,4845151.0,0.0
1579101465430,5173692.0,4871478.0,0.0
1579101465476,5211851.0,4912507.0,0.0
1579101465531,5247390.0,4948868.0,0.0
1579101465576,5300093.0,4987786.0,0.0
1579101465626,5351696.0,5020824.0,0.0
1579101465677,5366198.0,5014103.0,0.0
1579101465717,5379342.0,5011502.0,0.0
1579101465774,5399897.0,5014773.0,0.0
1579101465817,5417831.0,5019554.0,0.0
1579101465871,5439057.0,5035479.0,0.0
1579101465920,5453990.0,5047411.0,0.0
1579101465959,5431574.0,5052271.0,0.0
1579101466017,5447519.0,5089302.0,0.0
1579101466059,5462353.0,5103764.0,0.0
1579101466113,5471264.0,5094682.0,0.0
1579101466161,5466993.0,5081709.0,0.0
1579101466207,5462052.0,5074308.0,0.0
1579101466256,5466682.0,5065524.0,0.0
1579101466301,5467304.0,5076888.0,0.0
1579101466355,5477386.0,5098073.0,0.0
1579101466410,5487339.0,5103305.0,0.0
1579101466452,5499412.0,5111486.0,0.0
1579101466502,5503823.0,5106005.0,0.0
1579101466547,5483706.0,5079828.0,0.0
1579101466597,5455410.0,5071766.0,0.0
1579101466640,5438157.0,5064685.0,0.0
1579101466689,5440857.0,5066475.0,0.0
1579101466738,5455780.0,5059265.0,0.0
1579101466794,5456721.0,5061855.0,0.0
1579101466841,5452779.0,5063614.0,0.0
1579101466895,5431015.0,5037828.0,0.0
1579101466938,5377672.0,5000909.0,0.0
1579101466982,5344193.0,4977054.0,0.0
1579101467037,5322158.0,4960109.0,0.0
1579101467079,5314486.0,4959010.0,0.0
1579101467133,5334611.0,4979114.0,0.0
1579101467180,5350806.0,5010332.0,0.0
1579101467228,5351306.0,5022224.0,0.0
1579101467278,5314045.0,4951578.0,0.0
1579101467320,5247821.0,4898515.0,0.0
1579101467369,5193167.0,4866996.0,0.0
1579101467420,5162168.0,4863865.0,0.0
1579101467474,5139183.0,4862746.0,0.0
1579101467521,5135382.0,4867756.0,0.0
1579101467562,5144405.0,4882970.0,0.0
1579101467619,5148235.0,4916699.0,0.0
1579101467661,5116708.0,4860586.0,0.0
1579101467717,4978994.0,4708337.0,0.0
1579101467759,4850732.0,4570615.0,0.0
1579101467812,4792409.0,4508239.0,0.0
1579101467865,4794270.0,4503318.0,0.0
1579101467906,4833318.0,4528075.0,0.0
1579101467958,4868297.0,4594110.0,0.0
1579101468002,4941966.0,4672989.0,0.0
1579101468057,5010462.0,4702598.0,0.0
1579101468098,5009111.0,4726842.0,0.0
1579101468153,4990177.0,4699056.0,0.0
1579101468202,4944765.0,4674560.0,0.0
1579101468247,4871267.0,4619377.0,0.0
1579101468300,4785038.0,4532165.0,0.0
1579101468339,4752499.0,4505088.0,0.0
1579101468395,4733724.0,4522754.0,0.0
1579101468442,4693504.0,4456947.0,0.0
1579101468492,4585888.0,4344939.0,0.0
1579101468539,4525502.0,4285474.0,0.0
1579101468590,4523264.0,4272973.0,0.0
1579101468637,4524584.0,4268960.0,0.0
1579101468679,4521132.0,4252948.0,0.0
1579101468735,4452807.0,4184220.0,0.0
1579101468780,4386070.0,4125415.0,0.0
1579101468823,4359923.0,4118633.0,0.0
1579101468873,4315822.0,4085156.0,0.0
1579101468929,4285515.0,4076105.0,0.0
1579101468981,4268180.0,4094748.0,0.0
1579101469022,4259819.0,4117705.0,0.0
1579101469068,4254768.0,4133378.0,0.0
1579101469125,4275823.0,4155692.0,0.0
1579101469163,4302029.0,4196262.0,0.0
1579101469218,4206506.0,4088257.0,0.0
1579101469266,4032593.0,3893579.0,0.0
1579101469319,3936759.0,3777891.0,0.0
1579101469361,3949872.0,3760396.0,0.0
1579101469408,3987242.0,3784283.0,0.0
1579101469460,4030693.0,3846849.0,0.0
1579101469505,4084677.0,3916304.0,0.0
1579101469555,4071424.0,3929238.0,0.0
1579101469601,4072472.0,3938980.0,0.0
1579101469658,4054078.0,3927637.0,0.0
1579101469699,4031083.0,3936780.0,0.0
1579101469754,4017879.0,3944482.0,0.0
1579101469806,3920056.0,3853990.0,0.0
1579101469852,3886518.0,3809729.0,0.0
1579101469898,3925857.0,3836816.0,0.0
1579101469940,3966608.0,3894899.0,0.0
1579101469989,3955644.0,3872353.0,0.0
1579101470039,3931589.0,3837976.0,0.0
1579101470085,3958355.0,3845217.0,0.0
1579101470142,3998596.0,3861632.0,0.0
1579101470191,4032134.0,3880907.0,0.0
1579101470236,4048867.0,3892768.0,0.0
1579101470281,3966376.0,3804938.0,0.0
1579101470338,3928838.0,3809479.0,0.0
1579101470384,3962416.0,3829073.0,0.0
1579101470430,3946953.0,3819942.0,0.0
1579101470481,3948153.0,3849059.0,0.0
1579101470532,3982010.0,3891238.0,0.0
1579101470577,4008448.0,3909203.0,0.0
1579101470626,4092318.0,3956595.0,0.0
1579101470678,4167507.0,4034184.0,0.0
1579101470723,4180360.0,4072423.0,0.0
1579101470774,4088866.0,3909182.0,0.0
1579101470822,3942070.0,3724718.0,0.0
1579101470873,3893558.0,3644928.0,0.0
1579101470917,3913425.0,3640468.0,0.0
1579101470966,3947912.0,3665985.0,0.0
1579101471019,3996225.0,3745873.0,0.0
1579101471062,4032024.0,3785843.0,0.0
1579101471114,4033873.0,3807719.0,0.0
1579101471163,4037124.0,3796626.0,0.0
1579101471207,4016308.0,3794864.0,0.0
1579101471258,4002986.0,3824463.0,0.0
1579101471302,3992263.0,3838216.0,0.0
1579101471356,3989103.0,3783482.0,0.0
1579101471410,4058558.0,3806187.0,0.0
1579101471445,4085745.0,3842417.0,0.0
1579101471502,4100169.0,3867863.0,0.0
1579101471549,4066722.0,3824292.0,0.0
1579101471598,4037814.0,3770589.0,0.0
1579101471645,4036593.0,3751025.0,0.0
1579101471697,4074414.0,3767009.0,0.0
1579101471748,4080164.0,3773659.0,0.0
1579101471794,4110701.0,3823652.0,0.0
1579101471841,4066092.0,3769350.0,0.0
1579101471894,3970748.0,3684528.0,0.0
1579101471938,3897069.0,3612850.0,0.0
1579101471987,3853379.0,3579942.0,0.0
1579101472055,3838787.0,3594506.0,0.0
1579101472084,3824733.0,3630096.0,0.0
1579101472143,3812719.0,3655052.0,0.0
1579101472181,3872243.0,3674845.0,0.0
1579101472228,3964277.0,3728469.0,0.0
1579101472277,4030652.0,3785673.0,0.0
1579101472328,3997405.0,3707554.0,0.0
1579101472370,3907413.0,3606359.0,0.0
1579101472425,3866792.0,3539902.0,0.0
1579101472472,3910964.0,3558867.0,0.0
1579101472522,3981421.0,3623472.0,0.0
1579101472564,4068303.0,3732199.0,0.0
1579101472620,4123436.0,3803867.0,0.0
1579101472664,4156602.0,3848809.0,0.0
1579101472717,4145310.0,3811768.0,0.0
1579101472765,4123936.0,3793824.0,0.0
1579101472814,4102300.0,3803418.0,0.0
1579101472864,4077094.0,3816651.0,0.0
1579101472908,4002665.0,3748264.0,0.0
1579101472957,4027832.0,3713316.0,0.0
1579101473007,4093728.0,3763527.0,0.0
1579101473057,4152943.0,3847787.0,0.0
1579101473100,4176028.0,3842846.0,0.0
1579101473148,4166056.0,3850518.0,0.0
1579101473199,4162405.0,3843557.0,0.0
1579101473245,4202325.0,3866782.0,0.0
1579101473297,4254557.0,3903762.0,0.0
1579101473346,4317153.0,3976248.0,0.0
1579101473398,4367774.0,4014388.0,0.0
1579101473446,4335878.0,3996625.0,0.0
1579101473492,4297977.0,3936499.0,0.0
1579101473543,4254378.0,3892979.0,0.0
1579101473583,4217197.0,3880777.0,0.0
1579101473639,4207906.0,3915264.0,0.0
1579101473686,4201853.0,3947062.0,0.0
1579101473736,4253626.0,3977069.0,0.0
1579101473786,4337838.0,4028292.0,0.0
1579101473834,4352440.0,4082576.0,0.0
1579101473884,4354962.0,4062401.0,0.0
1579101473923,4246995.0,3913723.0,0.0
1579101473978,4132008.0,3795226.0,0.0
1579101474027,4116683.0,3752614.0,0.0
1579101474077,4137419.0,3754205.0,0.0
1579101474126,4196374.0,3809499.0,0.0
1579101474172,4244845.0,3869513.0,0.0
1579101474223,4270171.0,3931908.0,0.0
1579101474263,4268440.0,3928358.0,0.0
1579101474318,4252637.0,3922846.0,0.0
1579101474367,4214397.0,3945352.0,0.0
1579101474419,4194523.0,3973778.0,0.0
1579101474457,4200104.0,3966317.0,0.0
1579101474513,4208446.0,3944072.0,0.0
1579101474559,4235394.0,3965287.0,0.0
1579101474606,4225659.0,3960476.0,0.0
1579101474657,4202024.0,3921426.0,0.0
1579101474705,4192251.0,3897120.0,0.0
1579101474757,4201925.0,3891569.0,0.0
1579101474806,4232762.0,3899341.0,0.0
1579101474854,4260039.0,3923496.0,0.0
1579101474904,4296957.0,3976919.0,0.0
1579101474947,4285716.0,3957914.0,0.0
1579101474998,4234502.0,3927507.0,0.0
1579101475048,4193842.0,3896279.0,0.0
1579101475098,4160394.0,3904203.0,0.0
1579101475146,4140700.0,3951603.0,0.0
1579101475192,4182639.0,4003376.0,0.0
1579101475242,4265250.0,4052959.0,0.0
1579101475286,4337548.0,4111142.0,0.0
1579101475337,4361894.0,4149682.0,0.0
1579101475384,4359472.0,4137159.0,0.0
1579101475436,4284424.0,4036384.0,0.0
1579101475485,4169876.0,3890167.0,0.0
1579101475525,4115894.0,3810328.0,0.0
1579101475584,4117185.0,3787773.0,0.0
1579101475628,4167655.0,3837866.0,0.0
1579101475679,4198054.0,3896689.0,0.0
1579101475729,4220458.0,3953533.0,0.0
1579101475775,4204255.0,3947802.0,0.0
1579101475825,4172428.0,3939220.0,0.0
1579101475871,4142569.0,3960636.0,0.0
1579101475925,4142600.0,4000765.0,0.0
1579101475967,4172708.0,4016958.0,0.0
1579101476021,4222490.0,4020140.0,0.0
1579101476068,4219650.0,4024380.0,0.0
1579101476110,4192032.0,3992943.0,0.0
1579101476158,4148132.0,3928287.0,0.0
1579101476207,4119094.0,3883477.0,0.0
1579101476263,4125866.0,3878306.0,0.0
1579101476309,4158594.0,3883737.0,0.0
1579101476361,4184100.0,3896230.0,0.0
1579101476408,4239544.0,3957575.0,0.0
1579101476449,4238652.0,3951032.0,0.0
1579101476505,4166505.0,3892008.0,0.0
1579101476546,4107292.0,3848149.0,0.0
1579101476603,4071862.0,3844077.0,0.0
1579101476650,4055629.0,3898561.0,0.0
1579101476700,4092787.0,3939531.0,0.0
1579101476748,4178058.0,3996474.0,0.0
1579101476793,4252877.0,4068382.0,0.0
1579101476839,4284806.0,4119614.0,0.0
1579101476887,4314861.0,4146031.0,0.0
1579101476943,4308201.0,4105260.0,0.0
1579101476994,4258958.0,3984111.0,0.0
1579101477040,4224660.0,3903492.0,0.0
1579101477089,4243795.0,3900060.0,0.0
1579101477135,4274503.0,3939571.0,0.0
1579101477186,4316822.0,4012178.0,0.0
1579101477227,4335177.0,4077015.0,0.0
1579101477283,4363643.0,4116104.0,0.0
1579101477330,4360762.0,4104691.0,0.0
1579101477374,4336867.0,4105051.0,0.0
1579101477429,4318063.0,4116874.0,0.0
1579101477471,4323915.0,4137898.0,0.0
1579101477526,4362664.0,4138650.0,0.0
1579101477567,4386860.0,4161704.0,0.0
1579101477623,4346910.0,4157505.0,0.0
1579101477671,4314252.0,4098659.0,0.0
1579101477718,4283434.0,4042725.0,0.0
1579101477769,4292486.0,4034744.0,0.0
1579101477809,4315582.0,4037745.0,0.0
1579101477866,4348570.0,4049757.0,0.0
1579101477908,4394581.0,4096008.0,0.0
1579101477955,4399593.0,4100349.0,0.0
1579101478013,4318084.0,4047937.0,0.0
1579101478058,4223301.0,3971019.0,0.0
1579101478109,4181680.0,3954564.0,0.0
1579101478149,4149782.0,3979320.0,0.0
1579101478206,4156373.0,4019970.0,0.0
1579101478250,4185400.0,4056460.0,0.0
1579101478302,4265900.0,4111473.0,0.0
1579101478346,4286155.0,4155294.0,0.0
1579101478399,4292356.0,4167226.0,0.0
1579101478448,4242864.0,4084085.0,0.0
1579101478488,4133717.0,3946672.0,0.0
1579101478545,4098889.0,3874795.0,0.0
1579101478590,4105270.0,3853819.0,0.0
1579101478637,4127116.0,3870884.0,0.0
1579101478685,4183779.0,3935028.0,0.0
1579101478735,4200984.0,3991044.0,0.0
1579101478782,4204474.0,4009797.0,0.0
1579101478831,4190112.0,3994705.0,0.0
1579101478880,4166946.0,3994853.0,0.0
1579101478930,4158384.0,4026522.0,0.0
1579101478977,4128977.0,4009146.0,0.0
1579101479025,4120074.0,3962666.0,0.0
1579101479073,4135489.0,3962156.0,0.0
1579101479122,4098850.0,3951784.0,0.0
1579101479172,4064581.0,3905613.0,0.0
1579101479219,4022180.0,3848177.0,0.0
1579101479270,3996283.0,3816911.0,0.0
1579101479316,4033824.0,3836995.0,0.0
1579101479365,4075054.0,3857651.0,0.0
1579101479415,4120576.0,3892378.0,0.0
1579101479462,4149132.0,3907362.0,0.0
1579101479512,4103901.0,3879275.0,0.0
1579101479566,4065710.0,3838035.0,0.0
1579101479613,4031733.0,3796835.0,0.0
1579101479663,3983530.0,3784793.0,0.0
1579101479713,3977860.0,3812219.0,0.0
1579101479757,3998524.0,3844778.0,0.0
1579101479809,4027261.0,3858901.0,0.0
1579101479855,4042065.0,3887847.0,0.0
1579101479898,4131238.0,3938019.0,0.0
1579101479953,4096999.0,3854240.0,0.0
1579101479998,4012168.0,3766838.0,0.0
1579101480052,3959145.0,3714306.0,0.0
1579101480095,3951943.0,3695321.0,0.0
1579101480148,4006597.0,3740891.0,0.0
1579101480191,4068652.0,3801037.0,0.0
1579101480247,4150083.0,3880657.0,0.0
1579101480294,4163336.0,3922446.0,0.0
1579101480343,4176268.0,3949194.0,0.0
1579101480386,4173937.0,3925898.0,0.0
1579101480437,4104590.0,3903741.0,0.0
1579101480489,3997744.0,3830743.0,0.0
1579101480533,3947052.0,3795935.0,0.0
1579101480587,3913083.0,3799486.0,0.0
1579101480635,3896131.0,3820361.0,0.0
1579101480685,3946652.0,3860291.0,0.0
1579101480732,3981460.0,3873985.0,0.0
1579101480775,3928978.0,3797376.0,0.0
1579101480829,3894410.0,3743101.0,0.0
1579101480871,3899800.0,3733109.0,0.0
1579101480927,3860892.0,3681787.0,0.0
1579101480975,3847027.0,3645519.0,0.0
1579101481021,3915735.0,3688789.0,0.0
1579101481073,4027822.0,3809588.0,0.0
1579101481114,4076824.0,3887118.0,0.0
1579101481169,4140990.0,3942932.0,0.0
1579101481212,4174279.0,3954033.0,0.0
1579101481266,4173116.0,3943432.0,0.0
1579101481316,4157714.0,3951134.0,0.0
1579101481362,4160574.0,3969907.0,0.0
1579101481413,4221470.0,4012007.0,0.0
1579101481452,4303890.0,4038865.0,0.0
1579101481509,4327446.0,4068061.0,0.0
1579101481553,4337838.0,4096018.0,0.0
1579101481607,4330187.0,4090447.0,0.0
1579101481655,4321653.0,4080355.0,0.0
1579101481703,4338828.0,4093927.0,0.0
1579101481752,4370285.0,4112873.0,0.0
1579101481795,4400904.0,4143780.0,0.0
1579101481843,4443983.0,4214647.0,0.0
1579101481896,4525913.0,4285515.0,0.0
1579101481947,4611734.0,4331357.0,0.0
1579101481997,4630509.0,4365925.0,0.0
1579101482040,4608363.0,4352190.0,0.0
1579101482093,4535736.0,4335317.0,0.0
1579101482136,4538628.0,4348911.0,0.0
1579101482190,4543278.0,4356443.0,0.0
1579101482237,4590850.0,4374867.0,0.0
1579101482287,4645022.0,4408624.0,0.0
1579101482335,4656075.0,4447144.0,0.0
1579101482376,4685283.0,4445224.0,0.0
1579101482432,4699457.0,4435222.0,0.0
1579101482474,4715670.0,4387141.0,0.0
1579101482529,4725912.0,4369956.0,0.0
1579101482575,4763641.0,4407974.0,0.0
1579101482625,4816264.0,4468780.0,0.0
1579101482675,4843932.0,4513040.0,0.0
1579101482724,4838211.0,4534826.0,0.0
1579101482772,4888783.0,4554030.0,0.0
1579101482815,4896075.0,4562082.0,0.0
1579101482869,4882440.0,4561473.0,0.0
1579101482916,4845901.0,4538617.0,0.0
1579101482965,4856634.0,4543498.0,0.0
1579101483017,4864617.0,4538857.0,0.0
1579101483057,4925291.0,4575955.0,0.0
1579101483106,4916039.0,4606114.0,0.0
1579101483155,4935474.0,4631789.0,0.0
1579101483208,4946096.0,4639540.0,0.0
1579101483256,4946377.0,4630779.0,0.0
1579101483305,4924822.0,4616925.0,0.0
1579101483356,4941265.0,4626348.0,0.0
1579101483403,4960800.0,4626919.0,0.0
1579101483452,4992227.0,4654114.0,0.0
1579101483495,5011362.0,4674149.0,0.0
1579101483540,5005271.0,4679600.0,0.0
1579101483590,4992107.0,4652225.0,0.0
1579101483637,4949617.0,4607934.0,0.0
1579101483696,4897635.0,4599452.0,0.0
1579101483737,4877669.0,4604763.0,0.0
1579101483794,4864597.0,4601102.0,0.0
1579101483837,4891093.0,4617325.0,0.0
1579101483890,4959989.0,4661477.0,0.0
1579101483938,4962381.0,4689064.0,0.0
1579101483983,4987906.0,4697035.0,0.0
1579101484036,4980784.0,4684862.0,0.0
1579101484079,4959270.0,4669399.0,0.0
1579101484133,4958559.0,4664777.0,0.0
1579101484179,4977533.0,4663708.0,0.0
1579101484226,5007140.0,4684393.0,0.0
1579101484276,5039360.0,4712809.0,0.0
1579101484326,5039079.0,4721972.0,0.0
1579101484376,5055532.0,4727192.0,0.0
1579101484419,5029857.0,4672609.0,0.0
1579101484473,4945966.0,4611705.0,0.0
1579101484522,4861216.0,4599452.0,0.0
1579101484567,4842780.0,4612055.0,0.0
1579101484619,4838040.0,4614036.0,0.0
1579101484659,4919119.0,4645152.0,0.0
1579101484707,4972763.0,4679590.0,0.0
1579101484758,4994458.0,4716060.0,0.0
1579101484812,5006872.0,4735794.0,0.0
1579101484861,4987816.0,4707738.0,0.0
1579101484905,4966081.0,4664687.0,0.0
1579101484958,4954678.0,4637391.0,0.0
1579101485002,4967511.0,4639252.0,0.0
1579101485047,5019274.0,4703597.0,0.0
1579101485102,5047891.0,4735195.0,0.0
1579101485151,5093881.0,4776364.0,0.0
1579101485200,5103435.0,4777845.0,0.0
1579101485246,5106196.0,4773965.0,0.0
1579101485299,5076577.0,4764212.0,0.0
1579101485339,5052401.0,4738336.0,0.0
1579101485388,5027175.0,4708829.0,0.0
1579101485439,5011382.0,4694044.0,0.0
1579101485492,5061654.0,4725002.0,0.0
1579101485540,5086811.0,4761752.0,0.0
1579101485583,5102795.0,4781836.0,0.0
1579101485641,5103024.0,4789048.0,0.0
1579101485681,5074117.0,4774064.0,0.0
1579101485735,5070205.0,4776145.0,0.0
1579101485778,5090371.0,4779725.0,0.0
1579101485833,5108975.0,4807462.0,0.0
1579101485881,5137363.0,4844541.0,0.0
1579101485930,5167530.0,4877049.0,0.0
1579101485977,5205329.0,4902556.0,0.0
1579101486020,5221463.0,4901516.0,0.0
1579101486077,5226374.0,4895514.0,0.0
1579101486117,5208941.0,4882470.0,0.0
1579101486173,5197147.0,4877210.0,0.0
1579101486221,5201338.0,4875178.0,0.0
1579101486270,5235287.0,4893112.0,0.0
1579101486316,5277318.0,4925051.0,0.0
1579101486366,5259904.0,4942756.0,0.0
1579101486418,5285650.0,4946176.0,0.0
1579101486458,5289959.0,4948347.0,0.0
1579101486514,5269965.0,4925811.0,0.0
1579101486560,5261584.0,4910417.0,0.0
1579101486610,5257443.0,4900376.0,0.0
1579101486657,5259682.0,4905766.0,0.0
1579101486700,5274207.0,4944205.0,0.0
1579101486757,5282988.0,4956290.0,0.0
1579101486798,5315466.0,4966861.0,0.0
1579101486854,5322309.0,4962391.0,0.0
1579101486904,5294362.0,4919680.0,0.0
1579101486948,5275607.0,4899665.0,0.0
1579101486997,5253361.0,4885762.0,0.0
1579101487042,5238278.0,4875609.0,0.0
1579101487098,5274776.0,4893734.0,0.0
1579101487139,5288819.0,4914659.0,0.0
1579101487186,5277346.0,4913609.0,0.0
1579101487245,5219084.0,4830717.0,0.0
1579101487291,5092652.0,4703087.0,0.0
1579101487336,4975473.0,4595490.0,0.0
1579101487382,4924391.0,4568163.0,0.0
1579101487437,4891883.0,4543158.0,0.0
1579101487479,4890532.0,4555851.0,0.0
1579101487534,4892013.0,4581597.0,0.0
1579101487581,4904876.0,4603402.0,0.0
1579101487628,4872899.0,4583657.0,0.0
1579101487677,4840340.0,4564122.0,0.0
1579101487720,4754560.0,4492166.0,0.0
1579101487776,4656276.0,4428239.0,0.0
1579101487821,4593280.0,4393482.0,0.0
1579101487873,4597471.0,4400702.0,0.0
1579101487924,4669009.0,4447264.0,0.0
1579101487969,4677981.0,4448245.0,0.0
1579101488017,4614875.0,4377648.0,0.0
1579101488065,4569945.0,4329916.0,0.0
1579101488117,4540537.0,4300489.0,0.0
1579101488161,4520441.0,4269271.0,0.0
1579101488213,4450375.0,4164945.0,0.0
1579101488260,4381289.0,4089758.0,0.0
1579101488302,4365655.0,4073104.0,0.0
1579101488357,4347540.0,4074563.0,0.0
1579101488409,4322245.0,4053128.0,0.0
1579101488457,4291407.0,4050468.0,0.0
1579101488503,4256048.0,4062661.0,0.0
1579101488554,4256258.0,4084045.0,0.0
1579101488601,4261148.0,4104051.0,0.0
1579101488648,4283704.0,4125395.0,0.0
1579101488697,4352991.0,4118725.0,0.0
1579101488742,4332576.0,4077785.0,0.0
1579101488790,4262670.0,3986582.0,0.0
1579101488841,4225330.0,3957585.0,0.0
1579101488894,4231592.0,3961116.0,0.0
1579101488942,4288656.0,4003466.0,0.0
1579101488991,4351400.0,4058069.0,0.0
1579101489037,4418068.0,4157813.0,0.0
1579101489089,4468760.0,4225909.0,0.0
1579101489137,4527374.0,4289015.0,0.0
1579101489187,4558902.0,4307651.0,0.0
1579101489235,4546448.0,4249356.0,0.0
1579101489282,4480782.0,4205326.0,0.0
1579101489332,4439192.0,4195772.0,0.0
1579101489376,4436132.0,4210917.0,0.0
1579101489422,4461488.0,4226131.0,0.0
1579101489477,4528774.0,4284225.0,0.0
1579101489523,4542248.0,4316432.0,0.0
1579101489574,4556761.0,4332346.0,0.0
1579101489621,4530775.0,4283304.0,0.0
1579101489671,4467409.0,4212207.0,0.0
1579101489716,4439013.0,4164924.0,0.0
1579101489765,4464749.0,4181510.0,0.0
1579101489818,4524273.0,4252407.0,0.0
1579101489863,4571444.0,4321363.0,0.0
1579101489914,4621978.0,4388189.0,0.0
1579101489961,4689353.0,4436851.0,0.0
1579101490009,4732283.0,4457457.0,0.0
1579101490056,4736424.0,4462638.0,0.0
1579101490105,4743076.0,4470779.0,0.0
1579101490158,4732885.0,4469310.0,0.0
1579101490206,4736406.0,4461167.0,0.0
1579101490255,4740595.0,4457597.0,0.0
1579101490303,4807042.0,4486643.0,0.0
1579101490349,4810802.0,4519742.0,0.0
1579101490393,4818966.0,4520803.0,0.0
1579101490444,4811954.0,4530834.0,0.0
1579101490498,4796139.0,4504338.0,0.0
1579101490546,4790479.0,4495047.0,0.0
1579101490592,4793918.0,4468969.0,0.0
1579101490641,4779595.0,4413637.0,0.0
1579101490689,4795879.0,4453666.0,0.0
1579101490736,4797730.0,4477301.0,0.0
1579101490787,4835508.0,4507290.0,0.0
1579101490836,4849462.0,4493905.0,0.0
1579101490886,4833688.0,4471570.0,0.0
1579101490934,4815565.0,4464798.0,0.0
1579101490983,4812903.0,4460828.0,0.0
1579101491026,4823275.0,4472480.0,0.0
1579101491077,4881540.0,4513190.0,0.0
1579101491125,4890053.0,4552391.0,0.0
1579101491178,4917969.0,4566332.0,0.0
1579101491226,4928741.0,4581457.0,0.0
1579101491272,4928142.0,4574376.0,0.0
1579101491323,4916059.0,4557041.0,0.0
1579101491363,4919109.0,4560802.0,0.0
1579101491417,4926130.0,4563933.0,0.0
1579101491465,4952068.0,4600021.0,0.0
1579101491509,4979474.0,4627317.0,0.0
1579101491566,5011132.0,4668649.0,0.0
1579101491612,5034008.0,4676591.0,0.0
1579101491663,5029936.0,4663287.0,0.0
1579101491704,5010452.0,4645493.0,0.0
1579101491759,4985496.0,4633811.0,0.0
1579101491806,4967011.0,4634000.0,0.0
1579101491856,4972562.0,4635091.0,0.0
1579101491905,5017374.0,4663086.0,0.0
1579101491952,5016194.0,4691384.0,0.0
1579101491995,5026535.0,4674299.0,0.0
1579101492046,4971233.0,4570774.0,0.0
1579101492098,4914338.0,4462187.0,0.0
1579101492147,4891513.0,4432140.0,0.0
1579101492197,4897533.0,4440722.0,0.0
1579101492248,4931332.0,4470690.0,0.0
1579101492288,4953597.0,4514811.0,0.0
1579101492343,4981115.0,4572005.0,0.0
1579101492384,5004550.0,4583978.0,0.0
1579101492437,4997548.0,4572344.0,0.0
1579101492487,4942226.0,4511061.0,0.0
1579101492538,4861596.0,4432392.0,0.0
1579101492585,4806251.0,4376626.0,0.0
1579101492626,4767882.0,4356362.0,0.0
1579101492683,4809402.0,4401284.0,0.0
1579101492725,4844241.0,4440163.0,0.0
1579101492772,4856244.0,4453786.0,0.0
1579101492821,4834338.0,4433292.0,0.0
1579101492871,4801070.0,4396911.0,0.0
1579101492920,4771984.0,4372516.0,0.0
1579101492968,4755390.0,4308920.0,0.0
1579101493018,4714650.0,4292437.0,0.0
1579101493068,4696555.0,4316212.0,0.0
1579101493117,4698426.0,4356683.0,0.0
1579101493167,4698536.0,4360673.0,0.0
1579101493218,4683361.0,4342119.0,0.0
1579101493265,4683832.0,4327196.0,0.0
1579101493306,4643283.0,4342828.0,0.0
1579101493362,4628699.0,4351410.0,0.0
1579101493407,4601823.0,4296758.0,0.0
1579101493451,4513741.0,4199064.0,0.0
1579101493508,4528355.0,4182180.0,0.0
1579101493555,4561072.0,4212177.0,0.0
1579101493604,4559652.0,4215048.0,0.0
1579101493645,4542778.0,4214538.0,0.0
1579101493703,4540318.0,4227072.0,0.0
1579101493749,4538747.0,4229211.0,0.0
1579101493799,4550359.0,4248196.0,0.0
1579101493842,4572696.0,4273572.0,0.0
1579101493887,4526843.0,4234733.0,0.0
1579101493945,4471361.0,4193582.0,0.0
1579101493986,4432570.0,4139650.0,0.0
1579101494043,4401403.0,4117185.0,0.0
1579101494089,4365285.0,4134278.0,0.0
1579101494140,4376187.0,4170877.0,0.0
1579101494187,4397072.0,4203554.0,0.0
1579101494230,4440064.0,4233002.0,0.0
1579101494284,4508529.0,4278924.0,0.0
1579101494329,4535596.0,4295708.0,0.0
1579101494381,4487515.0,4213408.0,0.0
1579101494429,4407184.0,4126516.0,0.0
1579101494480,4364385.0,4092218.0,0.0
1579101494527,4368646.0,4088198.0,0.0
1579101494568,4391700.0,4107891.0,0.0
1579101494624,4446114.0,4174539.0,0.0
1579101494665,4565363.0,4275451.0,0.0
1579101494724,4633589.0,4338267.0,0.0
1579101494769,4659766.0,4348001.0,0.0
1579101494817,4638222.0,4279153.0,0.0
1579101494866,4560142.0,4216297.0,0.0
1579101494908,4506329.0,4208426.0,0.0
1579101494965,4479313.0,4206695.0,0.0
1579101495009,4526283.0,4232541.0,0.0
1579101495054,4607784.0,4286756.0,0.0
1579101495109,4659476.0,4325115.0,0.0
1579101495161,4675281.0,4348470.0,0.0
1579101495208,4635741.0,4346349.0,0.0
1579101495248,4602902.0,4296957.0,0.0
1579101495305,4636661.0,4297908.0,0.0
1579101495350,4693154.0,4310631.0,0.0
1579101495395,4733994.0,4383918.0,0.0
1579101495449,4764631.0,4423298.0,0.0
1579101495498,4791728.0,4441043.0,0.0
1579101495539,4805812.0,4444954.0,0.0
1579101495589,4776665.0,4432560.0,0.0
1579101495644,4752209.0,4428539.0,0.0
1579101495691,4725922.0,4424169.0,0.0
1579101495743,4657596.0,4374536.0,0.0
1579101495789,4615125.0,4312561.0,0.0
1579101495833,4625078.0,4309122.0,0.0
1579101495887,4655205.0,4321084.0,0.0
1579101495929,4642681.0,4303148.0,0.0
1579101495984,4610824.0,4284806.0,0.0
1579101496033,4587389.0,4266130.0,0.0
1579101496083,4582997.0,4259458.0,0.0
1579101496129,4613105.0,4269651.0,0.0
1579101496179,4628610.0,4249636.0,0.0
1579101496227,4594169.0,4216317.0,0.0
1579101496270,4565422.0,4228232.0,0.0
1579101496324,4544617.0,4181410.0,0.0
1579101496373,4536517.0,4178108.0,0.0
1579101496419,4489254.0,4165146.0,0.0
1579101496469,4483122.0,4178509.0,0.0
1579101496517,4480893.0,4187560.0,0.0
1579101496567,4497497.0,4200244.0,0.0
1579101496610,4564614.0,4227972.0,0.0
1579101496664,4584287.0,4198113.0,0.0
1579101496711,4525864.0,4103700.0,0.0
1579101496763,4484973.0,4065042.0,0.0
1579101496810,4463709.0,4059461.0,0.0
1579101496857,4487533.0,4080944.0,0.0
1579101496908,4528205.0,4110122.0,0.0
1579101496949,4577066.0,4160904.0,0.0
1579101496999,4642442.0,4256268.0,0.0
1579101497048,4664027.0,4299028.0,0.0
1579101497094,4719721.0,4354972.0,0.0
1579101497141,4772833.0,4383049.0,0.0
1579101497197,4786828.0,4383609.0,0.0
1579101497247,4782657.0,4384790.0,0.0
1579101497289,4769253.0,4378827.0,0.0
1579101497345,4763422.0,4383668.0,0.0
1579101497392,4790767.0,4398632.0,0.0
1579101497441,4857354.0,4429590.0,0.0
1579101497490,4870627.0,4474290.0,0.0
1579101497531,4886042.0,4507989.0,0.0
1579101497587,4882350.0,4488614.0,0.0
1579101497631,4859335.0,4444054.0,0.0
1579101497685,4837449.0,4403624.0,0.0
1579101497734,4844401.0,4409996.0,0.0
1579101497777,4883661.0,4447483.0,0.0
1579101497830,4915468.0,4490715.0,0.0
1579101497877,4924302.0,4518221.0,0.0
1579101497919,4953248.0,4553551.0,0.0
1579101497968,4999988.0,4577507.0,0.0
1579101498020,5028605.0,4582948.0,0.0
1579101498068,5021045.0,4584488.0,0.0
1579101498118,5000929.0,4573535.0,0.0
1579101498166,4993068.0,4575965.0,0.0
1579101498213,4987087.0,4573326.0,0.0
1579101498268,5035928.0,4601803.0,0.0
1579101498314,5044339.0,4632220.0,0.0
1579101498366,5064476.0,4651164.0,0.0
1579101498412,5075588.0,4667428.0,0.0
1579101498460,5092311.0,4665998.0,0.0
1579101498511,5089032.0,4659636.0,0.0
1579101498552,5078109.0,4640822.0,0.0
1579101498599,5086661.0,4632990.0,0.0
1579101498650,5104345.0,4637011.0,0.0
1579101498696,5110255.0,4664348.0,0.0
1579101498747,5103634.0,4665628.0,0.0
1579101498795,5119648.0,4701866.0,0.0
1579101498844,5148476.0,4721911.0,0.0
1579101498895,5167020.0,4722452.0,0.0
1579101498941,5162339.0,4709418.0,0.0
1579101498993,5145925.0,4698855.0,0.0
1579101499039,5121810.0,4685612.0,0.0
1579101499087,5134153.0,4687662.0,0.0
1579101499136,5156778.0,4728454.0,0.0
1579101499184,5160309.0,4749047.0,0.0
1579101499236,5142105.0,4763641.0,0.0
1579101499281,5162209.0,4768733.0,0.0
1579101499334,5171021.0,4769013.0,0.0
1579101499378,5167079.0,4759641.0,0.0
1579101499427,5155998.0,4727482.0,0.0
1579101499476,5151106.0,4691015.0,0.0
1579101499524,5165949.0,4699255.0,0.0
1579101499575,5177252.0,4733864.0,0.0
1579101499620,5187785.0,4753800.0,0.0
1579101499675,5227934.0,4789128.0,0.0
1579101499723,5255531.0,4804902.0,0.0
1579101499773,5248999.0,4787567.0,0.0
1579101499820,5252041.0,4786208.0,0.0
1579101499870,5240057.0,4789969.0,0.0
1579101499912,5230006.0,4785607.0,0.0
1579101499967,5244930.0,4801300.0,0.0
1579101500016,5225124.0,4822836.0,0.0
1579101500062,5221603.0,4842091.0,0.0
1579101500112,5238517.0,4844192.0,0.0
1579101500154,5238538.0,4839761.0,0.0
1579101500211,5232516.0,4820486.0,0.0
1579101500255,5237148.0,4827237.0,0.0
1579101500307,5244539.0,4826508.0,0.0
1579101500356,5273567.0,4841480.0,0.0
1579101500396,5283809.0,4850023.0,0.0
1579101500452,5287730.0,4864916.0,0.0
1579101500495,5313915.0,4865326.0,0.0
1579101500550,5324639.0,4869357.0,0.0
1579101500598,5312365.0,4849692.0,0.0
1579101500645,5289500.0,4841311.0,0.0
1579101500689,5282728.0,4846551.0,0.0
1579101500737,5294531.0,4849783.0,0.0
1579101500793,5333851.0,4885012.0,0.0
1579101500835,5302684.0,4899445.0,0.0
1579101500890,5309114.0,4892164.0,0.0
1579101500936,5312826.0,4891302.0,0.0
1579101500987,5296201.0,4861846.0,0.0
1579101501038,5300933.0,4861446.0,0.0
1579101501079,5312956.0,4862336.0,0.0
1579101501133,5329560.0,4881761.0,0.0
1579101501174,5329430.0,4889622.0,0.0
1579101501223,5359628.0,4922280.0,0.0
1579101501275,5390374.0,4938825.0,0.0
1579101501327,5393066.0,4924871.0,0.0
1579101501376,5381642.0,4907097.0,0.0
1579101501424,5363317.0,4900425.0,0.0
1579101501473,5350034.0,4891343.0,0.0
1579101501516,5346635.0,4880759.0,0.0
1579101501570,5379122.0,4902946.0,0.0
1579101501615,5373661.0,4924552.0,0.0
1579101501665,5395325.0,4930432.0,0.0
1579101501716,5397256.0,4936183.0,0.0
1579101501756,5375160.0,4883581.0,0.0
1579101501813,5361678.0,4836729.0,0.0
1579101501857,5350875.0,4810374.0,0.0
1579101501909,5341053.0,4807233.0,0.0
1579101501958,5352706.0,4850803.0,0.0
1579101502006,5350595.0,4862516.0,0.0
1579101502057,5380293.0,4895634.0,0.0
1579101502098,5381282.0,4883592.0,0.0
1579101502153,5364888.0,4869997.0,0.0
1579101502202,5338361.0,4855273.0,0.0
1579101502251,5300912.0,4823887.0,0.0
1579101502296,5251470.0,4787218.0,0.0
1579101502340,5271566.0,4799750.0,0.0
1579101502397,5280008.0,4833838.0,0.0
1579101502438,5299762.0,4864755.0,0.0
1579101502493,5293771.0,4865275.0,0.0
1579101502540,5275666.0,4848402.0,0.0
1579101502587,5261653.0,4834669.0,0.0
1579101502637,5255842.0,4813584.0,0.0
1579101502681,5230466.0,4748619.0,0.0
1579101502736,5225114.0,4771854.0,0.0
1579101502778,5231256.0,4781106.0,0.0
1579101502833,5220563.0,4788197.0,0.0
1579101502880,5152107.0,4724542.0,0.0
1579101502928,5106535.0,4701056.0,0.0
1579101502977,5031917.0,4680582.0,0.0
1579101503021,4983196.0,4688804.0,0.0
1579101503076,4965050.0,4695505.0,0.0
1579101503119,4950966.0,4647044.0,0.0
1579101503164,4864245.0,4557972.0,0.0
1579101503221,4786978.0,4492056.0,0.0
1579101503268,4719790.0,4424779.0,0.0
1579101503316,4670179.0,4397972.0,0.0
1579101503360,4651664.0,4386100.0,0.0
1579101503408,4648964.0,4384119.0,0.0
1579101503458,4652413.0,4381409.0,0.0
1579101503513,4679832.0,4409325.0,0.0
1579101503564,4721322.0,4462638.0,0.0
1579101503601,4710448.0,4466919.0,0.0
1579101503652,4694536.0,4435961.0,0.0
1579101503699,4659486.0,4388390.0,0.0
1579101503757,4604302.0,4347170.0,0.0
1579101503799,4577446.0,4347140.0,0.0
1579101503852,4579917.0,4356053.0,0.0
1579101503900,4586569.0,4364094.0,0.0
1579101503946,4597532.0,4373077.0,0.0
1579101503999,4611695.0,4401824.0,0.0
1579101504039,4642462.0,4409534.0,0.0
1579101504096,4597512.0,4349870.0,0.0
1579101504137,4559872.0,4304910.0,0.0
1579101504192,4542827.0,4269072.0,0.0
1579101504243,4525824.0,4276093.0,0.0
1579101504287,4548240.0,4312041.0,0.0
1579101504336,4589990.0,4359763.0,0.0
1579101504383,4647844.0,4424289.0,0.0
1579101504435,4685633.0,4461157.0,0.0
1579101504476,4715800.0,4487635.0,0.0
1579101504525,4696405.0,4463528.0,0.0
1579101504577,4648003.0,4399593.0,0.0
1579101504623,4556611.0,4356382.0,0.0
1579101504679,4513580.0,4353381.0,0.0
1579101504720,4542437.0,4371876.0,0.0
1579101504771,4592089.0,4417277.0,0.0
1579101504821,4615186.0,4459828.0,0.0
1579101504872,4644173.0,4480562.0,0.0
1579101504917,4643441.0,4495817.0,0.0
1579101504966,4632259.0,4483884.0,0.0
1579101505018,4615586.0,4431611.0,0.0
1579101505059,4582456.0,4367955.0,0.0
1579101505115,4596630.0,4384678.0,0.0
1579101505165,4620206.0,4432361.0,0.0
1579101505211,4638232.0,4468240.0,0.0
1579101505258,4655544.0,4474601.0,0.0
1579101505306,4664257.0,4479662.0,0.0
1579101505357,4657846.0,4474691.0,0.0
1579101505398,4638281.0,4480493.0,0.0
1579101505455,4623347.0,4473250.0,0.0
1579101505500,4564624.0,4403683.0,0.0
1579101505542,4548429.0,4388410.0,0.0
1579101505597,4592369.0,4440844.0,0.0
1579101505644,4656855.0,4479012.0,0.0
1579101505697,4655284.0,4496597.0,0.0
1579101505741,4634831.0,4479193.0,0.0
1579101505793,4612585.0,4461797.0,0.0
1579101505841,4656526.0,4486363.0,0.0
1579101505889,4692445.0,4485575.0,0.0
1579101505937,4745238.0,4533365.0,0.0
1579101505985,4763381.0,4552901.0,0.0
1579101506037,4794089.0,4580327.0,0.0
1579101506084,4773455.0,4527894.0,0.0
1579101506133,4705958.0,4496577.0,0.0
1579101506180,4668249.0,4492275.0,0.0
1579101506228,4637541.0,4492066.0,0.0
1579101506276,4612384.0,4493216.0,0.0
1579101506325,4673629.0,4541417.0,0.0
1579101506375,4701017.0,4563642.0,0.0
1579101506423,4740677.0,4602713.0,0.0
1579101506473,4755159.0,4565162.0,0.0
1579101506520,4750728.0,4520013.0,0.0
1579101506569,4732413.0,4484384.0,0.0
1579101506616,4723941.0,4477161.0,0.0
1579101506661,4736674.0,4497657.0,0.0
1579101506717,4755090.0,4519682.0,0.0
1579101506763,4766002.0,4549839.0,0.0
1579101506813,4769804.0,4549089.0,0.0
1579101506858,4752678.0,4538307.0,0.0
1579101506907,4650233.0,4457988.0,0.0
1579101506957,4530795.0,4379107.0,0.0
1579101507001,4453085.0,4330235.0,0.0
1579101507059,4416398.0,4340309.0,0.0
1579101507101,4395491.0,4359102.0,0.0
1579101507144,4429401.0,4376277.0,0.0
1579101507201,4522042.0,4423037.0,0.0
1579101507241,4544698.0,4431171.0,0.0
1579101507296,4540168.0,4421347.0,0.0
1579101507346,4526014.0,4385560.0,0.0
1579101507395,4477952.0,4306919.0,0.0
1579101507443,4458046.0,4269952.0,0.0
1579101507492,4504399.0,4331235.0,0.0
1579101507541,4563923.0,4396771.0,0.0
1579101507587,4595500.0,4452536.0,0.0
1579101507638,4622697.0,4459087.0,0.0
1579101507686,4635101.0,4471501.0,0.0
1579101507735,4622878.0,4452636.0,0.0
1579101507783,4602833.0,4457967.0,0.0
1579101507832,4601451.0,4454977.0,0.0
1579101507878,4537996.0,4403714.0,0.0
1579101507926,4531754.0,4386139.0,0.0
1579101507980,4544398.0,4436372.0,0.0
1579101508022,4584738.0,4481783.0,0.0
1579101508076,4597180.0,4471870.0,0.0
1579101508122,4589618.0,4469510.0,0.0
1579101508172,4593320.0,4462878.0,0.0
1579101508221,4619847.0,4466809.0,0.0
1579101508263,4659766.0,4486044.0,0.0
1579101508316,4725002.0,4535005.0,0.0
1579101508365,4754618.0,4549000.0,0.0
1579101508409,4739256.0,4521392.0,0.0
1579101508465,4670949.0,4455165.0,0.0
1579101508513,4614566.0,4427520.0,0.0
1579101508562,4571715.0,4431620.0,0.0
1579101508602,4542817.0,4441193.0,0.0
1579101508658,4544128.0,4458457.0,0.0
1579101508704,4616226.0,4491054.0,0.0
1579101508757,4671000.0,4532876.0,0.0
1579101508804,4705178.0,4546468.0,0.0
1579101508849,4649364.0,4479542.0,0.0
1579101508901,4558791.0,4398793.0,0.0
1579101508942,4532175.0,4365704.0,0.0
1579101508996,4577426.0,4381498.0,0.0
1579101509048,4612736.0,4408716.0,0.0
1579101509097,4654114.0,4462559.0,0.0
1579101509144,4670980.0,4507930.0,0.0
1579101509190,4702756.0,4516752.0,0.0
1579101509242,4699645.0,4492625.0,0.0
1579101509282,4641072.0,4445395.0,0.0
1579101509338,4570904.0,4403453.0,0.0
1579101509386,4522563.0,4380359.0,0.0
1579101509436,4503838.0,4378087.0,0.0
1579101509484,4549178.0,4415806.0,0.0
1579101509532,4629209.0,4470440.0,0.0
1579101509582,4672568.0,4498547.0,0.0
1579101509625,4683973.0,4524883.0,0.0
1579101509678,4679702.0,4505908.0,0.0
1579101509725,4678721.0,4474150.0,0.0
1579101509775,4624948.0,4386679.0,0.0
1579101509825,4534416.0,4332647.0,0.0
1579101509865,4471850.0,4311771.0,0.0
1579101509922,4422359.0,4268932.0,0.0
1579101509964,4382398.0,4246416.0,0.0
1579101510017,4327005.0,4230491.0,0.0
1579101510068,4283394.0,4225621.0,0.0
1579101510113,4265130.0,4230192.0,0.0
1579101510163,4262999.0,4263320.0,0.0
1579101510204,4234172.0,4237553.0,0.0
1579101510257,4155264.0,4163795.0,0.0
1579101510305,4101359.0,4107450.0,0.0
1579101510359,4078854.0,4073333.0,0.0
1579101510406,4029803.0,4030082.0,0.0
1579101510452,4018429.0,4013978.0,0.0
1579101510504,4048566.0,4011438.0,0.0
1579101510545,4088267.0,4022410.0,0.0
1579101510601,4110581.0,4030782.0,0.0
1579101510647,4108111.0,4047947.0,0.0
1579101510688,4037845.0,3995633.0,0.0
1579101510737,3949742.0,3906793.0,0.0
1579101510785,3901521.0,3851349.0,0.0
1579101510837,3876486.0,3831923.0,0.0
1579101510889,3904932.0,3851489.0,0.0
1579101510936,3939870.0,3900822.0,0.0
1579101510987,4018659.0,3958985.0,0.0
1579101511038,4150381.0,4025092.0,0.0
1579101511086,4283064.0,4103570.0,0.0
1579101511129,4353422.0,4180620.0,0.0
1579101511184,4416056.0,4221710.0,0.0
1579101511224,4456397.0,4257318.0,0.0
1579101511282,4473171.0,4273672.0,0.0
1579101511327,4493996.0,4291037.0,0.0
1579101511377,4519602.0,4316363.0,0.0
1579101511419,4574915.0,4355403.0,0.0
1579101511469,4648423.0,4403594.0,0.0
1579101511521,4690903.0,4432611.0,0.0
1579101511566,4757130.0,4474231.0,0.0
1579101511622,4808872.0,4479731.0,0.0
1579101511668,4821057.0,4474752.0,0.0
1579101511716,4814063.0,4473831.0,0.0
1579101511767,4826146.0,4483762.0,0.0
1579101511809,4848902.0,4495587.0,0.0
1579101511864,4890932.0,4514001.0,0.0
1579101511907,4870068.0,4532425.0,0.0
1579101511962,4881190.0,4565833.0,0.0
1579101512007,4901516.0,4570225.0,0.0
1579101512058,4907997.0,4574116.0,0.0
1579101512107,4903456.0,4567383.0,0.0
1579101512151,4911587.0,4551891.0,0.0
1579101512204,4913688.0,4545428.0,0.0
1579101512246,4923881.0,4565713.0,0.0
1579101512302,4900736.0,4562023.0,0.0
1579101512350,4902826.0,4572344.0,0.0
1579101512397,4883082.0,4560172.0,0.0
1579101512447,4847772.0,4540227.0,0.0
1579101512490,4826648.0,4524694.0,0.0
1579101512544,4807682.0,4512000.0,0.0
1579101512589,4773623.0,4483382.0,0.0
1579101512642,4729073.0,4462488.0,0.0
1579101512689,4770574.0,4478041.0,0.0
1579101512737,4795589.0,4513521.0,0.0
1579101512787,4783116.0,4522682.0,0.0
1579101512828,4776175.0,4519363.0,0.0
1579101512885,4737645.0,4489764.0,0.0
1579101512928,4687993.0,4468579.0,0.0
1579101512982,4664017.0,4458097.0,0.0
1579101513029,4679432.0,4448845.0,0.0
1579101513078,4660496.0,4408494.0,0.0
1579101513125,4689804.0,4446935.0,0.0
1579101513168,4732464.0,4491495.0,0.0
1579101513224,4742446.0,4482413.0,0.0
1579101513269,4696754.0,4468959.0,0.0
1579101513323,4677530.0,4471261.0,0.0
1579101513369,4625917.0,4466700.0,0.0
1579101513410,4604373.0,4478862.0,0.0
1579101513459,4630438.0,4489445.0,0.0
1579101513507,4734984.0,4545787.0,0.0
1579101513564,4747698.0,4570615.0,0.0
1579101513610,4709678.0,4535637.0,0.0
1579101513659,4658586.0,4493415.0,0.0
1579101513709,4609414.0,4456756.0,0.0
1579101513749,4575175.0,4442904.0,0.0
1579101513806,4585959.0,4446175.0,0.0
1579101513855,4625168.0,4465379.0,0.0
1579101513903,4658377.0,4492795.0,0.0
1579101513951,4661916.0,4500427.0,0.0
1579101513998,4604753.0,4442443.0,0.0
1579101514050,4528475.0,4377797.0,0.0
1579101514090,4439602.0,4329595.0,0.0
1579101514138,4399983.0,4325755.0,0.0
1579101514189,4393270.0,4335758.0,0.0
1579101514236,4399973.0,4360492.0,0.0
1579101514292,4476141.0,4402214.0,0.0
1579101514334,4533516.0,4452396.0,0.0
1579101514388,4581556.0,4487905.0,0.0
1579101514437,4568614.0,4447065.0,0.0
1579101514485,4457047.0,4345760.0,0.0
1579101514532,4401414.0,4299229.0,0.0
1579101514583,4406895.0,4300409.0,0.0
1579101514631,4471621.0,4345910.0,0.0
1579101514680,4554721.0,4410075.0,0.0
1579101514729,4594620.0,4438363.0,0.0
1579101514769,4636840.0,4490174.0,0.0
1579101514826,4656806.0,4498647.0,0.0
1579101514871,4647153.0,4484323.0,0.0
1579101514924,4617195.0,4463439.0,0.0
1579101514971,4565703.0,4442843.0,0.0
1579101515011,4526774.0,4432471.0,0.0
1579101515070,4548079.0,4445214.0,0.0
1579101515114,4600311.0,4480603.0,0.0
1579101515165,4621387.0,4512280.0,0.0
1579101515212,4640032.0,4529235.0,0.0
1579101515256,4637490.0,4528644.0,0.0
1579101515311,4614895.0,4504187.0,0.0
1579101515352,4595000.0,4444454.0,0.0
1579101515408,4572956.0,4386950.0,0.0
1579101515450,4636820.0,4410516.0,0.0
1579101515497,4708158.0,4489014.0,0.0
1579101515552,4749687.0,4532975.0,0.0
1579101515602,4814193.0,4584547.0,0.0
1579101515646,4855704.0,4609273.0,0.0
1579101515692,4859926.0,4596640.0,0.0
1579101515739,4847683.0,4583978.0,0.0
1579101515793,4825467.0,4562673.0,0.0
1579101515838,4751638.0,4480251.0,0.0
1579101515888,4698906.0,4442323.0,0.0
1579101515936,4742257.0,4499037.0,0.0
1579101515990,4759781.0,4534385.0,0.0
1579101516034,4752069.0,4529674.0,0.0
1579101516088,4708309.0,4498037.0,0.0
1579101516131,4668988.0,4480522.0,0.0
1579101516184,4678710.0,4481763.0,0.0
1579101516234,4707608.0,4487655.0,0.0
1579101516283,4732594.0,4485554.0,0.0
1579101516331,4734854.0,4477852.0,0.0
1579101516371,4738125.0,4514702.0,0.0
1579101516421,4708189.0,4463778.0,0.0
1579101516473,4669639.0,4443233.0,0.0
1579101516525,4612794.0,4419228.0,0.0
1579101516573,4582408.0,4423168.0,0.0
1579101516622,4571755.0,4429539.0,0.0
1579101516670,4606683.0,4456336.0,0.0
1579101516717,4650244.0,4486085.0,0.0
1579101516762,4581286.0,4437471.0,0.0
1579101516812,4473400.0,4341569.0,0.0
1579101516860,4404514.0,4280964.0,0.0
1579101516905,4387240.0,4253677.0,0.0
1579101516961,4426569.0,4272422.0,0.0
1579101517010,4477661.0,4304379.0,0.0
1579101517054,4527634.0,4348659.0,0.0
1579101517099,4587138.0,4411926.0,0.0
1579101517155,4623108.0,4462468.0,0.0
1579101517204,4646544.0,4448776.0,0.0
1579101517252,4625718.0,4400924.0,0.0
1579101517298,4569463.0,4363873.0,0.0
1579101517350,4531015.0,4355362.0,0.0
1579101517393,4525744.0,4360752.0,0.0
1579101517446,4560182.0,4385659.0,0.0
1579101517495,4619936.0,4433391.0,0.0
1579101517543,4677632.0,4484014.0,0.0
1579101517590,4696476.0,4494346.0,0.0
1579101517634,4677530.0,4478061.0,0.0
1579101517689,4606652.0,4410916.0,0.0
1579101517733,4542587.0,4345010.0,0.0
1579101517788,4539457.0,4313951.0,0.0
1579101517836,4568673.0,4340798.0,0.0
1579101517883,4638051.0,4427259.0,0.0
1579101517932,4688692.0,4477521.0,0.0
1579101517973,4742497.0,4499937.0,0.0
1579101518029,4755439.0,4514521.0,0.0
1579101518075,4743147.0,4501688.0,0.0
1579101518125,4685383.0,4460958.0,0.0
1579101518176,4603983.0,4403453.0,0.0
1579101518221,4539036.0,4361474.0,0.0
1579101518265,4567174.0,4393112.0,0.0
1579101518315,4605222.0,4446014.0,0.0
1579101518370,4615005.0,4489534.0,0.0
1579101518415,4601752.0,4449605.0,0.0
1579101518463,4565394.0,4433771.0,0.0
1579101518515,4543518.0,4390810.0,0.0
1579101518556,4459347.0,4275163.0,0.0
1579101518611,4392852.0,4191601.0,0.0
1579101518655,4395392.0,4196864.0,0.0
1579101518700,4409986.0,4237064.0,0.0
1579101518757,4409085.0,4268771.0,0.0
1579101518804,4383408.0,4235282.0,0.0
1579101518855,4343379.0,4211216.0,0.0
1579101518897,4299448.0,4203225.0,0.0
1579101518952,4259549.0,4204214.0,0.0
1579101518995,4210706.0,4159863.0,0.0
1579101519048,4138380.0,4074422.0,0.0
1579101519102,4148851.0,4071763.0,0.0
1579101519144,4145401.0,4078244.0,0.0
1579101519196,4127735.0,4051988.0,0.0
1579101519235,4122595.0,4060649.0,0.0
1579101519292,4118875.0,4045356.0,0.0
1579101519337,4142949.0,4049377.0,0.0
1579101519387,4171617.0,4061289.0,0.0
1579101519438,4169276.0,4068502.0,0.0
1579101519484,4027812.0,3947542.0,0.0
1579101519534,3893790.0,3842387.0,0.0
1579101519575,3806388.0,3761428.0,0.0
1579101519625,3740442.0,3738221.0,0.0
1579101519675,3710705.0,3743083.0,0.0
1579101519722,3709964.0,3753435.0,0.0
1579101519772,3713194.0,3761596.0,0.0
1579101519819,3718135.0,3780492.0,0.0
1579101519868,3794785.0,3824843.0,0.0
1579101519918,3776570.0,3767269.0,0.0
1579101519965,3621532.0,3580172.0,0.0
1579101520017,3518287.0,3455542.0,0.0
1579101520062,3481528.0,3406151.0,0.0
1579101520111,3498244.0,3407420.0,0.0
1579101520157,3544053.0,3432647.0,0.0
1579101520208,3575692.0,3458043.0,0.0
1579101520256,3572010.0,3518498.0,0.0
1579101520305,3609681.0,3583813.0,0.0
1579101520358,3629064.0,3655480.0,0.0
1579101520402,3631565.0,3644639.0,0.0
1579101520452,3619923.0,3598218.0,0.0
1579101520499,3642408.0,3600637.0,0.0
1579101520548,3664723.0,3619803.0,0.0
1579101520597,3722837.0,3651281.0,0.0
1579101520651,3837135.0,3726868.0,0.0
1579101520701,3904081.0,3798375.0,0.0
1579101520745,3951953.0,3837275.0,0.0
1579101520791,3941652.0,3809188.0,0.0
1579101520837,3831074.0,3696711.0,0.0
1579101520885,3749054.0,3606139.0,0.0
1579101520937,3742342.0,3582423.0,0.0
1579101520985,3781412.0,3605349.0,0.0
1579101521040,3867763.0,3694971.0,0.0
1579101521082,3952593.0,3755026.0,0.0
1579101521137,4039625.0,3840536.0,0.0
1579101521178,4090967.0,3857491.0,0.0
1579101521234,4097598.0,3842958.0,0.0
1579101521277,4066011.0,3836385.0,0.0
1579101521330,3967067.0,3757787.0,0.0
1579101521376,3896049.0,3698742.0,0.0
1579101521422,3952743.0,3734371.0,0.0
1579101521479,4050328.0,3834725.0,0.0
1579101521518,4124056.0,3910072.0,0.0
1579101521567,4140869.0,3946542.0,0.0
1579101521618,4136649.0,3947792.0,0.0
1579101521667,4146480.0,3946351.0,0.0
1579101521717,4165686.0,3944811.0,0.0
1579101521762,4154853.0,3911994.0,0.0
1579101521812,4175538.0,3949092.0,0.0
1579101521861,4196542.0,3985401.0,0.0
1579101521908,4237933.0,4033834.0,0.0
1579101521964,4256887.0,4035303.0,0.0
1579101522011,4246855.0,4027333.0,0.0
1579101522059,4219790.0,4021050.0,0.0
1579101522106,4194393.0,4023870.0,0.0
1579101522156,4204135.0,4039535.0,0.0
1579101522198,4212837.0,4013628.0,0.0
1579101522250,4190892.0,3989453.0,0.0
1579101522300,4196333.0,4012239.0,0.0
1579101522351,4189251.0,4006306.0,0.0
1579101522395,4169847.0,4005046.0,0.0
1579101522448,4169797.0,4004366.0,0.0
1579101522497,4188391.0,4003945.0,0.0
1579101522536,4214127.0,4021520.0,0.0
1579101522593,4277213.0,4077084.0,0.0
1579101522644,4308571.0,4085656.0,0.0
1579101522688,4254167.0,4080225.0,0.0
1579101522736,4198725.0,3999404.0,0.0
1579101522784,4154573.0,3958444.0,0.0
1579101522837,4102851.0,3949053.0,0.0
1579101522883,4082986.0,3962317.0,0.0
1579101522933,4077535.0,3969588.0,0.0
1579101522984,4128867.0,3993404.0,0.0
1579101523030,4205035.0,4047437.0,0.0
1579101523077,4243525.0,4087517.0,0.0
1579101523121,4183310.0,4012099.0,0.0
1579101523176,4093758.0,3937399.0,0.0
1579101523217,4054328.0,3887928.0,0.0
1579101523272,4070962.0,3878686.0,0.0
1579101523320,4099230.0,3891279.0,0.0
1579101523368,4168506.0,3957095.0,0.0
1579101523416,4203995.0,3993583.0,0.0
1579101523461,4224270.0,4047607.0,0.0
1579101523517,4233173.0,4032453.0,0.0
1579101523560,4151182.0,3953225.0,0.0
1579101523613,4023692.0,3860711.0,0.0
1579101523660,3954974.0,3816860.0,0.0
1579101523707,3923537.0,3804558.0,0.0
1579101523756,3952363.0,3824843.0,0.0
1579101523799,4029903.0,3897441.0,0.0
1579101523856,4073262.0,3938809.0,0.0
1579101523903,4066342.0,3908433.0,0.0
1579101523952,4046516.0,3915914.0,0.0
1579101524001,4026601.0,3878615.0,0.0
1579101524047,3991554.0,3802046.0,0.0
1579101524096,3983132.0,3752935.0,0.0
1579101524145,4024082.0,3792325.0,0.0
1579101524195,4077844.0,3859620.0,0.0
1579101524239,4068112.0,3908323.0,0.0
1579101524284,4121754.0,3928827.0,0.0
1579101524334,4106030.0,3930469.0,0.0
1579101524380,4073583.0,3927147.0,0.0
1579101524433,4050818.0,3925908.0,0.0
1579101524482,3966246.0,3842856.0,0.0
1579101524536,3905883.0,3764347.0,0.0
1579101524586,3952284.0,3795825.0,0.0
1579101524631,3981370.0,3845207.0,0.0
1579101524681,3993043.0,3843616.0,0.0
1579101524728,3974030.0,3824512.0,0.0
1579101524775,3959696.0,3808778.0,0.0
1579101524821,3994333.0,3824073.0,0.0
1579101524876,4024901.0,3828033.0,0.0
1579101524923,4016989.0,3795275.0,0.0
1579101524974,4025252.0,3801916.0,0.0
1579101525023,4067842.0,3837856.0,0.0
1579101525062,4090638.0,3860711.0,0.0
1579101525111,4070572.0,3843957.0,0.0
1579101525161,4050228.0,3836485.0,0.0
