"1573037931953","4928491.0"
"1573037932046","5132852.0"
"1573037932047","5291851.0"
"1573037932139","5491649.0"
"1573037932139","5403477.0"
"1573037932187","5289100.0"
"1573037932229","5232847.0"
"1573037932282","5161049.0"
"1573037932326","5109615.0"
"1573037932375","5093073.0"
"1573037932423","5046491.0"
"1573037932475","4991286.0"
"1573037932520","5089802.0"
"1573037932573","5229364.0"
"1573037932623","5346204.0"
"1573037932668","5448078.0"
"1573037932718","5454589.0"
"1573037932768","5401258.0"
"1573037932817","5325868.0"
"1573037932865","5257912.0"
"1573037932917","5193467.0"
"1573037932963","5148686.0"
"1573037933012","5095822.0"
"1573037933060","5140545.0"
"1573037933110","5116879.0"
"1573037933160","5256722.0"
"1573037933207","5303064.0"
"1573037933258","5280467.0"
"1573037933305","5132231.0"
"1573037933356","4940865.0"
"1573037933402","4801032.0"
"1573037933452","4735565.0"
"1573037933500","4694454.0"
"1573037933550","4643592.0"
"1573037933598","4612274.0"
"1573037933650","4587729.0"
"1573037933697","4570355.0"
"1573037933749","4570945.0"
"1573037933799","4524564.0"
"1573037933847","4432201.0"
"1573037933895","4268621.0"
"1573037933940","4110283.0"
"1573037933995","3972419.0"
"1573037934042","3874824.0"
"1573037934094","3815929.0"
"1573037934140","3753835.0"
"1573037934185","3692361.0"
"1573037934239","3664674.0"
"1573037934287","3663802.0"
"1573037934331","3683728.0"
"1573037934381","3679297.0"
"1573037934430","3591836.0"
"1573037934478","3522998.0"
"1573037934527","3488810.0"
"1573037934579","3458992.0"
"1573037934633","3420013.0"
"1573037934678","3487020.0"
"1573037934724","3529931.0"
"1573037934776","3652061.0"
"1573037934818","3773470.0"
"1573037934873","3934908.0"
"1573037934925","4040716.0"
"1573037934970","4128207.0"
"1573037935020","4221850.0"
"1573037935068","4280653.0"
"1573037935117","4365815.0"
"1573037935170","4435772.0"
"1573037935217","4508290.0"
"1573037935262","4588609.0"
"1573037935314","4637021.0"
"1573037935359","4676750.0"
"1573037935406","4743476.0"
"1573037935460","4762231.0"
"1573037935508","4825646.0"
"1573037935558","4841581.0"
"1573037935607","4827587.0"
"1573037935651","4822066.0"
"1573037935704","4856295.0"
"1573037935753","4895723.0"
"1573037935801","4933794.0"
"1573037935849","4964191.0"
"1573037935900","4998369.0"
"1573037935941","5008812.0"
"1573037935994","5014473.0"
"1573037936041","4989537.0"
"1573037936093","4973202.0"
"1573037936140","4955148.0"
"1573037936193","4979565.0"
"1573037936241","4984756.0"
"1573037936283","4982265.0"
"1573037936335","4979305.0"
"1573037936382","4979145.0"
"1573037936433","4955448.0"
"1573037936479","4924080.0"
"1573037936535","4889622.0"
"1573037936584","4869997.0"
"1573037936637","4866887.0"
"1573037936681","4852494.0"
"1573037936729","4842441.0"
"1573037936778","4825728.0"
"1573037936826","4807783.0"
"1573037936875","4790089.0"
"1573037936926","4739346.0"
"1573037936974","4676079.0"
"1573037937022","4635660.0"
"1573037937065","4622636.0"
"1573037937120","4618676.0"
"1573037937163","4605423.0"
"1573037937213","4586999.0"
"1573037937261","4570055.0"
"1573037937312","4550629.0"
"1573037937367","4519151.0"
"1573037937409","4436492.0"
"1573037937462","4364913.0"
"1573037937511","4326875.0"
"1573037937560","4313622.0"
"1573037937602","4298298.0"
"1573037937660","4277552.0"
"1573037937703","4254917.0"
"1573037937758","4245294.0"
"1573037937806","4238933.0"
"1573037937854","4235233.0"
"1573037937901","4192292.0"
"1573037937951","4120334.0"
"1573037937999","4075044.0"
"1573037938048","4071143.0"
"1573037938111","4080335.0"
"1573037938142","4085296.0"
"1573037938198","4080625.0"
"1573037938243","4072112.0"
"1573037938293","4065210.0"
"1573037938342","4071403.0"
"1573037938391","4074284.0"
"1573037938440","4016688.0"
"1573037938487","3968457.0"
"1573037938538","3958714.0"
"1573037938589","3967628.0"
"1573037938638","3971858.0"
"1573037938683","3966717.0"
"1573037938732","3959936.0"
"1573037938782","3959426.0"
"1573037938829","3955344.0"
"1573037938880","3959604.0"
"1573037938922","3933509.0"
"1573037938978","3890499.0"
"1573037939028","3879206.0"
"1573037939076","3882857.0"
"1573037939126","3891518.0"
"1573037939175","3894078.0"
"1573037939220","3887388.0"
"1573037939269","3894970.0"
"1573037939314","3911474.0"
"1573037939365","3924037.0"
"1573037939412","3897691.0"
"1573037939469","3843646.0"
"1573037939515","3813760.0"
"1573037939563","3813130.0"
"1573037939606","3827693.0"
"1573037939660","3835406.0"
"1573037939713","3831745.0"
"1573037939760","3833014.0"
"1573037939809","3862621.0"
"1573037939858","3900141.0"
"1573037939910","3931329.0"
"1573037939956","3919026.0"
"1573037940003","3929799.0"
"1573037940047","3967047.0"
"1573037940096","3982890.0"
"1573037940148","3982431.0"
"1573037940194","3975749.0"
"1573037940249","3958194.0"
"1573037940297","3944722.0"
"1573037940345","3943141.0"
"1573037940396","3940140.0"
"1573037940443","3866302.0"
"1573037940494","3772220.0"
"1573037940541","3696071.0"
"1573037940593","3662333.0"
"1573037940643","3646019.0"
"1573037940688","3648910.0"
"1573037940737","3634025.0"
"1573037940786","3623413.0"
"1573037940836","3609339.0"
"1573037940883","3602937.0"
"1573037940926","3618811.0"
"1573037940976","3607899.0"
"1573037941027","3599047.0"
"1573037941075","3592935.0"
"1573037941132","3588664.0"
"1573037941173","3601729.0"
"1573037941225","3553915.0"
"1573037941275","3486931.0"
"1573037941323","3448821.0"
"1573037941373","3447190.0"
"1573037941417","3455463.0"
"1573037941470","3409641.0"
"1573037941520","3336643.0"
"1573037941573","3295114.0"
"1573037941611","3297393.0"
"1573037941663","3305175.0"
"1573037941716","3326852.0"
"1573037941763","3361978.0"
"1573037941808","3386256.0"
"1573037941858","3395527.0"
"1573037941909","3417553.0"
"1573037941956","3416823.0"
"1573037942009","3374183.0"
"1573037942057","3303334.0"
"1573037942110","3265456.0"
"1573037942156","3258093.0"
"1573037942204","3280889.0"
"1573037942249","3328672.0"
"1573037942302","3429475.0"
"1573037942347","3503825.0"
"1573037942400","3583453.0"
"1573037942450","3614732.0"
"1573037942498","3643558.0"
"1573037942546","3661293.0"
"1573037942595","3647678.0"
"1573037942640","3656342.0"
"1573037942694","3703702.0"
"1573037942743","3715435.0"
"1573037942787","3690240.0"
"1573037942840","3668754.0"
"1573037942890","3678657.0"
"1573037942938","3685859.0"
"1573037942987","3690250.0"
"1573037943035","3678667.0"
"1573037943083","3629244.0"
"1573037943137","3616162.0"
"1573037943184","3603929.0"
"1573037943231","3608460.0"
"1573037943280","3641378.0"
"1573037943329","3657612.0"
"1573037943378","3661173.0"
"1573037943420","3655421.0"
"1573037943477","3651240.0"
"1573037943523","3615160.0"
"1573037943572","3557928.0"
"1573037943626","3493792.0"
"1573037943669","3448311.0"
"1573037943721","3440648.0"
"1573037943769","3472006.0"
"1573037943819","3594727.0"
"1573037943866","3745284.0"
"1573037943916","3820452.0"
"1573037943964","3847458.0"
"1573037944011","3868763.0"
"1573037944063","3896271.0"
"1573037944116","3904963.0"
"1573037944166","3936010.0"
"1573037944210","3948582.0"
"1573037944254","4052549.0"
"1573037944306","4066551.0"
"1573037944357","4031764.0"
"1573037944404","4033623.0"
"1573037944452","4043115.0"
"1573037944503","4042266.0"
"1573037944555","4061271.0"
"1573037944618","4088897.0"
"1573037944645","4151151.0"
"1573037944698","4169496.0"
"1573037944747","4148071.0"
"1573037944797","4134188.0"
"1573037944844","4136238.0"
"1573037944890","4156934.0"
"1573037944942","4177938.0"
"1573037944993","4187731.0"
"1573037945033","4229351.0"
"1573037945084","4203985.0"
"1573037945141","4143650.0"
"1573037945185","4097448.0"
"1573037945237","4063591.0"
"1573037945283","4050907.0"
"1573037945332","4069603.0"
"1573037945382","4138148.0"
"1573037945426","4160274.0"
"1573037945480","4192392.0"
"1573037945524","4223569.0"
"1573037945578","4228971.0"
"1573037945628","4230460.0"
"1573037945679","4242015.0"
"1573037945723","4246735.0"
"1573037945772","4217608.0"
"1573037945822","4196254.0"
"1573037945870","4165975.0"
"1573037945920","4146551.0"
"1573037945968","4157563.0"
"1573037946014","4172818.0"
"1573037946059","4198595.0"
"1573037946117","4266910.0"
"1573037946158","4478451.0"
"1573037946213","4557732.0"
"1573037946257","4549329.0"
"1573037946311","4504888.0"
"1573037946354","4469869.0"
"1573037946405","4432211.0"
"1573037946455","4423478.0"
"1573037946502","4438873.0"
"1573037946555","4484093.0"
"1573037946608","4490756.0"
"1573037946652","4425819.0"
"1573037946697","4393801.0"
"1573037946747","4355122.0"
"1573037946796","4323685.0"
"1573037946844","4319223.0"
"1573037946895","4350640.0"
"1573037946941","4371137.0"
"1573037946994","4408265.0"
"1573037947039","4448516.0"
"1573037947094","4453697.0"
"1573037947137","4460338.0"
"1573037947186","4463668.0"
"1573037947236","4475180.0"
"1573037947284","4474790.0"
"1573037947336","4493336.0"
"1573037947381","4505049.0"
"1573037947435","4449655.0"
"1573037947479","4433891.0"
"1573037947528","4439692.0"
"1573037947577","4462029.0"
"1573037947630","4498356.0"
"1573037947677","4531644.0"
"1573037947724","4531254.0"
"1573037947775","4593649.0"
"1573037947821","4555611.0"
"1573037947876","4545889.0"
"1573037947918","4561911.0"
"1573037947968","4578537.0"
"1573037948017","4588950.0"
"1573037948066","4619546.0"
"1573037948120","4618317.0"
"1573037948164","4591069.0"
"1573037948216","4452116.0"
"1573037948260","4362624.0"
"1573037948311","4355951.0"
"1573037948359","4384038.0"
"1573037948408","4428590.0"
"1573037948457","4512461.0"
"1573037948505","4649784.0"
"1573037948557","4685982.0"
"1573037948604","4690123.0"
"1573037948658","4686203.0"
"1573037948703","4694215.0"
"1573037948755","4694954.0"
"1573037948799","4718321.0"
"1573037948853","4776504.0"
"1573037948896","4909647.0"
"1573037948950","4961280.0"
"1573037949001","4901995.0"
"1573037949047","4886562.0"
"1573037949104","4889183.0"
"1573037949139","4895504.0"
"1573037949195","4933453.0"
"1573037949239","4956810.0"
"1573037949292","5069907.0"
"1573037949335","5123258.0"
"1573037949389","5109625.0"
"1573037949439","5082760.0"
"1573037949486","5074708.0"
"1573037949541","5066506.0"
"1573037949587","5093802.0"
"1573037949636","5123360.0"
"1573037949683","5179643.0"
"1573037949733","5186056.0"
"1573037949775","5130922.0"
"1573037949829","5101265.0"
"1573037949879","5068775.0"
"1573037949927","5062395.0"
"1573037949982","5057544.0"
"1573037950020","5354936.0"
"1573037950076","5262854.0"
"1573037950119","5344944.0"
"1573037950180","5337031.0"
"1573037950216","5257902.0"
"1573037950264","5233806.0"
"1573037950322","5184975.0"
"1573037950363","5127111.0"
"1573037950421","5107076.0"
"1573037950466","5090791.0"
"1573037950517","5039069.0"
"1573037950564","4949406.0"
"1573037950618","4915189.0"
"1573037950660","4881830.0"
"1573037950711","4831418.0"
"1573037950762","4830738.0"
"1573037950808","4919100.0"
"1573037950860","4900486.0"
"1573037950906","4889902.0"
"1573037950955","4870757.0"
"1573037951004","4857155.0"
"1573037951053","4840401.0"
"1573037951103","4850153.0"
"1573037951144","4835559.0"
"1573037951201","4790828.0"
"1573037951241","4745817.0"
"1573037951293","4660496.0"
"1573037951346","4587028.0"
"1573037951395","4555392.0"
"1573037951443","4539757.0"
"1573037951492","4509669.0"
"1573037951535","4493336.0"
"1573037951593","4461917.0"
"1573037951641","4382409.0"
"1573037951687","4339588.0"
"1573037951735","4309270.0"
"1573037951785","4303158.0"
"1573037951835","4294956.0"
"1573037951883","4305440.0"
"1573037951932","4326156.0"
"1573037951981","4367975.0"
"1573037952029","4426469.0"
"1573037952082","4379828.0"
"1573037952134","4322214.0"
"1573037952178","4291557.0"
"1573037952224","4284054.0"
"1573037952274","4281925.0"
"1573037952317","4289867.0"
"1573037952372","4323884.0"
"1573037952423","4391090.0"
"1573037952469","4444034.0"
"1573037952519","4491725.0"
"1573037952566","4539798.0"
"1573037952610","4560983.0"
"1573037952660","4572895.0"
"1573037952711","4563074.0"
"1573037952759","4607934.0"
"1573037952808","4623047.0"
"1573037952859","4609214.0"
"1573037952909","4585638.0"
"1573037952958","4616395.0"
"1573037953008","4631789.0"
"1573037953055","4654035.0"
"1573037953101","4691374.0"
"1573037953157","4736885.0"
"1573037953199","4772414.0"
"1573037953247","4814754.0"
"1573037953298","4855974.0"
"1573037953345","4884000.0"
"1573037953394","4895583.0"
"1573037953440","4901085.0"
"1573037953492","4925051.0"
"1573037953540","4961019.0"
"1573037953592","4974594.0"
"1573037953637","4965040.0"
"1573037953697","4924871.0"
"1573037953743","4914198.0"
"1573037953800","4914019.0"
"1573037953836","4946616.0"
"1573037953883","5004690.0"
"1573037953933","5073408.0"
"1573037953981","5098723.0"
"1573037954031","5081090.0"
"1573037954082","5078499.0"
"1573037954135","5074098.0"
"1573037954182","5090501.0"
"1573037954232","5114347.0"
"1573037954281","5157727.0"
"1573037954327","5186084.0"
"1573037954376","5132621.0"
"1573037954421","5081480.0"
"1573037954478","5057852.0"
"1573037954527","5061174.0"
"1573037954574","5066676.0"
"1573037954623","5075378.0"
"1573037954665","5093091.0"
"1573037954721","5110806.0"
"1573037954768","5103995.0"
"1573037954815","5091271.0"
"1573037954861","5062215.0"
"1573037954919","5047730.0"
"1573037954963","5055122.0"
"1573037955015","5046800.0"
"1573037955064","5066666.0"
"1573037955111","5059464.0"
"1573037955157","5012612.0"
"1573037955209","4983986.0"
"1573037955257","4951517.0"
"1573037955309","4946596.0"
"1573037955360","4937734.0"
"1573037955406","4997908.0"
"1573037955456","5101374.0"
"1573037955502","5129352.0"
"1573037955552","5121249.0"
"1573037955600","5114187.0"
"1573037955644","5104664.0"
"1573037955696","5111907.0"
"1573037955745","5137052.0"
"1573037955799","5108855.0"
"1573037955844","5111787.0"
"1573037955896","5163739.0"
"1573037955944","5113858.0"
"1573037955989","5060134.0"
"1573037956039","5012482.0"
"1573037956087","5005811.0"
"1573037956136","5016783.0"
"1573037956181","5043460.0"
"1573037956236","5148946.0"
"1573037956279","5233405.0"
"1573037956335","5285069.0"
"1573037956383","5309084.0"
"1573037956425","5319657.0"
"1573037956479","5326789.0"
"1573037956523","5331370.0"
"1573037956576","5318897.0"
"1573037956628","5360467.0"
"1573037956670","5384334.0"
"1573037956725","5376942.0"
"1573037956772","5333020.0"
"1573037956823","5309935.0"
"1573037956865","5303684.0"
"1573037956921","5306004.0"
"1573037956963","5352254.0"
"1573037957017","5419552.0"
"1573037957066","5491669.0"
"1573037957117","5506064.0"
"1573037957158","5515016.0"
"1573037957211","5489030.0"
"1573037957263","5510924.0"
"1573037957310","5497222.0"
"1573037957362","5498550.0"
"1573037957404","5548633.0"
"1573037957456","5540382.0"
"1573037957505","5508423.0"
"1573037957554","5468344.0"
"1573037957604","5441438.0"
"1573037957646","5442998.0"
"1573037957695","5484928.0"
"1573037957745","5564038.0"
"1573037957796","5646077.0"
"1573037957842","5686227.0"
"1573037957895","5657140.0"
"1573037957944","5618251.0"
"1573037957995","5590714.0"
"1573037958044","5571258.0"
"1573037958087","5584963.0"
"1573037958140","5613990.0"
"1573037958184","5694138.0"
"1573037958241","5707083.0"
"1573037958285","5658311.0"
"1573037958338","5591543.0"
"1573037958386","5561437.0"
"1573037958429","5571059.0"
"1573037958485","5586102.0"
"1573037958525","5618950.0"
"1573037958583","5658821.0"
"1573037958626","5659310.0"
"1573037958680","5619051.0"
"1573037958727","5591893.0"
"1573037958779","5575409.0"
"1573037958827","5542751.0"
"1573037958873","5500312.0"
"1573037958925","5464502.0"
"1573037958965","5449500.0"
"1573037959022","5341013.0"
"1573037959066","5257081.0"
"1573037959120","5219693.0"
"1573037959166","5206830.0"
"1573037959218","5181474.0"
"1573037959259","5147875.0"
"1573037959308","5115408.0"
"1573037959365","5068856.0"
"1573037959406","5046901.0"
"1573037959454","5021604.0"
"1573037959506","4992347.0"
"1573037959553","4980624.0"
"1573037959602","4972363.0"
"1573037959651","4976784.0"
"1573037959701","4898915.0"
"1573037959746","4819486.0"
"1573037959803","4739175.0"
"1573037959846","4701927.0"
"1573037959903","4681372.0"
"1573037959947","4693644.0"
"1573037959997","4672800.0"
"1573037960048","4662408.0"
"1573037960095","4626937.0"
"1573037960140","4605043.0"
"1573037960188","4561261.0"
"1573037960244","4507010.0"
"1573037960284","4475552.0"
"1573037960342","4461379.0"
"1573037960388","4496956.0"
"1573037960433","4562113.0"
"1573037960488","4546998.0"
"1573037960535","4461129.0"
"1573037960585","4423669.0"
"1573037960628","4406544.0"
"1573037960683","4366155.0"
"1573037960727","4304940.0"
"1573037960780","4277753.0"
"1573037960831","4263190.0"
"1573037960879","4249937.0"
"1573037960927","4260638.0"
"1573037960975","4262318.0"
"1573037961025","4265230.0"
"1573037961066","4249886.0"
"1573037961124","4181859.0"
"1573037961166","4128036.0"
"1573037961222","4090237.0"
"1573037961270","4011227.0"
"1573037961315","3957845.0"
"1573037961368","3923756.0"
"1573037961411","3922397.0"
"1573037961465","3940352.0"
"1573037961507","3931469.0"
"1573037961564","3878536.0"
"1573037961609","3834684.0"
"1573037961655","3837986.0"
"1573037961711","3837456.0"
"1573037961758","3825082.0"
"1573037961806","3849988.0"
"1573037961852","3846078.0"
"1573037961904","3872144.0"
"1573037961948","3889688.0"
"1573037962003","3843256.0"
"1573037962049","3791425.0"
"1573037962101","3737390.0"
"1573037962140","3680008.0"
"1573037962195","3663384.0"
"1573037962240","3686568.0"
"1573037962292","3807069.0"
"1573037962340","3838455.0"
"1573037962388","3865293.0"
"1573037962436","3874304.0"
"1573037962491","3865313.0"
"1573037962539","3847308.0"
"1573037962590","3840036.0"
"1573037962632","3842958.0"
"1573037962686","3877585.0"
"1573037962728","3885886.0"
"1573037962779","3845518.0"
"1573037962831","3817120.0"
"1573037962878","3835546.0"
"1573037962927","3857101.0"
"1573037962981","3872715.0"
"1573037963029","3851589.0"
"1573037963075","3802016.0"
"1573037963127","3784913.0"
"1573037963169","3781682.0"
"1573037963226","3794224.0"
"1573037963270","3814320.0"
"1573037963323","3831273.0"
"1573037963371","3855041.0"
"1573037963418","3873414.0"
"1573037963469","3902882.0"
"1573037963516","3860091.0"
"1573037963569","3802467.0"
"1573037963610","3787773.0"
"1573037963659","3807849.0"
"1573037963712","3831673.0"
"1573037963763","3841275.0"
"1573037963811","3865063.0"
"1573037963860","3865211.0"
"1573037963909","3847379.0"
"1573037963951","3859472.0"
"1573037964007","3867654.0"
"1573037964052","3870874.0"
"1573037964105","3886707.0"
"1573037964151","3893410.0"
"1573037964203","3925317.0"
"1573037964252","3924646.0"
"1573037964299","3868513.0"
"1573037964348","3860010.0"
"1573037964393","3832775.0"
"1573037964439","3827874.0"
"1573037964491","3808558.0"
"1573037964545","3798816.0"
"1573037964594","3789874.0"
"1573037964643","3773669.0"
"1573037964683","3784823.0"
"1573037964732","3798765.0"
"1573037964780","3813059.0"
"1573037964831","3810759.0"
"1573037964880","3787883.0"
"1573037964931","3781491.0"
"1573037964977","3814211.0"
"1573037965034","3834225.0"
"1573037965077","3821421.0"
"1573037965133","3813589.0"
"1573037965176","3840776.0"
"1573037965232","3861071.0"
"1573037965272","3826054.0"
"1573037965327","3772860.0"
"1573037965372","3698872.0"
"1573037965427","3702052.0"
"1573037965473","3728729.0"
"1573037965525","3760237.0"
"1573037965573","3780752.0"
"1573037965621","3801906.0"
"1573037965664","3807908.0"
"1573037965713","3822673.0"
"1573037965769","3810009.0"
"1573037965815","3753114.0"
"1573037965865","3750274.0"
"1573037965915","3768638.0"
"1573037965964","3778001.0"
"1573037966013","3763978.0"
"1573037966057","3797016.0"
"1573037966111","3819501.0"
"1573037966155","3807878.0"
"1573037966208","3843047.0"
"1573037966254","3858100.0"
"1573037966306","3875265.0"
"1573037966356","3873225.0"
"1573037966403","3877516.0"
"1573037966450","3904221.0"
"1573037966495","3921785.0"
"1573037966550","3821901.0"
"1573037966593","3793115.0"
"1573037966642","3813250.0"
"1573037966694","3833134.0"
"1573037966745","3834756.0"
"1573037966796","3858881.0"
"1573037966840","3936810.0"
"1573037966893","4122835.0"
"1573037966934","4163134.0"
"1573037966991","4183519.0"
"1573037967034","4184421.0"
"1573037967089","4191392.0"
"1573037967135","4200145.0"
"1573037967180","4193993.0"
"1573037967237","4210466.0"
"1573037967278","4189771.0"
"1573037967333","4118954.0"
"1573037967374","4093817.0"
"1573037967431","4102129.0"
"1573037967475","4133077.0"
"1573037967528","4159244.0"
"1573037967576","4260979.0"
"1573037967622","4302659.0"
"1573037967668","4248155.0"
"1573037967718","4195183.0"
"1573037967772","4170437.0"
"1573037967817","4169266.0"
"1573037967865","4183740.0"
"1573037967918","4225470.0"
"1573037967962","4270900.0"
"1573037968016","4348700.0"
"1573037968058","4321123.0"
"1573037968114","4241814.0"
"1573037968159","4192412.0"
"1573037968212","4203424.0"
"1573037968258","4233482.0"
"1573037968309","4291216.0"
"1573037968360","4365464.0"
"1573037968400","4437412.0"
"1573037968458","4441213.0"
"1573037968498","4419667.0"
"1573037968554","4418667.0"
"1573037968597","4419728.0"
"1573037968646","4437032.0"
"1573037968700","4494616.0"
"1573037968747","4578677.0"
"1573037968800","4615415.0"
"1573037968844","4570225.0"
"1573037968898","4521953.0"
"1573037968937","4514870.0"
"1573037968994","4556850.0"
"1573037969037","4602242.0"
"1573037969088","4671719.0"
"1573037969139","4740677.0"
"1573037969184","4766602.0"
"1573037969237","4773335.0"
"1573037969287","4758991.0"
"1573037969337","4748568.0"
"1573037969377","4753479.0"
"1573037969434","4776706.0"
"1573037969478","4821286.0"
"1573037969528","4839210.0"
"1573037969579","4764883.0"
"1573037969624","4675541.0"
"1573037969677","4686683.0"
"1573037969721","4693904.0"
"1573037969777","4693694.0"
"1573037969817","4706637.0"
"1573037969873","4707187.0"
"1573037969917","4652314.0"
"1573037969971","4590279.0"
"1573037970019","4571656.0"
"1573037970069","4557732.0"
"1573037970116","4553890.0"
"1573037970162","4547898.0"
"1573037970216","4559922.0"
"1573037970258","4601803.0"
"1573037970313","4653874.0"
"1573037970359","4597680.0"
"1573037970411","4560333.0"
"1573037970462","4537707.0"
"1573037970502","4493565.0"
"1573037970554","4482202.0"
"1573037970599","4515230.0"
"1573037970649","4507670.0"
"1573037970699","4550721.0"
"1573037970754","4579606.0"
"1573037970799","4600212.0"
"1573037970851","4611565.0"
"1573037970900","4639392.0"
"1573037970947","4637980.0"
"1573037970995","4614265.0"
"1573037971044","4664797.0"
"1573037971096","4677491.0"
"1573037971138","4671069.0"
"1573037971186","4680641.0"
"1573037971244","4664827.0"
"1573037971292","4654736.0"
"1573037971337","4623018.0"
"1573037971386","4574996.0"
"1573037971436","4658616.0"
"1573037971483","4706448.0"
"1573037971535","4752479.0"
"1573037971576","4796570.0"
"1573037971633","4788918.0"
"1573037971680","4791919.0"
"1573037971731","4795520.0"
"1573037971779","4847292.0"
"1573037971826","4919789.0"
"1573037971876","4923991.0"
"1573037971923","4896633.0"
"1573037971977","4860724.0"
"1573037972016","4892243.0"
"1573037972072","4890302.0"
"1573037972123","4929422.0"
"1573037972171","4987956.0"
"1573037972220","5023106.0"
"1573037972265","5024375.0"
"1573037972316","5021114.0"
"1573037972359","5022484.0"
"1573037972417","5015283.0"
"1573037972464","5008912.0"
"1573037972512","4981804.0"
"1573037972560","5022644.0"
"1573037972610","5008211.0"
"1573037972654","4946767.0"
"1573037972705","4915789.0"
"1573037972755","4912388.0"
"1573037972799","4898755.0"
"1573037972855","4891794.0"
"1573037972905","4899864.0"
"1573037972952","4899785.0"
"1573037973000","4871308.0"
"1573037973051","4859266.0"
"1573037973100","4923491.0"
"1573037973142","4958090.0"
"1573037973192","4990256.0"
"1573037973239","5012313.0"
"1573037973296","5048421.0"
"1573037973346","5055754.0"
"1573037973393","4991368.0"
"1573037973440","4929952.0"
"1573037973491","4894063.0"
"1573037973537","4897895.0"
"1573037973587","4902385.0"
"1573037973631","4877659.0"
"1573037973679","4837069.0"
"1573037973728","4794959.0"
"1573037973778","4763552.0"
"1573037973826","4743558.0"
"1573037973881","4774235.0"
"1573037973931","4847262.0"
"1573037973980","4863707.0"
"1573037974027","4821995.0"
"1573037974073","4804981.0"
"1573037974121","4718210.0"
"1573037974170","4732885.0"
"1573037974219","4773154.0"
"1573037974267","4822846.0"
"1573037974317","4847861.0"
"1573037974364","4894884.0"
"1573037974415","4969311.0"
"1573037974462","4970063.0"
"1573037974513","4970203.0"
"1573037974562","4961899.0"
"1573037974610","4949747.0"
"1573037974662","4927721.0"
"1573037974707","4921220.0"
"1573037974757","4906337.0"
"1573037974803","4936194.0"
"1573037974856","4882952.0"
"1573037974902","4869508.0"
"1573037974952","4898025.0"
"1573037975001","4859304.0"
"1573037975049","4778406.0"
"1573037975101","4742135.0"
"1573037975146","4804762.0"
"1573037975195","4846122.0"
"1573037975243","4810703.0"
"1573037975294","4782177.0"
"1573037975342","4759970.0"
"1573037975399","4721322.0"
"1573037975440","4665228.0"
"1573037975495","4637192.0"
"1573037975546","4611474.0"
"1573037975597","4578247.0"
"1573037975640","4524982.0"
"1573037975694","4460428.0"
"1573037975742","4421617.0"
"1573037975787","4398882.0"
"1573037975841","4394101.0"
"1573037975881","4388209.0"
"1573037975938","4382949.0"
"1573037975983","4384818.0"
"1573037976037","4373877.0"
"1573037976084","4383658.0"
"1573037976132","4402474.0"
"1573037976181","4415546.0"
"1573037976229","4423998.0"
"1573037976273","4424769.0"
"1573037976322","4419248.0"
"1573037976374","4355291.0"
"1573037976422","4293036.0"
"1573037976471","4275852.0"
"1573037976518","4276392.0"
"1573037976572","4307480.0"
"1573037976623","4336008.0"
"1573037976665","4388089.0"
"1573037976721","4397923.0"
"1573037976763","4354141.0"
"1573037976817","4316972.0"
"1573037976866","4310412.0"
"1573037976917","4347180.0"
"1573037976965","4346311.0"
"1573037977012","4366244.0"
"1573037977063","4393591.0"
"1573037977104","4432270.0"
"1573037977155","4411985.0"
"1573037977210","4378487.0"
"1573037977257","4358773.0"
"1573037977306","4376968.0"
"1573037977356","4455527.0"
"1573037977404","4633140.0"
"1573037977448","4835750.0"
"1573037977504","4925452.0"
"1573037977543","4921620.0"
"1573037977601","4891993.0"
"1573037977643","4886391.0"
"1573037977697","4889043.0"
"1573037977746","4897174.0"
"1573037977790","4952088.0"
"1573037977846","4990748.0"
"1573037977892","4986776.0"
"1573037977943","4930133.0"
"1573037977983","4894654.0"
"1573037978043","4893102.0"
"1573037978084","4890022.0"
"1573037978136","4900605.0"
"1573037978187","4952407.0"
"1573037978236","5035877.0"
"1573037978285","5009011.0"
"1573037978328","4988086.0"
"1573037978383","4963470.0"
"1573037978424","4944916.0"
"1573037978481","4952427.0"
"1573037978526","4951738.0"
"1573037978579","4981705.0"
"1573037978627","4980154.0"
"1573037978669","4971912.0"
"1573037978724","4913038.0"
"1573037978768","4845352.0"
"1573037978822","4886731.0"
"1573037978865","4900325.0"
"1573037978922","4940785.0"
"1573037978968","5019513.0"
"1573037979013","5126119.0"
"1573037979067","5195176.0"
"1573037979115","5245009.0"
"1573037979160","5245009.0"
"1573037979214","5233107.0"
"1573037979263","5220063.0"
"1573037979307","5228925.0"
"1573037979361","5284289.0"
"1573037979408","5304744.0"
"1573037979456","5337461.0"
"1573037979506","5213992.0"
"1573037979557","5186025.0"
"1573037979605","5206540.0"
"1573037979648","5243219.0"
"1573037979704","5264664.0"
"1573037979748","5299262.0"
"1573037979802","5324279.0"
"1573037979848","5327819.0"
"1573037979899","5300912.0"
"1573037979947","5255812.0"
"1573037979995","5229305.0"
"1573037980045","5190676.0"
"1573037980086","5174473.0"
"1573037980139","5205459.0"
"1573037980186","5243068.0"
"1573037980243","5177912.0"
"1573037980290","5081719.0"
"1573037980339","5017933.0"
"1573037980387","5002680.0"
"1573037980434","4989037.0"
"1573037980486","5010113.0"
"1573037980526","5098534.0"
"1573037980577","5155947.0"
"1573037980626","5190755.0"
"1573037980674","5172992.0"
"1573037980727","5157829.0"
"1573037980775","5156908.0"
"1573037980823","5126361.0"
"1573037980870","5139224.0"
"1573037980926","5168280.0"
"1573037980969","5126379.0"
"1573037981025","5021525.0"
"1573037981067","4988667.0"
"1573037981123","4983336.0"
"1573037981173","4966162.0"
"1573037981221","4904356.0"
"1573037981268","4843960.0"
"1573037981317","4812103.0"
"1573037981366","4834799.0"
"1573037981409","4840531.0"
"1573037981457","4931783.0"
"1573037981508","4962809.0"
"1573037981563","4930342.0"
"1573037981611","4878000.0"
"1573037981654","4818255.0"
"1573037981710","4831439.0"
"1573037981758","4753598.0"
"1573037981806","4695115.0"
"1573037981848","4649474.0"
"1573037981904","4660026.0"
"1573037981952","4664257.0"
"1573037982003","4690413.0"
"1573037982052","4689664.0"
"1573037982101","4673479.0"
"1573037982145","4629189.0"
"1573037982193","4607144.0"
"1573037982246","4607504.0"
"1573037982288","4608574.0"
"1573037982336","4625438.0"
"1573037982390","4662977.0"
"1573037982438","4738755.0"
"1573037982486","4713539.0"
"1573037982533","4633090.0"
"1573037982589","4585847.0"
"1573037982635","4560542.0"
"1573037982688","4566304.0"
"1573037982729","4562492.0"
"1573037982782","4593649.0"
"1573037982830","4658866.0"
"1573037982881","4624788.0"
"1573037982931","4585518.0"
"1573037982979","4558701.0"
"1573037983029","4540527.0"
"1573037983076","4508879.0"
"1573037983127","4454416.0"
"1573037983169","4457088.0"
"1573037983224","4446935.0"
"1573037983272","4441543.0"
"1573037983323","4425230.0"
"1573037983371","4368526.0"
"1573037983419","4318724.0"
"1573037983461","4285395.0"
"1573037983511","4295728.0"
"1573037983566","4283615.0"
"1573037983610","4248716.0"
"1573037983659","4268710.0"
"1573037983712","4286175.0"
"1573037983762","4295127.0"
"1573037983811","4269171.0"
"1573037983856","4215188.0"
"1573037983908","4194003.0"
"1573037983951","4190281.0"
"1573037984006","4199094.0"
"1573037984053","4196254.0"
"1573037984105","4201945.0"
"1573037984147","4224040.0"
"1573037984196","4271022.0"
"1573037984251","4288865.0"
"1573037984299","4304410.0"
"1573037984348","4273162.0"
"1573037984391","4271652.0"
"1573037984447","4270971.0"
"1573037984493","4282603.0"
"1573037984543","4291417.0"
"1573037984593","4315172.0"
"1573037984638","4345469.0"
"1573037984691","4362274.0"
"1573037984737","4357313.0"
"1573037984788","4303559.0"
"1573037984832","4277593.0"
"1573037984886","4294907.0"
"1573037984932","4314382.0"
"1573037984982","4328986.0"
"1573037985033","4366695.0"
"1573037985079","4392852.0"
"1573037985131","4382029.0"
"1573037985173","4355482.0"
"1573037985227","4356992.0"
"1573037985276","4378467.0"
"1573037985319","4396332.0"
"1573037985375","4410676.0"
"1573037985422","4423728.0"
"1573037985465","4432621.0"
"1573037985516","4384479.0"
"1573037985570","4324484.0"
"1573037985614","4265530.0"
"1573037985663","4281344.0"
"1573037985715","4299548.0"
"1573037985765","4362154.0"
"1573037985815","4388740.0"
"1573037985863","4457187.0"
"1573037985913","4461988.0"
"1573037985954","4441573.0"
"1573037986010","4404484.0"
"1573037986054","4342249.0"
"1573037986107","4338267.0"
"1573037986154","4356232.0"
"1573037986200","4421989.0"
"1573037986256","4428460.0"
"1573037986298","4397712.0"
"1573037986344","4356272.0"
"1573037986395","4305590.0"
"1573037986442","4275793.0"
"1573037986494","4253027.0"
"1573037986542","4262660.0"
"1573037986593","4241995.0"
"1573037986640","4240715.0"
"1573037986692","4243744.0"
"1573037986742","4242145.0"
"1573037986793","4240814.0"
"1573037986834","4230432.0"
"1573037986890","4196412.0"
"1573037986935","4201333.0"
"1573037986990","4203715.0"
"1573037987034","4171727.0"
"1573037987088","4157793.0"
"1573037987139","4153073.0"
"1573037987182","4170248.0"
"1573037987234","4169746.0"
"1573037987275","4154563.0"
"1573037987332","4117753.0"
"1573037987374","4108501.0"
"1573037987425","4098970.0"
"1573037987476","4150952.0"
"1573037987523","4243165.0"
"1573037987573","4315552.0"
"1573037987621","4363934.0"
"1573037987670","4405065.0"
"1573037987717","4433292.0"
"1573037987774","4375168.0"
"1573037987815","4319774.0"
"1573037987871","4332546.0"
"1573037987920","4375206.0"
"1573037987967","4387870.0"
"1573037988015","4424519.0"
"1573037988061","4434490.0"
"1573037988118","4429320.0"
"1573037988159","4400583.0"
"1573037988208","4409335.0"
"1573037988257","4417466.0"
"1573037988312","4429720.0"
"1573037988356","4450586.0"
"1573037988410","4461037.0"
"1573037988459","4507048.0"
"1573037988505","4483043.0"
"1573037988559","4435622.0"
"1573037988599","4388171.0"
"1573037988649","4362955.0"
"1573037988699","4343198.0"
"1573037988753","4332346.0"
"1573037988796","4359113.0"
"1573037988851","4387579.0"
"1573037988898","4425760.0"
"1573037988947","4408994.0"
"1573037988996","4386529.0"
"1573037989044","4371716.0"
"1573037989096","4345250.0"
"1573037989136","4352682.0"
"1573037989194","4392681.0"
"1573037989236","4425990.0"
"1573037989285","4388000.0"
"1573037989338","4371636.0"
"1573037989390","4382559.0"
"1573037989435","4399333.0"
"1573037989487","4391631.0"
"1573037989537","4430510.0"
"1573037989579","4448205.0"
"1573037989636","4433881.0"
"1573037989682","4423139.0"
"1573037989732","4429271.0"
"1573037989782","4435531.0"
"1573037989830","4443674.0"
"1573037989875","4471100.0"
"1573037989919","4464719.0"
"1573037989978","4451445.0"
"1573037990019","4411765.0"
"1573037990075","4386679.0"
"1573037990116","4396021.0"
"1573037990172","4410475.0"
"1573037990219","4426010.0"
"1573037990271","4446104.0"
"1573037990315","4457896.0"
"1573037990363","4462268.0"
"1573037990408","4434480.0"
"1573037990457","4405304.0"
"1573037990507","4392301.0"
"1573037990560","4376356.0"
"1573037990611","4369865.0"
"1573037990655","4408864.0"
"1573037990706","4452195.0"
"1573037990754","4429761.0"
"1573037990804","4383288.0"
"1573037990857","4353442.0"
"1573037990897","4335006.0"
"1573037990954","4320093.0"
"1573037991002","4324965.0"
"1573037991051","4348871.0"
"1573037991099","4387271.0"
"1573037991143","4415937.0"
"1573037991195","4443564.0"
"1573037991239","4458357.0"
"1573037991297","4472031.0"
"1573037991338","4449724.0"
"1573037991393","4463248.0"
"1573037991444","4518141.0"
"1573037991491","4525502.0"
"1573037991540","4460739.0"
"1573037991589","4447985.0"
"1573037991635","4458617.0"
"1573037991684","4502298.0"
"1573037991738","4551241.0"
"1573037991777","4582928.0"
"1573037991835","4624709.0"
"1573037991885","4607774.0"
"1573037991931","4588619.0"
"1573037991979","4577997.0"
"1573037992030","4582698.0"
"1573037992075","4590750.0"
"1573037992123","4602922.0"
"1573037992178","4633500.0"
"1573037992217","4653255.0"
"1573037992266","4604042.0"
"1573037992324","4556422.0"
"1573037992363","4531234.0"
"1573037992415","4535296.0"
"1573037992462","4552960.0"
"1573037992514","4564012.0"
"1573037992560","4587619.0"
"1573037992618","4606283.0"
"1573037992660","4627699.0"
"1573037992715","4625497.0"
"1573037992766","4619176.0"
"1573037992812","4604432.0"
"1573037992859","4599852.0"
"1573037992908","4592739.0"
"1573037992956","4602632.0"
"1573037993001","4587849.0"
"1573037993058","4558232.0"
"1573037993106","4542238.0"
"1573037993148","4516201.0"
"1573037993205","4485323.0"
"1573037993250","4477893.0"
"1573037993302","4499167.0"
"1573037993350","4522843.0"
"1573037993395","4541448.0"
"1573037993443","4512119.0"
"1573037993497","4496867.0"
"1573037993542","4499047.0"
"1573037993595","4484713.0"
"1573037993638","4446685.0"
"1573037993689","4462047.0"
"1573037993739","4450846.0"
"1573037993788","4407044.0"
"1573037993835","4357892.0"
"1573037993880","4347741.0"
"1573037993938","4360553.0"
"1573037993984","4344470.0"
"1573037994035","4343998.0"
"1573037994084","4319463.0"
"1573037994130","4346969.0"
"1573037994181","4362305.0"
"1573037994223","4375537.0"
"1573037994279","4383339.0"
"1573037994320","4406274.0"
"1573037994379","4441522.0"
"1573037994422","4481393.0"
"1573037994468","4533605.0"
"1573037994525","4514620.0"
"1573037994572","4448814.0"
"1573037994622","4427609.0"
"1573037994664","4448605.0"
"1573037994721","4477612.0"
"1573037994760","4496237.0"
"1573037994814","4475891.0"
"1573037994863","4499218.0"
"1573037994917","4503348.0"
"1573037994960","4491564.0"
"1573037995006","4501717.0"
"1573037995057","4492466.0"
"1573037995105","4486263.0"
"1573037995155","4506918.0"
"1573037995203","4518532.0"
"1573037995253","4488815.0"
"1573037995302","4563693.0"
"1573037995350","4621407.0"
"1573037995396","4663127.0"
"1573037995447","4616856.0"
"1573037995496","4547579.0"
"1573037995545","4517201.0"
"1573037995596","4536527.0"
"1573037995644","4525763.0"
"1573037995692","4527575.0"
"1573037995741","4515722.0"
"1573037995790","4505748.0"
"1573037995838","4537376.0"
"1573037995888","4495457.0"
"1573037995937","4512841.0"
"1573037995985","4447075.0"
"1573037996042","4386119.0"
"1573037996081","4352162.0"
"1573037996137","4338769.0"
"1573037996189","4313102.0"
"1573037996229","4350051.0"
"1573037996285","4365173.0"
"1573037996332","4363633.0"
"1573037996384","4327545.0"
"1573037996424","4313272.0"
"1573037996475","4333517.0"
"1573037996523","4343239.0"
"1573037996577","4341508.0"
"1573037996625","4350780.0"
"1573037996677","4392490.0"
"1573037996726","4399762.0"
"1573037996776","4342828.0"
"1573037996824","4270541.0"
"1573037996867","4219229.0"
"1573037996922","4210316.0"
"1573037996963","4182950.0"
"1573037997021","4218699.0"
"1573037997065","4256237.0"
"1573037997116","4282343.0"
"1573037997163","4302699.0"
"1573037997216","4398183.0"
"1573037997265","4422869.0"
"1573037997308","4415236.0"
"1573037997363","4436902.0"
"1573037997403","4451476.0"
"1573037997454","4495205.0"
"1573037997504","4460137.0"
"1573037997550","4440443.0"
"1573037997601","4462577.0"
"1573037997648","4509460.0"
"1573037997699","4523562.0"
"1573037997747","4560702.0"
"1573037997803","4557862.0"
"1573037997844","4538237.0"
"1573037997901","4517231.0"
"1573037997946","4490355.0"
"1573037997998","4481763.0"
"1573037998046","4502568.0"
"1573037998094","4542908.0"
"1573037998140","4536657.0"
"1573037998186","4515151.0"
"1573037998238","4455726.0"
"1573037998284","4383569.0"
"1573037998341","4340738.0"
"1573037998387","4339019.0"
"1573037998437","4333507.0"
"1573037998482","4335587.0"
"1573037998532","4315743.0"
"1573037998585","4281193.0"
"1573037998625","4254717.0"
"1573037998683","4239534.0"
"1573037998726","4221740.0"
"1573037998782","4222490.0"
"1573037998826","4218179.0"
"1573037998875","4224900.0"
"1573037998927","4246895.0"
"1573037998975","4185910.0"
"1573037999025","4136628.0"
"1573037999069","4115193.0"
"1573037999123","4136309.0"
"1573037999166","4138359.0"
"1573037999222","4171587.0"
"1573037999267","4175268.0"
"1573037999319","4165386.0"
"1573037999367","4205616.0"
"1573037999415","4214968.0"
"1573037999466","4220718.0"
"1573037999508","4206236.0"
"1573037999564","4217358.0"
"1573037999606","4250006.0"
"1573037999656","4261140.0"
"1573037999713","4217618.0"
"1573037999761","4192412.0"
"1573037999808","4227332.0"
"1573037999857","4239004.0"
"1573037999906","4249585.0"
"1573037999949","4285316.0"
"1573037999995","4280133.0"
"1573038000047","4387141.0"
"1573038000094","4371226.0"
"1573038000146","4406934.0"
"1573038000199","4422109.0"
"1573038000246","4441793.0"
"1573038000299","4361142.0"
"1573038000345","4379058.0"
"1573038000390","4309621.0"
"1573038000444","4238923.0"
"1573038000488","4205165.0"
"1573038000543","4178539.0"
"1573038000592","4197432.0"
"1573038000640","4210757.0"
"1573038000689","4272652.0"
"1573038000730","4314211.0"
"1573038000787","4330335.0"
"1573038000831","4282435.0"
"1573038000884","4227370.0"
"1573038000927","4214907.0"
"1573038000983","4222008.0"
"1573038001030","4245024.0"
"1573038001083","4270281.0"
"1573038001129","4333976.0"
"1573038001177","4283643.0"
"1573038001218","4204755.0"
"1573038001268","4147640.0"
"1573038001317","4187022.0"
"1573038001366","4217878.0"
"1573038001417","4288256.0"
"1573038001470","4422879.0"
"1573038001522","4466988.0"
"1573038001570","4521002.0"
"1573038001617","4501808.0"
"1573038001662","4418478.0"
"1573038001710","4342359.0"
"1573038001765","4314453.0"
"1573038001809","4310341.0"
"1573038001863","4333076.0"
"1573038001912","4329096.0"
"1573038001955","4274281.0"
"1573038002010","4235123.0"
"1573038002059","4195084.0"
"1573038002107","4187231.0"
"1573038002153","4163586.0"
"1573038002205","4190311.0"
"1573038002250","4210336.0"
"1573038002304","4203745.0"
"1573038002351","4220639.0"
"1573038002402","4259998.0"
"1573038002451","4279554.0"
"1573038002493","4247456.0"
"1573038002548","4252537.0"
"1573038002596","4275202.0"
"1573038002644","4333698.0"
"1573038002689","4310881.0"
"1573038002744","4257369.0"
"1573038002792","4261148.0"
"1573038002842","4296488.0"
"1573038002891","4310491.0"
"1573038002938","4324484.0"
"1573038002988","4301060.0"
"1573038003031","4257928.0"
"1573038003085","4275092.0"
"1573038003130","4272851.0"
"1573038003184","4284064.0"
"1573038003233","4296697.0"
"1573038003283","4293026.0"
"1573038003330","4264870.0"
"1573038003372","4249547.0"
"1573038003428","4199153.0"
"1573038003472","4154162.0"
"1573038003527","4137949.0"
"1573038003573","4168825.0"
"1573038003625","4213577.0"
"1573038003667","4242545.0"
"1573038003715","4312322.0"
"1573038003771","4405774.0"
"1573038003817","4479713.0"
"1573038003869","4514970.0"
"1573038003912","4543878.0"
"1573038003966","4566483.0"
"1573038004014","4570955.0"
"1573038004066","4591620.0"
"1573038004114","4586768.0"
"1573038004156","4631080.0"
"1573038004211","4617266.0"
"1573038004255","4547730.0"
"1573038004301","4520992.0"
"1573038004352","4550999.0"
"1573038004400","4591520.0"
"1573038004454","4612284.0"
"1573038004505","4647434.0"
"1573038004553","4661016.0"
"1573038004604","4671299.0"
"1573038004645","4656256.0"
"1573038004694","4660307.0"
"1573038004749","4650624.0"
"1573038004792","4658306.0"
"1573038004848","4684222.0"
"1573038004893","4710649.0"
"1573038004945","4715170.0"
"1573038004995","4676760.0"
"1573038005042","4634489.0"
"1573038005083","4602733.0"
"1573038005135","4618727.0"
"1573038005191","4624438.0"
"1573038005233","4624337.0"
"1573038005289","4654065.0"
"1573038005333","4695675.0"
"1573038005384","4716810.0"
"1573038005435","4689424.0"
"1573038005478","4664358.0"
"1573038005532","4653395.0"
"1573038005574","4649224.0"
"1573038005631","4649843.0"
"1573038005675","4672650.0"
"1573038005727","4674429.0"
"1573038005774","4635881.0"
"1573038005823","4593060.0"
"1573038005876","4572546.0"
"1573038005920","4582117.0"
"1573038005974","4568344.0"
"1573038006015","4570225.0"
"1573038006071","4549999.0"
"1573038006115","4562972.0"
"1573038006166","4579516.0"
"1573038006214","4573405.0"
"1573038006258","4543248.0"
"1573038006309","4519931.0"
"1573038006356","4515880.0"
"1573038006407","4538847.0"
"1573038006458","4533156.0"
"1573038006506","4515301.0"
"1573038006555","4495855.0"
"1573038006609","4487334.0"
"1573038006655","4490185.0"
"1573038006700","4502237.0"
"1573038006757","4511581.0"
"1573038006796","4489134.0"
"1573038006853","4485203.0"
"1573038006896","4488254.0"
"1573038006951","4488135.0"
"1573038006998","4479292.0"
"1573038007047","4465489.0"
"1573038007095","4426459.0"
"1573038007139","4425880.0"
"1573038007197","4418807.0"
"1573038007236","4396692.0"
"1573038007293","4395302.0"
"1573038007336","4401893.0"
"1573038007392","4428060.0"
"1573038007438","4429980.0"
"1573038007482","4395162.0"
"1573038007539","4369326.0"
"1573038007579","4340347.0"
"1573038007628","4344309.0"
"1573038007679","4347520.0"
"1573038007726","4362873.0"
"1573038007778","4372486.0"
"1573038007824","4364273.0"
"1573038007877","4317923.0"
"1573038007926","4317793.0"
"1573038007979","4318703.0"
"1573038008021","4285795.0"
"1573038008075","4270742.0"
"1573038008118","4279584.0"
"1573038008176","4301628.0"
"1573038008216","4302569.0"
"1573038008273","4298378.0"
"1573038008317","4238333.0"
"1573038008371","4203335.0"
"1573038008420","4210517.0"
"1573038008466","4202904.0"
"1573038008515","4218179.0"
"1573038008558","4249486.0"
"1573038008615","4283674.0"
"1573038008658","4271282.0"
"1573038008713","4272302.0"
"1573038008760","4184880.0"
"1573038008810","4139950.0"
"1573038008861","4169366.0"
"1573038008906","4186961.0"
"1573038008955","4215428.0"
"1573038009004","4205356.0"
"1573038009056","4201094.0"
"1573038009099","4209607.0"
"1573038009147","4198373.0"
"1573038009202","4193093.0"
"1573038009244","4191971.0"
"1573038009297","4200734.0"
"1573038009346","4216177.0"
"1573038009395","4267800.0"
"1573038009443","4327976.0"
"1573038009488","4301608.0"
"1573038009537","4253188.0"
"1573038009595","4226690.0"
"1573038009635","4218778.0"
"1573038009692","4234713.0"
"1573038009739","4248736.0"
"1573038009787","4329006.0"
"1573038009835","4378168.0"
"1573038009884","4375976.0"
"1573038009936","4359643.0"
"1573038009979","4329545.0"
"1573038010033","4322143.0"
"1573038010075","4306850.0"
"1573038010132","4304260.0"
"1573038010180","4311401.0"
"1573038010228","4349941.0"
"1573038010275","4325465.0"
"1573038010324","4281274.0"
"1573038010377","4240664.0"
"1573038010419","4220170.0"
"1573038010474","4238683.0"
"1573038010517","4255788.0"
"1573038010572","4337007.0"
"1573038010620","4322765.0"
"1573038010662","4292756.0"
"1573038010715","4300099.0"
"1573038010763","4284655.0"
"1573038010812","4295287.0"
"1573038010859","4313262.0"
"1573038010915","4358763.0"
"1573038010963","4391891.0"
"1573038011011","4416696.0"
"1573038011060","4391911.0"
"1573038011109","4374156.0"
"1573038011154","4347040.0"
"1573038011206","4339618.0"
"1573038011257","4360553.0"
"1573038011299","4434371.0"
"1573038011348","4445293.0"
"1573038011398","4452585.0"
"1573038011443","4454076.0"
"1573038011493","4449304.0"
"1573038011543","4418828.0"
"1573038011591","4390091.0"
"1573038011641","4370005.0"
"1573038011691","4384219.0"
"1573038011741","4450035.0"
"1573038011790","4462378.0"
"1573038011841","4427680.0"
"1573038011892","4409325.0"
"1573038011934","4393352.0"
"1573038011990","4389571.0"
"1573038012040","4503267.0"
"1573038012078","4601252.0"
"1573038012136","4647194.0"
"1573038012179","4630899.0"
"1573038012237","4635820.0"
"1573038012280","4624987.0"
"1573038012333","4608965.0"
"1573038012379","4563433.0"
"1573038012430","4527223.0"
"1573038012478","4531315.0"
"1573038012525","4519212.0"
"1573038012575","4465940.0"
"1573038012620","4429309.0"
"1573038012667","4408035.0"
"1573038012720","4421199.0"
"1573038012766","4393222.0"
"1573038012818","4381419.0"
"1573038012863","4354082.0"
"1573038012917","4363123.0"
"1573038012965","4351520.0"
"1573038013015","4349750.0"
"1573038013063","4355663.0"
"1573038013117","4352961.0"
"1573038013163","4329776.0"
"1573038013213","4305680.0"
"1573038013256","4316192.0"
"1573038013311","4289566.0"
"1573038013359","4249486.0"
"1573038013406","4202855.0"
"1573038013455","4220838.0"
"1573038013501","4228242.0"
"1573038013557","4247086.0"
"1573038013603","4239483.0"
"1573038013647","4184299.0"
"1573038013703","4174858.0"
"1573038013743","4181290.0"
"1573038013801","4188460.0"
"1573038013847","4210576.0"
"1573038013898","4246725.0"
"1573038013939","4295736.0"
"1573038013995","4388849.0"
"1573038014043","4434651.0"
"1573038014096","4359123.0"
"1573038014140","4329205.0"
"1573038014192","4349960.0"
"1573038014240","4399624.0"
"1573038014286","4477791.0"
"1573038014340","4586028.0"
"1573038014380","4708528.0"
"1573038014440","4782486.0"
"1573038014482","4764791.0"
"1573038014535","4754259.0"
"1573038014584","4767112.0"
"1573038014630","4776285.0"
"1573038014682","4819486.0"
"1573038014724","4878429.0"
"1573038014781","4971692.0"
"1573038014822","4900886.0"
"1573038014875","4836230.0"
"1573038014924","4839881.0"
"1573038014977","4844192.0"
"1573038015025","4841561.0"
"1573038015074","4884492.0"
"1573038015123","5058614.0"
"1573038015172","5189235.0"
"1573038015221","5213472.0"
"1573038015261","5195326.0"
"1573038015315","5172882.0"
"1573038015363","5167609.0"
"1573038015418","5174532.0"
"1573038015466","5209380.0"
"1573038015515","5248920.0"
"1573038015563","5297743.0"
"1573038015609","5289100.0"
"1573038015655","5278277.0"
"1573038015703","5284490.0"
"1573038015760","5297342.0"
"1573038015803","5338471.0"
"1573038015858","5374401.0"
"1573038015906","5450558.0"
"1573038015956","5539100.0"
"1573038015997","5547674.0"
"1573038016046","5527168.0"
"1573038016097","5498691.0"
"1573038016145","5487878.0"
"1573038016195","5499952.0"
"1573038016245","5543291.0"
"1573038016292","5587163.0"
"1573038016340","5627343.0"
"1573038016390","5573048.0"
"1573038016438","5570708.0"
"1573038016487","5568258.0"
"1573038016537","5569119.0"
"1573038016585","5576059.0"
"1573038016635","5599975.0"
"1573038016683","5662212.0"
"1573038016732","5682726.0"
"1573038016780","5656100.0"
"1573038016830","5637735.0"
"1573038016878","5647648.0"
"1573038016927","5658461.0"
"1573038016982","5675605.0"
"1573038017023","5703651.0"
"1573038017072","5753183.0"
"1573038017124","5772938.0"
"1573038017169","5746182.0"
"1573038017218","5735389.0"
"1573038017268","5710823.0"
"1573038017325","5717355.0"
"1573038017368","5728176.0"
"1573038017423","5788092.0"
"1573038017464","5812827.0"
"1573038017521","5827992.0"
"1573038017565","5812549.0"
"1573038017615","5805015.0"
"1573038017663","5786971.0"
"1573038017716","5778090.0"
"1573038017765","5791922.0"
"1573038017808","5835373.0"
"1573038017856","5867471.0"
"1573038017907","5870441.0"
"1573038017953","5834993.0"
"1573038018008","5810718.0"
"1573038018055","5804846.0"
"1573038018102","5783840.0"
"1573038018150","5788241.0"
"1573038018205","5840975.0"
"1573038018248","5822120.0"
"1573038018303","5811848.0"
"1573038018345","5752273.0"
"1573038018403","5727557.0"
"1573038018447","5715275.0"
"1573038018493","5679006.0"
"1573038018548","5649318.0"
"1573038018597","5648518.0"
"1573038018639","5658461.0"
"1573038018688","5580241.0"
"1573038018748","5527899.0"
"1573038018785","5540681.0"
"1573038018843","5570828.0"
"1573038018886","5596844.0"
"1573038018938","5633475.0"
"1573038018990","5639606.0"
"1573038019039","5619220.0"
"1573038019086","5606418.0"
"1573038019135","5548332.0"
"1573038019184","5505032.0"
"1573038019227","5488388.0"
"1573038019283","5500342.0"
"1573038019326","5518325.0"
"1573038019379","5462103.0"
"1573038019428","5423922.0"
"1573038019479","5355306.0"
"1573038019527","5319438.0"
"1573038019575","5322207.0"
"1573038019626","5324088.0"
"1573038019670","5346474.0"
"1573038019723","5267965.0"
"1573038019767","5164930.0"
"1573038019822","5095962.0"
"1573038019868","5053472.0"
"1573038019920","5055012.0"
"1573038019969","5066646.0"
"1573038020015","5062525.0"
"1573038020066","5083981.0"
"1573038020108","5124689.0"
"1573038020159","5085771.0"
"1573038020208","5002760.0"
"1573038020263","4929473.0"
"1573038020311","4914688.0"
"1573038020360","4921421.0"
"1573038020410","4905567.0"
"1573038020458","4906357.0"
"1573038020499","4855745.0"
"1573038020550","4812623.0"
"1573038020605","4758200.0"
"1573038020650","4722872.0"
"1573038020703","4715190.0"
"1573038020753","4715910.0"
"1573038020801","4728492.0"
"1573038020850","4775255.0"
"1573038020897","4799331.0"
"1573038020947","4697776.0"
"1573038020996","4619747.0"
"1573038021045","4586288.0"
"1573038021087","4597241.0"
"1573038021142","4597371.0"
"1573038021190","4610015.0"
"1573038021240","4624168.0"
"1573038021290","4625879.0"
"1573038021333","4602583.0"
"1573038021387","4585608.0"
"1573038021438","4565004.0"
"1573038021485","4532756.0"
"1573038021528","4544637.0"
"1573038021584","4545239.0"
"1573038021630","4607213.0"
"1573038021683","4591959.0"
"1573038021730","4529844.0"
"1573038021773","4508639.0"
"1573038021827","4489175.0"
"1573038021872","4497538.0"
"1573038021924","4496327.0"
"1573038021969","4511951.0"
"1573038022024","4500398.0"
"1573038022071","4491895.0"
"1573038022121","4501778.0"
"1573038022171","4510130.0"
"1573038022219","4493496.0"
"1573038022269","4439243.0"
"1573038022312","4428139.0"
"1573038022366","4433631.0"
"1573038022410","4431150.0"
"1573038022465","4386090.0"
"1573038022516","4373327.0"
"1573038022564","4388750.0"
"1573038022612","4394812.0"
"1573038022656","4366315.0"
"1573038022702","4327186.0"
"1573038022751","4254327.0"
"1573038022807","4234873.0"
"1573038022851","4257017.0"
"1573038022905","4275563.0"
"1573038022953","4303920.0"
"1573038022996","4331666.0"
"1573038023045","4334157.0"
"1573038023097","4382388.0"
"1573038023143","4499397.0"
"1573038023195","4552760.0"
"1573038023242","4532116.0"
"1573038023293","4532215.0"
"1573038023346","4552200.0"
"1573038023392","4565313.0"
"1573038023443","4603103.0"
"1573038023494","4708538.0"
"1573038023543","4838330.0"
"1573038023591","4879339.0"
"1573038023638","4899514.0"
"1573038023688","4917999.0"
"1573038023731","4937734.0"
"1573038023788","4934314.0"
"1573038023833","4952078.0"
"1573038023877","4995368.0"
"1573038023935","5011592.0"
"1573038023979","4911378.0"
"1573038024031","4858085.0"
"1573038024073","4855385.0"
"1573038024129","4910088.0"
"1573038024171","4985445.0"
"1573038024224","5028386.0"
"1573038024272","5064555.0"
"1573038024323","5063734.0"
"1573038024374","5032417.0"
"1573038024421","4997319.0"
"1573038024472","4976914.0"
"1573038024520","4956499.0"
"1573038024570","4947376.0"
"1573038024613","4971562.0"
"1573038024662","5026507.0"
"1573038024713","4983936.0"
"1573038024758","4832688.0"
"1573038024815","4782006.0"
"1573038024861","4805302.0"
"1573038024914","4850023.0"
"1573038024953","4876710.0"
"1573038025011","4925301.0"
"1573038025053","4929072.0"
"1573038025099","4930092.0"
"1573038025153","4892044.0"
"1573038025200","4836569.0"
"1573038025250","4815494.0"
"1573038025298","4778565.0"
"1573038025354","4784056.0"
"1573038025395","4862376.0"
"1573038025452","4884742.0"
"1573038025493","4843881.0"
"1573038025550","4771803.0"
"1573038025595","4718551.0"
"1573038025641","4718811.0"
"1573038025697","4763942.0"
"1573038025742","4752260.0"
"1573038025795","4711639.0"
"1573038025836","4680531.0"
"1573038025891","4660656.0"
"1573038025936","4647984.0"
"1573038025990","4622447.0"
"1573038026037","4589799.0"
"1573038026085","4565333.0"
"1573038026139","4582107.0"
"1573038026178","4598381.0"
"1573038026237","4566233.0"
"1573038026276","4518812.0"
"1573038026332","4459958.0"
"1573038026376","4403525.0"
"1573038026430","4333377.0"
"1573038026479","4291315.0"
"1573038026528","4290777.0"
"1573038026578","4306631.0"
"1573038026620","4288865.0"
"1573038026669","4260528.0"
"1573038026716","4282185.0"
"1573038026775","4271721.0"
"1573038026815","4225789.0"
"1573038026871","4234752.0"
"1573038026919","4255488.0"
"1573038026966","4293926.0"
"1573038027015","4201593.0"
"1573038027063","4161785.0"
"1573038027117","4160345.0"
"1573038027159","4185520.0"
"1573038027214","4198924.0"
"1573038027257","4236544.0"
"1573038027312","4228622.0"
"1573038027359","4251326.0"
"1573038027409","4265199.0"
"1573038027458","4279954.0"
"1573038027500","4281833.0"
"1573038027558","4300178.0"
"1573038027597","4331727.0"
"1573038027648","4339269.0"
"1573038027697","4351790.0"
"1573038027755","4362894.0"
"1573038027797","4294548.0"
"1573038027850","4244114.0"
"1573038027898","4217207.0"
"1573038027946","4224731.0"
"1573038027995","4242255.0"
"1573038028038","4250875.0"
"1573038028097","4209237.0"
"1573038028142","4173468.0"
"1573038028192","4138808.0"
"1573038028234","4145251.0"
"1573038028282","4161184.0"
"1573038028339","4172637.0"
"1573038028385","4203245.0"
"1573038028435","4232352.0"
"1573038028477","4250477.0"
"1573038028536","4187621.0"
"1573038028577","4179378.0"
"1573038028633","4211397.0"
"1573038028677","4294487.0"
"1573038028731","4354062.0"
"1573038028778","4375507.0"
"1573038028820","4409045.0"
"1573038028874","4385509.0"
"1573038028925","4365574.0"
"1573038028977","4331255.0"
"1573038029019","4319483.0"
"1573038029074","4298449.0"
"1573038029114","4286925.0"
"1573038029171","4304379.0"
"1573038029224","4339437.0"
"1573038029268","4369135.0"
"1573038029315","4265801.0"
"1573038029365","4202995.0"
"1573038029418","4159234.0"
"1573038029462","4195173.0"
"1573038029507","4199984.0"
"1573038029556","4176377.0"
"1573038029611","4202784.0"
"1573038029657","4226100.0"
"1573038029710","4165146.0"
"1573038029758","4157043.0"
"1573038029806","4128056.0"
"1573038029854","4139420.0"
"1573038029903","4151342.0"
"1573038029957","4181040.0"
"1573038029998","4228352.0"
"1573038030053","4215797.0"
"1573038030098","4169146.0"
"1573038030142","4114113.0"
"1573038030192","4100989.0"
"1573038030242","4122605.0"
"1573038030291","4186611.0"
"1573038030341","4291346.0"
"1573038030391","4353562.0"
"1573038030437","4368906.0"
"1573038030495","4365905.0"
"1573038030539","4363475.0"
"1573038030591","4361662.0"
"1573038030639","4362993.0"
"1573038030683","4382388.0"
"1573038030733","4430951.0"
"1573038030781","4459048.0"
"1573038030831","4462437.0"
"1573038030879","4421538.0"
"1573038030934","4429539.0"
"1573038030983","4429230.0"
"1573038031031","4442014.0"
"1573038031078","4481613.0"
"1573038031128","4477811.0"
"1573038031174","4529775.0"
"1573038031221","4537587.0"
"1573038031278","4542927.0"
"1573038031319","4543577.0"
"1573038031374","4552960.0"
"1573038031424","4574134.0"
"1573038031469","4601402.0"
"1573038031518","4560323.0"
"1573038031570","4537047.0"
"1573038031615","4461249.0"
"1573038031660","4466580.0"
"1573038031715","4509529.0"
"1573038031763","4554741.0"
"1573038031816","4546259.0"
"1573038031864","4601642.0"
"1573038031912","4648943.0"
"1573038031959","4664187.0"
"1573038032009","4659817.0"
"1573038032055","4639410.0"
"1573038032105","4654835.0"
"1573038032152","4672869.0"
"1573038032202","4688613.0"
"1573038032255","4678330.0"
"1573038032304","4658566.0"
"1573038032353","4570654.0"
"1573038032399","4532876.0"
"1573038032450","4574845.0"
"1573038032497","4591689.0"
"1573038032545","4628388.0"
"1573038032594","4712289.0"
"1573038032643","4681923.0"
"1573038032697","4701586.0"
"1573038032744","4659325.0"
"1573038032794","4598391.0"
"1573038032841","4539416.0"
"1573038032888","4505378.0"
"1573038032939","4517071.0"
"1573038032980","4534656.0"
"1573038033034","4540527.0"
"1573038033083","4419567.0"
"1573038033137","4319323.0"
"1573038033182","4253257.0"
"1573038033233","4239463.0"
"1573038033282","4232143.0"
"1573038033330","4243695.0"
"1573038033380","4219989.0"
"1573038033422","4230152.0"
"1573038033474","4215598.0"
"1573038033524","4196203.0"
"1573038033578","4199413.0"
"1573038033624","4216968.0"
"1573038033667","4249037.0"
"1573038033723","4302709.0"
"1573038033764","4374658.0"
"1573038033821","4373906.0"
"1573038033862","4286496.0"
"1573038033919","4161314.0"
"1573038033960","4115433.0"
"1573038034014","4110051.0"
"1573038034063","4084855.0"
"1573038034114","4113763.0"
"1573038034157","4169486.0"
"1573038034211","4214597.0"
"1573038034255","4199184.0"
"1573038034310","4178328.0"
"1573038034357","4124836.0"
"1573038034402","4077693.0"
"1573038034456","4082625.0"
"1573038034506","4130417.0"
"1573038034555","4087377.0"
"1573038034604","4046307.0"
"1573038034647","4011349.0"
"1573038034701","4011329.0"
"1573038034743","4009927.0"
"1573038034801","3976019.0"
"1573038034842","3991584.0"
"1573038034896","4021930.0"
"1573038034944","3968377.0"
"1573038034997","3973999.0"
"1573038035044","4009317.0"
"1573038035090","4033944.0"
"1573038035134","4043515.0"
"1573038035184","4053678.0"
"1573038035232","4092598.0"
"1573038035283","4131537.0"
"1573038035333","4116894.0"
"1573038035383","4099750.0"
"1573038035431","4075784.0"
"1573038035485","4093068.0"
"1573038035534","4093958.0"
"1573038035582","4080144.0"
"1573038035625","4003175.0"
"1573038035681","3981200.0"
"1573038035721","3989493.0"
"1573038035773","3997675.0"
"1573038035825","4020301.0"
"1573038035871","4042435.0"
"1573038035919","4063930.0"
"1573038035966","4082596.0"
"1573038036023","4061610.0"
"1573038036069","3995475.0"
"1573038036122","3948623.0"
"1573038036171","3921405.0"
"1573038036220","3925847.0"
"1573038036265","3932088.0"
"1573038036317","3980401.0"
"1573038036358","4044576.0"
"1573038036407","4029952.0"
"1573038036459","3985202.0"
"1573038036507","3965326.0"
"1573038036558","3970448.0"
"1573038036605","3995715.0"
"1573038036655","4015599.0"
"1573038036703","4068992.0"
"1573038036760","4141750.0"
"1573038036807","4155593.0"
"1573038036857","4084906.0"
"1573038036906","4022930.0"
"1573038036949","4007438.0"
"1573038036998","4048008.0"
"1573038037047","4100199.0"
"1573038037096","4197453.0"
"1573038037145","4246936.0"
"1573038037196","4265610.0"
"1573038037244","4293266.0"
"1573038037293","4320093.0"
"1573038037341","4353521.0"
"1573038037392","4359462.0"
"1573038037439","4372376.0"
"1573038037488","4376998.0"
"1573038037537","4444103.0"
"1573038037587","4480022.0"
"1573038037636","4474451.0"
"1573038037685","4483393.0"
"1573038037734","4486574.0"
"1573038037785","4472080.0"
"1573038037831","4488324.0"
"1573038037880","4563653.0"
"1573038037934","4617476.0"
"1573038037985","4638531.0"
"1573038038025","4623467.0"
"1573038038082","4618286.0"
"1573038038125","4611185.0"
"1573038038181","4575286.0"
"1573038038228","4557322.0"
"1573038038280","4580906.0"
"1573038038328","4595911.0"
"1573038038376","4583117.0"
"1573038038426","4495485.0"
"1573038038471","4458867.0"
"1573038038517","4404063.0"
"1573038038564","4332137.0"
"1573038038622","4310710.0"
"1573038038665","4287406.0"
"1573038038719","4283715.0"
"1573038038768","4265541.0"
"1573038038816","4271412.0"
"1573038038866","4292906.0"
"1573038038914","4307671.0"
"1573038038964","4273001.0"
"1573038039007","4273552.0"
"1573038039063","4312801.0"
"1573038039108","4328886.0"
"1573038039155","4268040.0"
"1573038039209","4258858.0"
"1573038039256","4285066.0"
"1573038039300","4319613.0"
"1573038039355","4313181.0"
"1573038039406","4286065.0"
"1573038039454","4237123.0"
"1573038039503","4274773.0"
"1573038039548","4293016.0"
"1573038039602","4280153.0"
"1573038039644","4283485.0"
"1573038039702","4304089.0"
"1573038039748","4365505.0"
"1573038039790","4389741.0"
"1573038039845","4342280.0"
"1573038039887","4276122.0"
"1573038039943","4224790.0"
"1573038039987","4216779.0"
"1573038040042","4232421.0"
"1573038040090","4252007.0"
"1573038040135","4333177.0"
"1573038040188","4302569.0"
"1573038040236","4260549.0"
"1573038040285","4231822.0"
"1573038040328","4231722.0"
"1573038040384","4243354.0"
"1573038040430","4265370.0"
"1573038040482","4305749.0"
"1573038040528","4348040.0"
"1573038040580","4414807.0"
"1573038040628","4328395.0"
"1573038040675","4219739.0"
"1573038040725","4172027.0"
"1573038040769","4183019.0"
"1573038040815","4222069.0"
"1573038040867","4262089.0"
"1573038040915","4308650.0"
"1573038040966","4343970.0"
"1573038041015","4332137.0"
"1573038041063","4289385.0"
"1573038041118","4255368.0"
"1573038041165","4238874.0"
"1573038041211","4249236.0"
"1573038041264","4292016.0"
"1573038041309","4357122.0"
"1573038041363","4325766.0"
"1573038041412","4254978.0"
"1573038041459","4281953.0"
"1573038041510","4332196.0"
"1573038041554","4378587.0"
"1573038041607","4402633.0"
"1573038041653","4459576.0"
"1573038041705","4485873.0"
"1573038041750","4487184.0"
"1573038041802","4490814.0"
"1573038041853","4497117.0"
"1573038041902","4497987.0"
"1573038041950","4475570.0"
"1573038041998","4486133.0"
"1573038042048","4524233.0"
"1573038042092","4539467.0"
"1573038042141","4464158.0"
"1573038042194","4447264.0"
"1573038042244","4470369.0"
"1573038042294","4476682.0"
"1573038042343","4452226.0"
"1573038042390","4442843.0"
"1573038042434","4496806.0"
"1573038042482","4585317.0"
"1573038042535","4590268.0"
"1573038042581","4608654.0"
"1573038042630","4653775.0"
"1573038042684","4687542.0"
"1573038042734","4726432.0"
"1573038042779","4788668.0"
"1573038042831","4822706.0"
"1573038042879","4802401.0"
"1573038042929","4760551.0"
"1573038042971","4763542.0"
"1573038043027","4799380.0"
"1573038043071","4822916.0"
"1573038043118","4855474.0"
"1573038043174","4820815.0"
"1573038043222","4784566.0"
"1573038043272","4744147.0"
"1573038043316","4730804.0"
"1573038043369","4734305.0"
"1573038043411","4732923.0"
"1573038043467","4730644.0"
"1573038043512","4751959.0"
"1573038043566","4780176.0"
"1573038043615","4695135.0"
"1573038043657","4630249.0"
"1573038043712","4611415.0"
"1573038043754","4623687.0"
"1573038043810","4610854.0"
"1573038043852","4606153.0"
"1573038043908","4627458.0"
"1573038043953","4572275.0"
"1573038044005","4500268.0"
"1573038044055","4465428.0"
"1573038044103","4455767.0"
"1573038044147","4452116.0"
"1573038044196","4468589.0"
"1573038044250","4556422.0"
"1573038044294","4659996.0"
"1573038044349","4578216.0"
"1573038044394","4482852.0"
"1573038044447","4441293.0"
"1573038044494","4438593.0"
"1573038044545","4388540.0"
"1573038044594","4425648.0"
"1573038044636","4485524.0"
"1573038044691","4432481.0"
"1573038044733","4451626.0"
"1573038044792","4426790.0"
"1573038044834","4429880.0"
"1573038044888","4433042.0"
"1573038044934","4425898.0"
"1573038044986","4432392.0"
"1573038045036","4470950.0"
"1573038045081","4497316.0"
"1573038045132","4437402.0"
"1573038045173","4399772.0"
"1573038045231","4343139.0"
"1573038045273","4366364.0"
"1573038045329","4359403.0"
"1573038045375","4382748.0"
"1573038045425","4369446.0"
"1573038045468","4372345.0"
"1573038045518","4361173.0"
"1573038045574","4349431.0"
"1573038045615","4336956.0"
"1573038045664","4308601.0"
"1573038045716","4330187.0"
"1573038045767","4364375.0"
"1573038045817","4439572.0"
"1573038045863","4448914.0"
"1573038045914","4389380.0"
"1573038045958","4374166.0"
"1573038046015","4368245.0"
"1573038046056","4327936.0"
"1573038046112","4313222.0"
"1573038046156","4342999.0"
"1573038046210","4344819.0"
"1573038046259","4367605.0"
"1573038046306","4376037.0"
"1573038046355","4387959.0"
"1573038046397","4396552.0"
"1573038046447","4362203.0"
"1573038046495","4316913.0"
"1573038046543","4330766.0"
"1573038046595","4327594.0"
"1573038046644","4282725.0"
"1573038046697","4260798.0"
"1573038046739","4267991.0"
"1573038046799","4296797.0"
"1573038046842","4283105.0"
"1573038046896","4273271.0"
"1573038046942","4281364.0"
"1573038046993","4300818.0"
"1573038047036","4288975.0"
"1573038047091","4289046.0"
"1573038047138","4292447.0"
"1573038047187","4307090.0"
"1573038047235","4326905.0"
"1573038047283","4367815.0"
"1573038047338","4396082.0"
"1573038047377","4356851.0"
"1573038047434","4316672.0"
"1573038047476","4309211.0"
"1573038047524","4298819.0"
"1573038047576","4295198.0"
"1573038047624","4282904.0"
"1573038047675","4336967.0"
"1573038047726","4297687.0"
"1573038047775","4243305.0"
"1573038047817","4219010.0"
"1573038047876","4227831.0"
"1573038047918","4249845.0"
"1573038047972","4257527.0"
"1573038048015","4293136.0"
"1573038048070","4352700.0"
"1573038048118","4459227.0"
"1573038048165","4359954.0"
"1573038048214","4293987.0"
"1573038048259","4251286.0"
"1573038048317","4278034.0"
"1573038048357","4296198.0"
"1573038048415","4353822.0"
"1573038048455","4390009.0"
"1573038048511","4394402.0"
"1573038048562","4331737.0"
"1573038048608","4296618.0"
"1573038048653","4306939.0"
"1573038048705","4335967.0"
"1573038048754","4376137.0"
"1573038048797","4415246.0"
"1573038048856","4491694.0"
"1573038048897","4508519.0"
"1573038048952","4415676.0"
"1573038049001","4317413.0"
"1573038049049","4290757.0"
"1573038049099","4300418.0"
"1573038049140","4286654.0"
"1573038049195","4263909.0"
"1573038049242","4229142.0"
"1573038049292","4234213.0"
"1573038049336","4214637.0"
"1573038049393","4167805.0"
"1573038049443","4129237.0"
"1573038049490","4123645.0"
"1573038049540","4186260.0"
"1573038049584","4246416.0"
"1573038049635","4207427.0"
"1573038049686","4136458.0"
"1573038049736","4075743.0"
"1573038049781","4008626.0"
"1573038049835","4005916.0"
"1573038049882","4040015.0"
"1573038049929","4138479.0"
"1573038049978","4218309.0"
"1573038050028","4263080.0"
"1573038050076","4280254.0"
"1573038050124","4291256.0"
"1573038050175","4290466.0"
"1573038050219","4239833.0"
"1573038050275","4228770.0"
"1573038050322","4254898.0"
"1573038050371","4318744.0"
"1573038050419","4318512.0"
"1573038050463","4307959.0"
"1573038050517","4349301.0"
"1573038050565","4378798.0"
"1573038050614","4380688.0"
"1573038050660","4421347.0"
"1573038050716","4505398.0"
"1573038050762","4576635.0"
"1573038050814","4580467.0"
"1573038050862","4567844.0"
"1573038050912","4576656.0"
"1573038050959","4633709.0"
"1573038051010","4725501.0"
"1573038051053","4805642.0"
"1573038051099","4900246.0"
"1573038051149","4995618.0"
"1573038051202","4979874.0"
"1573038051254","5002561.0"
"1573038051305","5053372.0"
"1573038051350","5112167.0"
"1573038051399","5186214.0"
"1573038051446","5265214.0"
"1573038051494","5376751.0"
"1573038051546","5379523.0"
"1573038051598","5331510.0"
"1573038051640","5320088.0"
"1573038051696","5289530.0"
"1573038051742","5260674.0"
"1573038051791","5258162.0"
"1573038051839","5261933.0"
"1573038051881","5252451.0"
"1573038051938","5184965.0"
"1573038051980","5054984.0"
"1573038052030","5000939.0"
"1573038052081","4995567.0"
"1573038052137","5000110.0"
"1573038052186","5038709.0"
"1573038052232","5066345.0"
"1573038052279","5007561.0"
"1573038052323","4975274.0"
"1573038052377","4931653.0"
"1573038052419","4911827.0"
"1573038052472","4907276.0"
"1573038052518","4915689.0"
"1573038052569","4956550.0"
"1573038052623","5005240.0"
"1573038052665","5029577.0"
"1573038052717","4924281.0"
"1573038052770","4853052.0"
"1573038052819","4856425.0"
"1573038052864","4895305.0"
"1573038052913","4939554.0"
"1573038052961","5029097.0"
"1573038053016","5125331.0"
"1573038053064","5173182.0"
"1573038053111","5195497.0"
"1573038053155","5170401.0"
"1573038053208","5148206.0"
"1573038053259","5144074.0"
"1573038053302","5162008.0"
"1573038053354","5222334.0"
"1573038053403","5258292.0"
"1573038053456","5289049.0"
"1573038053504","5231806.0"
"1573038053553","5143515.0"
"1573038053603","5081610.0"
"1573038053645","5023455.0"
"1573038053701","5019753.0"
"1573038053740","5038799.0"
"1573038053797","5035357.0"
"1573038053844","4929722.0"
"1573038053893","4902066.0"
"1573038053944","4850153.0"
"1573038053994","4819025.0"
"1573038054042","4808573.0"
"1573038054087","4833288.0"
"1573038054142","4883651.0"
"1573038054186","4913298.0"
"1573038054238","4944197.0"
"1573038054282","4859385.0"
"1573038054329","4807682.0"
"1573038054385","4762392.0"
"1573038054434","4773185.0"
"1573038054484","4786866.0"
"1573038054523","4885751.0"
"1573038054581","4989996.0"
"1573038054622","4996108.0"
"1573038054677","5016614.0"
"1573038054724","5007362.0"
"1573038054776","4990447.0"
"1573038054826","4985656.0"
"1573038054871","4987176.0"
"1573038054922","5022945.0"
"1573038054964","4999529.0"
"1573038055022","4936374.0"
"1573038055062","4869948.0"
"1573038055119","4854024.0"
"1573038055167","4811333.0"
"1573038055218","4737064.0"
"1573038055265","4707208.0"
"1573038055313","4669909.0"
"1573038055363","4659325.0"
"1573038055408","4661497.0"
"1573038055461","4663856.0"
"1573038055502","4664376.0"
"1573038055558","4630820.0"
"1573038055605","4584358.0"
"1573038055652","4588578.0"
"1573038055705","4653905.0"
"1573038055753","4655126.0"
"1573038055806","4602772.0"
"1573038055844","4572574.0"
"1573038055902","4571215.0"
"1573038055944","4603763.0"
"1573038056000","4606132.0"
"1573038056046","4648714.0"
"1573038056095","4645203.0"
"1573038056139","4651304.0"
"1573038056192","4644073.0"
"1573038056245","4630540.0"
"1573038056284","4619066.0"
"1573038056335","4615245.0"
"1573038056383","4623416.0"
"1573038056442","4575687.0"
"1573038056484","4480172.0"
"1573038056533","4391942.0"
"1573038056585","4350212.0"
"1573038056633","4348300.0"
"1573038056684","4336207.0"
"1573038056724","4349411.0"
"1573038056781","4349391.0"
"1573038056826","4213638.0"
"1573038056881","4083425.0"
"1573038056926","4021770.0"
"1573038056976","4023090.0"
"1573038057026","4035433.0"
"1573038057073","4054288.0"
"1573038057124","4097909.0"
"1573038057174","4186372.0"
"1573038057223","4212567.0"
"1573038057264","4080335.0"
"1573038057321","3932058.0"
"1573038057368","3909032.0"
"1573038057419","3942751.0"
"1573038057467","4004006.0"
"1573038057519","4077765.0"
"1573038057558","4152061.0"
"1573038057608","4172698.0"
"1573038057657","4119564.0"
"1573038057705","4086135.0"
"1573038057757","4075424.0"
"1573038057806","4071432.0"
"1573038057859","4074193.0"
"1573038057902","4104460.0"
"1573038057951","4146251.0"
"1573038057999","4128006.0"
"1573038058049","3989753.0"
"1573038058097","3900682.0"
"1573038058148","3872873.0"
"1573038058196","3908912.0"
"1573038058246","3940931.0"
"1573038058293","3972628.0"
"1573038058340","3977790.0"
"1573038058391","3966506.0"
"1573038058439","3963597.0"
"1573038058489","3933179.0"
"1573038058537","3897589.0"
"1573038058587","3883097.0"
"1573038058636","3933830.0"
"1573038058687","4008057.0"
"1573038058734","4109852.0"
"1573038058782","4102700.0"
"1573038058832","4051878.0"
"1573038058886","4001846.0"
"1573038058936","3980460.0"
"1573038058984","4013307.0"
"1573038059027","4043426.0"
"1573038059083","4069733.0"
"1573038059129","4084417.0"
"1573038059180","4093618.0"
"1573038059229","4101831.0"
"1573038059277","4109161.0"
"1573038059326","4039915.0"
"1573038059377","4004786.0"
"1573038059425","4037835.0"
"1573038059467","4067362.0"
"1573038059524","4046177.0"
"1573038059570","4024890.0"
"1573038059622","4008177.0"
"1573038059663","4010558.0"
"1573038059722","4009768.0"
"1573038059768","3987732.0"
"1573038059810","3955785.0"
"1573038059866","3941361.0"
"1573038059911","3954234.0"
"1573038059963","3983691.0"
"1573038060029","4019411.0"
"1573038060055","4033473.0"
"1573038060107","4044645.0"
"1573038060154","4028192.0"
"1573038060201","4023740.0"
"1573038060250","3969458.0"
"1573038060298","3939340.0"
"1573038060349","3908772.0"
"1573038060405","3908333.0"
"1573038060449","3931298.0"
"1573038060504","3946292.0"
"1573038060556","3925666.0"
"1573038060603","3906082.0"
"1573038060644","3873194.0"
"1573038060698","3876195.0"
"1573038060747","3921895.0"
"1573038060788","3956955.0"
"1573038060849","3987143.0"
"1573038060888","4032052.0"
"1573038060935","4101079.0"
"1573038060988","4087706.0"
"1573038061041","4019090.0"
"1573038061091","3989113.0"
"1573038061138","3996334.0"
"1573038061189","4028531.0"
"1573038061231","4055170.0"
"1573038061286","4063000.0"
"1573038061329","4053798.0"
"1573038061385","4087757.0"
"1573038061428","4079934.0"
"1573038061483","4051628.0"
"1573038061522","4047758.0"
"1573038061573","4072283.0"
"1573038061621","4117483.0"
"1573038061672","4162344.0"
"1573038061719","4238023.0"
"1573038061773","4274913.0"
"1573038061819","4212197.0"
"1573038061870","4208926.0"
"1573038061923","4228181.0"
"1573038061972","4275553.0"
"1573038062015","4329825.0"
"1573038062070","4494945.0"
"1573038062117","4566424.0"
"1573038062165","4565032.0"
"1573038062210","4558711.0"
"1573038062256","4530574.0"
"1573038062311","4486784.0"
"1573038062363","4468039.0"
"1573038062412","4486934.0"
"1573038062460","4503677.0"
"1573038062510","4553031.0"
"1573038062562","4539497.0"
"1573038062607","4484404.0"
"1573038062652","4438022.0"
"1573038062705","4387750.0"
"1573038062753","4390030.0"
"1573038062803","4426000.0"
"1573038062854","4495896.0"
"1573038062899","4573056.0"
"1573038062950","4597030.0"
"1573038062991","4598070.0"
"1573038063049","4606913.0"
"1573038063092","4598312.0"
"1573038063140","4585549.0"
"1573038063194","4618567.0"
"1573038063244","4659445.0"
"1573038063293","4663917.0"
"1573038063336","4621188.0"
"1573038063390","4603912.0"
"1573038063433","4613465.0"
"1573038063489","4617116.0"
"1573038063531","4705448.0"
"1573038063583","4836439.0"
"1573038063632","4938034.0"
"1573038063685","5005771.0"
"1573038063735","5014523.0"
"1573038063781","5006431.0"
"1573038063833","4998769.0"
"1573038063873","5000600.0"
"1573038063929","5019274.0"
"1573038063974","5041379.0"
"1573038064024","5093993.0"
"1573038064073","5134992.0"
"1573038064126","5084611.0"
"1573038064175","5079399.0"
"1573038064221","5099103.0"
"1573038064272","5136493.0"
"1573038064314","5184174.0"
"1573038064370","5244489.0"
"1573038064412","5285099.0"
"1573038064468","5296662.0"
"1573038064513","5288419.0"
"1573038064565","5270936.0"
"1573038064616","5263083.0"
"1573038064657","5252410.0"
"1573038064712","5244139.0"
"1573038064755","5256821.0"
"1573038064811","5274607.0"
"1573038064857","5233206.0"
"1573038064906","5174223.0"
"1573038064958","5163459.0"
"1573038065000","5164950.0"
"1573038065047","5183624.0"
"1573038065097","5234507.0"
"1573038065147","5223194.0"
"1573038065195","5199798.0"
"1573038065250","5177063.0"
"1573038065297","5206601.0"
"1573038065347","5189006.0"
"1573038065398","5168400.0"
"1573038065446","5150695.0"
"1573038065496","5141404.0"
"1573038065537","5181413.0"
"1573038065593","5182224.0"
"1573038065636","5068476.0"
"1573038065684","4988377.0"
"1573038065736","4943325.0"
"1573038065782","4945696.0"
"1573038065835","4965540.0"
"1573038065880","4988566.0"
"1573038065930","4980305.0"
"1573038065977","4948717.0"
"1573038066026","4917089.0"
"1573038066076","4887763.0"
"1573038066124","4857705.0"
"1573038066175","4850683.0"
"1573038066222","4851372.0"
"1573038066277","4883380.0"
"1573038066320","4927451.0"
"1573038066370","4885881.0"
"1573038066418","4819606.0"
"1573038066467","4769483.0"
"1573038066516","4733314.0"
"1573038066564","4757560.0"
"1573038066613","4808803.0"
"1573038066661","4941244.0"
"1573038066715","4997558.0"
"1573038066760","4937014.0"
"1573038066840","4928853.0"
"1573038066886","4931923.0"
"1573038066957","4913509.0"
"1573038066957","4902166.0"
"1573038067016","4841041.0"
"1573038067056","4912117.0"
"1573038067102","4935864.0"
"1573038067152","4874908.0"
"1573038067199","4813813.0"
"1573038067250","4774235.0"
"1573038067297","4715879.0"
"1573038067346","4685832.0"
"1573038067397","4710660.0"
"1573038067444","4740827.0"
"1573038067495","4726113.0"
"1573038067542","4703536.0"
"1573038067595","4705076.0"
"1573038067640","4713500.0"
"1573038067690","4716590.0"
"1573038067737","4702978.0"
"1573038067787","4682971.0"
"1573038067836","4646653.0"
"1573038067885","4558632.0"
"1573038067936","4499027.0"
"1573038067983","4475032.0"
"1573038068033","4478742.0"
"1573038068079","4509960.0"
"1573038068130","4525423.0"
"1573038068178","4498066.0"
"1573038068228","4480743.0"
"1573038068276","4472760.0"
"1573038068323","4477602.0"
"1573038068376","4498736.0"
"1573038068423","4515222.0"
"1573038068473","4529554.0"
"1573038068520","4571625.0"
"1573038068568","4609464.0"
"1573038068618","4540357.0"
"1573038068668","4458437.0"
"1573038068716","4430130.0"
"1573038068766","4429570.0"
"1573038068814","4482492.0"
"1573038068862","4485713.0"
"1573038068917","4504317.0"
"1573038068965","4475580.0"
"1573038069013","4436372.0"
"1573038069057","4411936.0"
"1573038069113","4420067.0"
"1573038069157","4426089.0"
"1573038069211","4422578.0"
"1573038069259","4444574.0"
"1573038069301","4485304.0"
"1573038069351","4489856.0"
"1573038069406","4376417.0"
"1573038069454","4303309.0"
"1573038069499","4294326.0"
"1573038069547","4332986.0"
"1573038069602","4366185.0"
"1573038069646","4421617.0"
"1573038069698","4461588.0"
"1573038069743","4498688.0"
"1573038069797","4486595.0"
"1573038069847","4450566.0"
"1573038069897","4440632.0"
"1573038069939","4437562.0"
"1573038069990","4450744.0"
"1573038070038","4496826.0"
"1573038070093","4560272.0"
"1573038070137","4544938.0"
"1573038070182","4459717.0"
"1573038070234","4372756.0"
"1573038070281","4308410.0"
"1573038070337","4279594.0"
"1573038070380","4267060.0"
"1573038070430","4302679.0"
"1573038070478","4350270.0"
"1573038070531","4352690.0"
"1573038070582","4346969.0"
"1573038070629","4323063.0"
"1573038070674","4282154.0"
"1573038070722","4272713.0"
"1573038070776","4319874.0"
"1573038070821","4373357.0"
"1573038070874","4420317.0"
"1573038070916","4372725.0"
"1573038070968","4349220.0"
"1573038071017","4356081.0"
"1573038071070","4356323.0"
"1573038071119","4390300.0"
"1573038071162","4433162.0"
"1573038071212","4515311.0"
"1573038071266","4551929.0"
"1573038071315","4549260.0"
"1573038071357","4545298.0"
"1573038071412","4557712.0"
"1573038071458","4555371.0"
"1573038071508","4559201.0"
"1573038071559","4529974.0"
"1573038071608","4559882.0"
"1573038071652","4595961.0"
"1573038071699","4540487.0"
"1573038071749","4509649.0"
"1573038071799","4499397.0"
"1573038071851","4458778.0"
"1573038071898","4406194.0"
"1573038071946","4478273.0"
"1573038071993","4575136.0"
"1573038072048","4650055.0"
"1573038072098","4669949.0"
"1573038072142","4680031.0"
"1573038072190","4680832.0"
"1573038072241","4676400.0"
"1573038072294","4690885.0"
"1573038072344","4728584.0"
"1573038072386","4750468.0"
"1573038072436","4744236.0"
"1573038072489","4699916.0"
"1573038072537","4685133.0"
"1573038072582","4666487.0"
"1573038072636","4692124.0"
"1573038072679","4796840.0"
"1573038072736","4901916.0"
"1573038072784","4957549.0"
"1573038072833","5003861.0"
"1573038072880","5008522.0"
"1573038072923","5017484.0"
"1573038072979","5030018.0"
"1573038073027","5042480.0"
"1573038073077","5060154.0"
"1573038073119","5091581.0"
"1573038073169","5131491.0"
"1573038073224","5130191.0"
"1573038073272","5071276.0"
"1573038073320","5042919.0"
"1573038073365","5036147.0"
"1573038073413","5063974.0"
"1573038073467","5172502.0"
"1573038073517","5255322.0"
"1573038073561","5401638.0"
"1573038073612","5540601.0"
"1573038073662","5631053.0"
"1573038073712","5648987.0"
"1573038073761","5650438.0"
"1573038073805","5667212.0"
"1573038073857","5699350.0"
"1573038073903","5761005.0"
"1573038073958","5780551.0"
"1573038074001","5813607.0"
"1573038074051","5836984.0"
"1573038074103","5810078.0"
"1573038074146","5806766.0"
"1573038074201","5803656.0"
"1573038074251","5801695.0"
"1573038074299","5827541.0"
"1573038074343","5890596.0"
"1573038074391","5857989.0"
"1573038074448","5828581.0"
"1573038074495","5823841.0"
"1573038074542","5794824.0"
"1573038074588","5774309.0"
"1573038074635","5787962.0"
"1573038074691","5786211.0"
"1573038074740","5792483.0"
"1573038074784","5803855.0"
"1573038074835","5777318.0"
"1573038074880","5734129.0"
"1573038074936","5723546.0"
"1573038074987","5745731.0"
"1573038075035","5777989.0"
"1573038075077","5782710.0"
"1573038075132","5714673.0"
"1573038075180","5705642.0"
"1573038075229","5749343.0"
"1573038075278","5710142.0"
"1573038075321","5679886.0"
"1573038075376","5665011.0"
"1573038075422","5661391.0"
"1573038075477","5683246.0"
"1573038075522","5699791.0"
"1573038075568","5685166.0"
"1573038075615","5574950.0"
"1573038075664","5491128.0"
"1573038075719","5460831.0"
"1573038075761","5455390.0"
"1573038075813","5469525.0"
"1573038075868","5509014.0"
"1573038075914","5617639.0"
"1573038075963","5658370.0"
"1573038076008","5678585.0"
"1573038076057","5660850.0"
"1573038076107","5643416.0"
"1573038076155","5635155.0"
"1573038076203","5632455.0"
"1573038076258","5647427.0"
"1573038076303","5676355.0"
"1573038076352","5681885.0"
"1573038076403","5669162.0"
"1573038076453","5661821.0"
"1573038076501","5634635.0"
"1573038076544","5599947.0"
"1573038076599","5583642.0"
"1573038076645","5618271.0"
"1573038076698","5609679.0"
"1573038076744","5601525.0"
"1573038076790","5567207.0"
"1573038076843","5520146.0"
"1573038076895","5466022.0"
"1573038076941","5379982.0"
"1573038076987","5299642.0"
"1573038077034","5276487.0"
"1573038077092","5269205.0"
"1573038077140","5162428.0"
"1573038077190","5096204.0"
"1573038077231","5043169.0"
"1573038077279","4976073.0"
"1573038077334","4934133.0"
"1573038077377","4914868.0"
"1573038077427","4932864.0"
"1573038077475","4875790.0"
"1573038077524","4834208.0"
"1573038077575","4814764.0"
"1573038077625","4808492.0"
"1573038077670","4777315.0"
"1573038077718","4741806.0"
"1573038077768","4732653.0"
"1573038077825","4748698.0"
"1573038077873","4736855.0"
"1573038077920","4665547.0"
"1573038077965","4606512.0"
"1573038078012","4569234.0"
"1573038078070","4495026.0"
"1573038078118","4442292.0"
"1573038078160","4435982.0"
"1573038078210","4413886.0"
"1573038078257","4391172.0"
"1573038078315","4368635.0"
"1573038078361","4395901.0"
"1573038078407","4410725.0"
"1573038078455","4360882.0"
"1573038078511","4320073.0"
"1573038078553","4311161.0"
"1573038078606","4348139.0"
"1573038078652","4329465.0"
"1573038078698","4226060.0"
"1573038078756","4191802.0"
"1573038078802","4192172.0"
"1573038078847","4236462.0"
"1573038078901","4260709.0"
"1573038078946","4323043.0"
"1573038078994","4444023.0"
"1573038079047","4511349.0"
"1573038079096","4515541.0"
"1573038079139","4511451.0"
"1573038079189","4501959.0"
"1573038079237","4492576.0"
"1573038079292","4409545.0"
"1573038079341","4300088.0"
"1573038079392","4282394.0"
"1573038079433","4248726.0"
"1573038079486","4204655.0"
"1573038079537","4195502.0"
"1573038079585","4205545.0"
"1573038079631","4234693.0"
"1573038079677","4231901.0"
"1573038079727","4260419.0"
"1573038079781","4342588.0"
"1573038079833","4314481.0"
"1573038079878","4365854.0"
"1573038079924","4410376.0"
"1573038079978","4427300.0"
"1573038080025","4477031.0"
"1573038080076","4557312.0"
"1573038080123","4647293.0"
"1573038080169","4617636.0"
"1573038080221","4514110.0"
"1573038080269","4452425.0"
"1573038080320","4429190.0"
"1573038080370","4462908.0"
"1573038080412","4535015.0"
"1573038080463","4630979.0"
"1573038080511","4723752.0"
"1573038080559","4711448.0"
"1573038080611","4645644.0"
"1573038080656","4619767.0"
"1573038080706","4616876.0"
"1573038080760","4634630.0"
"1573038080807","4658637.0"
"1573038080854","4690173.0"
"1573038080901","4722011.0"
"1573038080953","4678412.0"
"1573038081001","4572285.0"
"1573038081052","4527674.0"
"1573038081099","4537146.0"
"1573038081151","4572946.0"
"1573038081197","4641442.0"
"1573038081249","4749198.0"
"1573038081294","4974854.0"
"1573038081343","4964811.0"
"1573038081391","4921541.0"
"1573038081442","4906496.0"
"1573038081493","4911268.0"
"1573038081540","4909157.0"
"1573038081593","4920159.0"
"1573038081637","4905226.0"
"1573038081690","4912788.0"
"1573038081735","4865586.0"
"1573038081784","4671849.0"
"1573038081834","4563642.0"
"1573038081883","4531805.0"
"1573038081933","4525234.0"
"1573038081980","4554611.0"
"1573038082029","4611275.0"
"1573038082078","4662477.0"
"1573038082129","4724792.0"
"1573038082176","4725012.0"
"1573038082226","4723301.0"
"1573038082274","4728742.0"
"1573038082323","4742517.0"
"1573038082373","4793929.0"
"1573038082420","4841660.0"
"1573038082473","4943106.0"
"1573038082516","4908186.0"
"1573038082569","4809604.0"
"1573038082615","4756000.0"
"1573038082663","4751008.0"
"1573038082714","4811274.0"
"1573038082762","4899145.0"
"1573038082816","5049451.0"
"1573038082866","5189806.0"
"1573038082911","5222263.0"
"1573038082962","5207220.0"
"1573038083012","5175742.0"
"1573038083060","5152087.0"
"1573038083110","5151577.0"
"1573038083154","5184574.0"
"1573038083208","5222123.0"
"1573038083258","5249491.0"
"1573038083306","5272257.0"
"1573038083353","5222064.0"
"1573038083404","5217513.0"
"1573038083461","5174912.0"
"1573038083511","5183674.0"
"1573038083551","5213281.0"
"1573038083600","5242018.0"
"1573038083644","5300303.0"
"1573038083697","5326709.0"
"1573038083747","5297631.0"
"1573038083795","5266545.0"
"1573038083847","5254111.0"
"1573038083896","5234176.0"
"1573038083943","5215471.0"
"1573038083997","5224005.0"
"1573038084041","5213972.0"
"1573038084090","5222814.0"
"1573038084138","5150927.0"
"1573038084188","5042440.0"
"1573038084237","4916128.0"
"1573038084286","4841400.0"
"1573038084336","4788358.0"
"1573038084385","4827826.0"
"1573038084435","4838851.0"
"1573038084482","4807903.0"
"1573038084532","4807432.0"
"1573038084581","4799041.0"
"1573038084629","4741506.0"
"1573038084673","4673540.0"
"1573038084727","4652454.0"
"1573038084779","4649213.0"
"1573038084823","4659216.0"
"1573038084874","4688493.0"
"1573038084923","4644382.0"
"1573038084973","4563352.0"
"1573038085019","4496666.0"
"1573038085070","4428860.0"
"1573038085113","4368065.0"
"1573038085167","4321154.0"
"1573038085220","4306251.0"
"1573038085265","4263889.0"
"1573038085319","4232892.0"
"1573038085363","4218849.0"
"1573038085413","4227141.0"
"1573038085461","4183669.0"
"1573038085504","4133747.0"
"1573038085553","4106601.0"
"1573038085601","4103251.0"
"1573038085654","4113873.0"
"1573038085701","4078785.0"
"1573038085756","4047766.0"
"1573038085800","4017009.0"
"1573038085855","3924577.0"
"1573038085901","3900771.0"
"1573038085951","3888058.0"
"1573038085994","3980170.0"
"1573038086048","4136588.0"
"1573038086100","4207205.0"
"1573038086143","4229912.0"
"1573038086198","4242444.0"
"1573038086244","4276662.0"
"1573038086294","4297827.0"
"1573038086341","4305861.0"
"1573038086392","4313362.0"
"1573038086435","4328685.0"
"1573038086489","4351611.0"
"1573038086533","4284834.0"
"1573038086587","4272843.0"
"1573038086640","4323114.0"
"1573038086684","4376496.0"
"1573038086734","4425278.0"
"1573038086778","4471430.0"
"1573038086834","4547478.0"
"1573038086880","4586959.0"
"1573038086930","4575585.0"
"1573038086975","4580498.0"
"1573038087028","4577946.0"
"1573038087079","4585148.0"
"1573038087126","4619005.0"
"1573038087174","4639581.0"
"1573038087218","4675220.0"
"1573038087273","4627949.0"
"1573038087319","4567673.0"
"1573038087370","4552620.0"
"1573038087415","4552281.0"
"1573038087467","4612935.0"
"1573038087518","4745358.0"
"1573038087560","4840990.0"
"1573038087612","4986556.0"
"1573038087658","5061274.0"
"1573038087710","5071368.0"
"1573038087756","5108547.0"
"1573038087811","5107315.0"
"1573038087854","5113116.0"
"1573038087909","5152566.0"
"1573038087958","5170210.0"
"1573038088006","5229765.0"
"1573038088056","5276938.0"
"1573038088103","5278187.0"
"1573038088150","5264123.0"
"1573038088202","5288149.0"
"1573038088252","5321207.0"
"1573038088295","5339932.0"
"1573038088350","5391965.0"
"1573038088401","5523458.0"
"1573038088447","5592194.0"
"1573038088497","5622562.0"
"1573038088545","5589993.0"
"1573038088595","5581572.0"
"1573038088643","5523837.0"
"1573038088694","5520296.0"
"1573038088740","5490779.0"
"1573038088792","5514654.0"
"1573038088840","5506503.0"
"1573038088889","5468584.0"
"1573038088942","5417941.0"
"1573038088986","5375372.0"
"1573038089036","5352244.0"
"1573038089084","5331640.0"
"1573038089133","5355385.0"
"1573038089182","5436135.0"
"1573038089233","5429363.0"
"1573038089278","5377340.0"
"1573038089331","5348705.0"
"1573038089380","5317337.0"
"1573038089428","5282318.0"
"1573038089477","5264455.0"
"1573038089526","5271476.0"
"1573038089575","5292481.0"
"1573038089619","5219143.0"
"1573038089668","5070356.0"
"1573038089715","4976863.0"
"1573038089771","4896345.0"
"1573038089821","4887592.0"
"1573038089868","4864646.0"
"1573038089917","4840781.0"
"1573038089966","4966172.0"
"1573038090016","5090301.0"
"1573038090063","5105826.0"
"1573038090115","5112957.0"
"1573038090157","5109755.0"
"1573038090212","5080039.0"
"1573038090260","5068405.0"
"1573038090308","5077908.0"
"1573038090359","5050032.0"
"1573038090406","5046481.0"
"1573038090456","4909897.0"
"1573038090504","4831459.0"
"1573038090554","4826177.0"
"1573038090601","4837400.0"
"1573038090647","4822536.0"
"1573038090703","4810802.0"
"1573038090749","4818966.0"
"1573038090797","4809224.0"
"1573038090847","4746638.0"
"1573038090896","4704847.0"
"1573038090943","4700275.0"
"1573038090995","4687713.0"
"1573038091039","4681821.0"
"1573038091092","4691573.0"
"1573038091144","4707547.0"
"1573038091189","4671969.0"
"1573038091238","4533445.0"
"1573038091287","4447494.0"
"1573038091337","4425709.0"
"1573038091383","4441953.0"
"1573038091434","4461738.0"
"1573038091476","4467768.0"
"1573038091526","4491635.0"
"1573038091578","4536397.0"
"1573038091623","4542228.0"
"1573038091672","4536937.0"
"1573038091723","4528434.0"
"1573038091773","4486595.0"
"1573038091822","4491276.0"
"1573038091871","4516752.0"
"1573038091919","4565774.0"
"1573038091972","4523973.0"
"1573038092023","4457977.0"
"1573038092069","4379127.0"
"1573038092118","4356012.0"
"1573038092162","4362973.0"
"1573038092217","4355923.0"
"1573038092265","4335488.0"
"1573038092315","4378187.0"
"1573038092360","4391651.0"
"1573038092413","4396233.0"
"1573038092463","4420047.0"
"1573038092510","4419228.0"
"1573038092559","4389991.0"
"1573038092601","4384308.0"
"1573038092651","4412997.0"
"1573038092700","4439992.0"
"1573038092749","4394961.0"
"1573038092801","4371667.0"
"1573038092848","4369895.0"
"1573038092899","4375627.0"
"1573038092943","4392181.0"
"1573038092992","4440673.0"
"1573038093041","4480032.0"
"1573038093090","4461578.0"
"1573038093139","4444174.0"
"1573038093189","4428820.0"
"1573038093240","4433241.0"
"1573038093288","4425898.0"
"1573038093340","4352631.0"
"1573038093384","4329246.0"
"1573038093433","4354811.0"
"1573038093482","4360892.0"
"1573038093531","4319624.0"
"1573038093582","4308910.0"
"1573038093633","4314522.0"
"1573038093684","4307791.0"
"1573038093730","4277302.0"
"1573038093786","4272572.0"
"1573038093833","4257277.0"
"1573038093880","4226610.0"
"1573038093931","4191173.0"
"1573038093979","4179720.0"
"1573038094028","4193103.0"
"1573038094078","4197562.0"
"1573038094120","4188541.0"
"1573038094175","4164435.0"
"1573038094224","4188832.0"
"1573038094268","4197713.0"
"1573038094315","4148752.0"
"1573038094364","4133059.0"
"1573038094413","4120494.0"
"1573038094468","4149601.0"
"1573038094517","4141360.0"
"1573038094561","4154292.0"
"1573038094617","4116764.0"
"1573038094666","4093218.0"
"1573038094714","4110701.0"
"1573038094761","4110982.0"
"1573038094811","4129117.0"
"1573038094861","4137638.0"
"1573038094909","4112802.0"
"1573038094958","4049206.0"
"1573038095001","4016568.0"
"1573038095057","3995465.0"
"1573038095107","3968357.0"
"1573038095150","3965947.0"
"1573038095201","3969448.0"
"1573038095246","3992242.0"
"1573038095294","3987783.0"
"1573038095345","3968038.0"
"1573038095399","3915164.0"
"1573038095447","3900600.0"
"1573038095497","3915845.0"
"1573038095548","3924396.0"
"1573038095589","3945163.0"
"1573038095636","3952524.0"
"1573038095689","3959586.0"
"1573038095737","3961807.0"
"1573038095786","3948613.0"
"1573038095835","3885608.0"
"1573038095883","3840087.0"
"1573038095937","3843226.0"
"1573038095988","3909302.0"
"1573038096036","3984512.0"
"1573038096084","4060800.0"
"1573038096134","4101879.0"
"1573038096181","4094549.0"
"1573038096233","4027371.0"
"1573038096279","4003537.0"
"1573038096329","4018539.0"
"1573038096378","4034574.0"
"1573038096427","4044637.0"
"1573038096476","4070462.0"
"1573038096528","4149252.0"
"1573038096574","4115273.0"
"1573038096623","4032952.0"
"1573038096668","3993984.0"
"1573038096720","4015849.0"
"1573038096766","4071233.0"
"1573038096813","4112243.0"
"1573038096863","4176459.0"
"1573038096914","4231411.0"
"1573038096965","4224130.0"
"1573038097012","4192073.0"
"1573038097060","4188371.0"
"1573038097114","4183180.0"
"1573038097158","4190732.0"
"1573038097211","4278784.0"
"1573038097259","4335327.0"
"1573038097304","4414266.0"
"1573038097358","4377136.0"
"1573038097409","4313311.0"
"1573038097457","4275183.0"
"1573038097504","4282294.0"
"1573038097554","4290866.0"
"1573038097601","4301608.0"
"1573038097647","4332836.0"
"1573038097696","4320824.0"
"1573038097747","4293207.0"
"1573038097794","4240654.0"
"1573038097844","4209806.0"
"1573038097896","4185220.0"
"1573038097945","4206155.0"
"1573038097995","4219660.0"
"1573038098042","4304280.0"
"1573038098092","4331276.0"
"1573038098142","4261569.0"
"1573038098186","4196693.0"
"1573038098238","4098389.0"
"1573038098290","4087456.0"
"1573038098337","4094077.0"
"1573038098385","4119925.0"
"1573038098435","4124436.0"
"1573038098482","4096148.0"
"1573038098534","4089786.0"
"1573038098581","4087456.0"
"1573038098625","4053248.0"
"1573038098674","4018549.0"
"1573038098729","4009016.0"
"1573038098777","4015819.0"
"1573038098825","4051768.0"
"1573038098875","4041534.0"
"1573038098923","4021061.0"
"1573038098974","4006257.0"
"1573038099022","3969318.0"
"1573038099071","3952794.0"
"1573038099119","3941020.0"
"1573038099171","3953243.0"
"1573038099217","3904463.0"
"1573038099266","3910213.0"
"1573038099316","3956085.0"
"1573038099364","3983150.0"
"1573038099414","3971317.0"
"1573038099461","3925957.0"
"1573038099510","3895210.0"
"1573038099561","3888898.0"
"1573038099612","3869553.0"
"1573038099654","3873775.0"
"1573038099707","3867233.0"
"1573038099756","3862412.0"
"1573038099805","3834164.0"
"1573038099848","3802368.0"
"1573038099903","3806549.0"
"1573038099955","3814341.0"
"1573038100001","3786504.0"
"1573038100051","3796796.0"
"1573038100099","3832324.0"
"1573038100144","3862692.0"
"1573038100192","3869803.0"
"1573038100246","3857940.0"
"1573038100295","3828163.0"
"1573038100343","3850819.0"
"1573038100395","3840426.0"
"1573038100442","3810840.0"
"1573038100493","3795986.0"
"1573038100540","3806908.0"
"1573038100588","3824922.0"
"1573038100638","3798326.0"
"1573038100686","3804938.0"
"1573038100737","3780522.0"
"1573038100783","3780742.0"
"1573038100831","3800116.0"
"1573038100881","3813390.0"
"1573038100930","3843427.0"
"1573038100980","3853220.0"
"1573038101029","3829593.0"
"1573038101076","3788123.0"
"1573038101127","3774740.0"
"1573038101176","3735641.0"
"1573038101224","3734611.0"
"1573038101269","3729649.0"
"1573038101317","3756836.0"
"1573038101373","3791544.0"
"1573038101420","3811840.0"
"1573038101470","3822382.0"
"1573038101519","3877345.0"
"1573038101567","3885407.0"
"1573038101617","3899830.0"
"1573038101660","3924077.0"
"1573038101711","3936830.0"
"1573038101762","3941270.0"
"1573038101813","3961287.0"
"1573038101862","3981970.0"
"1573038101914","3926127.0"
"1573038101959","3847249.0"
"1573038102009","3824843.0"
"1573038102059","3831283.0"
"1573038102106","3863942.0"
"1573038102152","3889249.0"
"1573038102204","3945721.0"
"1573038102251","3953615.0"
"1573038102301","3934480.0"
"1573038102351","3931838.0"
"1573038102399","3955265.0"
"1573038102446","3962595.0"
"1573038102494","3987732.0"
"1573038102543","4012448.0"
"1573038102595","4028052.0"
"1573038102641","4048798.0"
"1573038102692","4000906.0"
"1573038102739","3978880.0"
"1573038102792","3989323.0"
"1573038102836","4014679.0"
"1573038102891","4031693.0"
"1573038102938","4065060.0"
"1573038102988","4065552.0"
"1573038103035","4068282.0"
"1573038103085","4045677.0"
"1573038103136","4017560.0"
"1573038103183","4012267.0"
"1573038103233","3992324.0"
"1573038103282","3967748.0"
"1573038103332","4014559.0"
"1573038103374","4106071.0"
"1573038103429","4135738.0"
"1573038103477","4124466.0"
"1573038103526","4163425.0"
"1573038103574","4254256.0"
"1573038103622","4329445.0"
"1573038103677","4352152.0"
"1573038103723","4351431.0"
"1573038103772","4291476.0"
"1573038103819","4291996.0"
"1573038103870","4274452.0"
"1573038103914","4220229.0"
"1573038103967","4180918.0"
"1573038104018","4243124.0"
"1573038104065","4263970.0"
"1573038104119","4361644.0"
"1573038104161","4458587.0"
"1573038104213","4443394.0"
"1573038104260","4422428.0"
"1573038104311","4413387.0"
"1573038104355","4431280.0"
"1573038104408","4460237.0"
"1573038104456","4511581.0"
"1573038104506","4535905.0"
"1573038104559","4504769.0"
"1573038104604","4503639.0"
"1573038104654","4504978.0"
"1573038104702","4495317.0"
"1573038104752","4474591.0"
"1573038104798","4465800.0"
"1573038104852","4533965.0"
"1573038104892","4626068.0"
"1573038104947","4672048.0"
"1573038104998","4617506.0"
"1573038105045","4589738.0"
"1573038105093","4565514.0"
"1573038105142","4539987.0"
"1573038105193","4518192.0"
"1573038105238","4516912.0"
"1573038105290","4534946.0"
"1573038105333","4534885.0"
"1573038105388","4522713.0"
"1573038105439","4521073.0"
"1573038105486","4516691.0"
"1573038105539","4470601.0"
"1573038105584","4438743.0"
"1573038105634","4494506.0"
"1573038105682","4544438.0"
"1573038105731","4524174.0"
"1573038105779","4553339.0"
"1573038105828","4613434.0"
"1573038105873","4705917.0"
"1573038105926","4778615.0"
"1573038105977","4840131.0"
"1573038106025","4891243.0"
"1573038106073","4932792.0"
"1573038106122","4924631.0"
"1573038106174","4918660.0"
"1573038106220","4914279.0"
"1573038106263","4885122.0"
"1573038106315","4846933.0"
"1573038106362","4793148.0"
"1573038106419","4784737.0"
"1573038106465","4725172.0"
"1573038106516","4674730.0"
"1573038106558","4661816.0"
"1573038106613","4701726.0"
"1573038106656","4773384.0"
"1573038106711","4793689.0"
"1573038106758","4747398.0"
"1573038106810","4653244.0"
"1573038106857","4627577.0"
"1573038106900","4655855.0"
"1573038106953","4707588.0"
"1573038106998","4729782.0"
"1573038107049","4753440.0"
"1573038107097","4756729.0"
"1573038107148","4745348.0"
"1573038107195","4680181.0"
"1573038107250","4596882.0"
"1573038107297","4574295.0"
"1573038107348","4589070.0"
"1573038107400","4639012.0"
"1573038107445","4660957.0"
"1573038107494","4624958.0"
"1573038107543","4584088.0"
"1573038107594","4511390.0"
"1573038107636","4486574.0"
"1573038107690","4487954.0"
"1573038107737","4498147.0"
"1573038107785","4494516.0"
"1573038107836","4484183.0"
"1573038107883","4499858.0"
"1573038107936","4485934.0"
"1573038107984","4382868.0"
"1573038108033","4310381.0"
"1573038108082","4275382.0"
"1573038108131","4297248.0"
"1573038108177","4329786.0"
"1573038108232","4352731.0"
"1573038108279","4368705.0"
"1573038108327","4318012.0"
"1573038108380","4327594.0"
"1573038108425","4344990.0"
"1573038108475","4337188.0"
"1573038108523","4335396.0"
"1573038108569","4337787.0"
"1573038108622","4333446.0"
"1573038108667","4420238.0"
"1573038108719","4446415.0"
"1573038108768","4364413.0"
"1573038108821","4302388.0"
"1573038108867","4288166.0"
"1573038108917","4317372.0"
"1573038108964","4331495.0"
"1573038109012","4370966.0"
"1573038109061","4352991.0"
"1573038109113","4342150.0"
"1573038109155","4277802.0"
"1573038109205","4210056.0"
"1573038109260","4169616.0"
"1573038109307","4148561.0"
"1573038109357","4139438.0"
"1573038109405","4202124.0"
"1573038109455","4262170.0"
"1573038109501","4308211.0"
"1573038109554","4292146.0"
"1573038109596","4255288.0"
"1573038109647","4300879.0"
"1573038109703","4368485.0"
"1573038109748","4365275.0"
"1573038109797","4394802.0"
"1573038109848","4426790.0"
"1573038109897","4484083.0"
"1573038109946","4480473.0"
"1573038109994","4440324.0"
"1573038110036","4379757.0"
"1573038110092","4313061.0"
"1573038110144","4288205.0"
"1573038110189","4298439.0"
"1573038110238","4262058.0"
"1573038110287","4230991.0"
"1573038110337","4206955.0"
"1573038110386","4155363.0"
"1573038110436","4134609.0"
"1573038110478","4116733.0"
"1573038110534","4135499.0"
"1573038110583","4146980.0"
"1573038110624","4149122.0"
"1573038110674","4144900.0"
"1573038110723","4147961.0"
"1573038110774","4109332.0"
"1573038110820","4053508.0"
"1573038110877","4043016.0"
"1573038110917","4060710.0"
"1573038110974","4089567.0"
"1573038111022","4051307.0"
"1573038111071","4039604.0"
"1573038111122","4049928.0"
"1573038111168","4060190.0"
"1573038111212","4051317.0"
"1573038111267","4066182.0"
"1573038111317","4102150.0"
"1573038111365","4121494.0"
"1573038111414","4116935.0"
"1573038111457","4100750.0"
"1573038111513","4117934.0"
"1573038111562","4114564.0"
"1573038111611","4106321.0"
"1573038111655","4115273.0"
"1573038111708","4181048.0"
"1573038111757","4149313.0"
"1573038111806","4110933.0"
"1573038111858","4094888.0"
"1573038111904","4119094.0"
"1573038111955","4147301.0"
"1573038112002","4134828.0"
"1573038112053","4143851.0"
"1573038112103","4116313.0"
"1573038112146","4072714.0"
"1573038112199","4052908.0"
"1573038112249","4044367.0"
"1573038112298","4055619.0"
"1573038112348","4032613.0"
"1573038112396","3966396.0"
"1573038112441","3909843.0"
"1573038112493","3879635.0"
"1573038112545","3849049.0"
"1573038112586","3821931.0"
"1573038112641","3836084.0"
"1573038112685","3857651.0"
"1573038112735","3866193.0"
"1573038112784","3830363.0"
"1573038112833","3802447.0"
"1573038112880","3788373.0"
"1573038112930","3779752.0"
"1573038112981","3763157.0"
"1573038113033","3788304.0"
"1573038113086","3781782.0"
"1573038113131","3770489.0"
"1573038113180","3736281.0"
"1573038113229","3750444.0"
"1573038113278","3749414.0"
"1573038113325","3746864.0"
"1573038113376","3762848.0"
"1573038113422","3798786.0"
"1573038113473","3850059.0"
"1573038113526","3871565.0"
"1573038113567","3875986.0"
"1573038113620","3785173.0"
"1573038113665","3757186.0"
"1573038113719","3746454.0"
"1573038113768","3770148.0"
"1573038113817","3794354.0"
"1573038113866","3804777.0"
"1573038113916","3821131.0"
"1573038113966","3823372.0"
"1573038114013","3805078.0"
"1573038114061","3767708.0"
"1573038114110","3763488.0"
"1573038114155","3780030.0"
"1573038114204","3831174.0"
"1573038114253","3876766.0"
"1573038114304","3910544.0"
"1573038114357","3936670.0"
"1573038114405","3918945.0"
"1573038114453","3908122.0"
"1573038114502","3908093.0"
"1573038114552","3981531.0"
"1573038114600","3990473.0"
"1573038114646","4021920.0"
"1573038114698","4083336.0"
"1573038114743","4147271.0"
"1573038114797","4124986.0"
"1573038114848","4033653.0"
"1573038114894","3987273.0"
"1573038114942","3978930.0"
"1573038114993","3978280.0"
"1573038115041","3952514.0"
"1573038115090","3971638.0"
"1573038115139","4048138.0"
"1573038115186","4144190.0"
"1573038115238","4174177.0"
"1573038115287","4203205.0"
"1573038115335","4191971.0"
"1573038115383","4198334.0"
"1573038115433","4218558.0"
"1573038115482","4213426.0"
"1573038115531","4260248.0"
"1573038115575","4217768.0"
"1573038115627","4163045.0"
"1573038115678","4114403.0"
"1573038115726","4118664.0"
"1573038115776","4139349.0"
"1573038115829","4178909.0"
"1573038115874","4202875.0"
"1573038115922","4210807.0"
"1573038115972","4227961.0"
"1573038116020","4261109.0"
"1573038116070","4246406.0"
"1573038116118","4214938.0"
"1573038116165","4194304.0"
"1573038116212","4168376.0"
"1573038116263","4191721.0"
"1573038116313","4179488.0"
"1573038116362","4190142.0"
"1573038116413","4178929.0"
"1573038116461","4154504.0"
"1573038116510","4111122.0"
"1573038116559","4109431.0"
"1573038116603","4125846.0"
"1573038116654","4130027.0"
"1573038116707","4108952.0"
"1573038116756","4117694.0"
"1573038116803","4131317.0"
"1573038116853","4137049.0"
"1573038116901","4150402.0"
"1573038116951","4119875.0"
"1573038116999","4130068.0"
"1573038117046","4146712.0"
"1573038117097","4098830.0"
"1573038117146","4093677.0"
"1573038117195","4090567.0"
"1573038117245","4106061.0"
"1573038117294","4061391.0"
"1573038117341","4078155.0"
"1573038117392","4055958.0"
"1573038117440","4039826.0"
"1573038117485","4046476.0"
"1573038117539","4058339.0"
"1573038117590","4068642.0"
"1573038117637","4013238.0"
"1573038117685","4025171.0"
"1573038117735","3956425.0"
"1573038117777","3997295.0"
"1573038117828","3987342.0"
"1573038117874","3982401.0"
"1573038117925","3960576.0"
"1573038117974","3967947.0"
"1573038118026","3961346.0"
"1573038118076","3956215.0"
"1573038118125","3941050.0"
"1573038118176","3931178.0"
"1573038118222","3926347.0"
"1573038118274","3956075.0"
"1573038118321","3991212.0"
"1573038118365","4000195.0"
"1573038118415","4034484.0"
"1573038118467","4052648.0"
"1573038118514","4081084.0"
"1573038118566","4076643.0"
"1573038118617","4035703.0"
"1573038118662","4013868.0"
"1573038118714","4010528.0"
"1573038118762","4053609.0"
"1573038118812","4122376.0"
"1573038118856","4232273.0"
"1573038118907","4317742.0"
"1573038118954","4389749.0"
"1573038119003","4383928.0"
"1573038119052","4380588.0"
"1573038119100","4407405.0"
"1573038119150","4381618.0"
"1573038119198","4405644.0"
"1573038119248","4513980.0"
"1573038119296","4616236.0"
"1573038119346","4585457.0"
"1573038119394","4564053.0"
"1573038119443","4539717.0"
"1573038119493","4530974.0"
"1573038119541","4512900.0"
"1573038119591","4599582.0"
"1573038119638","4598261.0"
"1573038119692","4587538.0"
"1573038119737","4519962.0"
"1573038119788","4474912.0"
"1573038119840","4466598.0"
"1573038119890","4450976.0"
"1573038119938","4452305.0"
"1573038119986","4454956.0"
"1573038120032","4508279.0"
"1573038120077","4470800.0"
"1573038120131","4386899.0"
"1573038120182","4337468.0"
"1573038120233","4320843.0"
"1573038120280","4326916.0"
"1573038120333","4332275.0"
"1573038120376","4370996.0"
"1573038120427","4377378.0"
"1573038120477","4372506.0"
"1573038120524","4341308.0"
"1573038120571","4310491.0"
"1573038120622","4298877.0"
"1573038120669","4285015.0"
"1573038120720","4314703.0"
"1573038120770","4347280.0"
"1573038120814","4334077.0"
"1573038120871","4284964.0"
"1573038120917","4247846.0"
"1573038120966","4226710.0"
"1573038121013","4227401.0"
"1573038121064","4171627.0"
"1573038121110","4191841.0"
"1573038121157","4167285.0"
"1573038121213","4141860.0"
"1573038121261","4189671.0"
"1573038121309","4220649.0"
"1573038121352","4220909.0"
"1573038121406","4186940.0"
"1573038121452","4208546.0"
"1573038121504","4345969.0"
"1573038121553","4458036.0"
"1573038121601","4424059.0"
"1573038121649","4372697.0"
"1573038121701","4337767.0"
"1573038121751","4291147.0"
"1573038121792","4248716.0"
"1573038121842","4293337.0"
"1573038121891","4319863.0"
"1573038121942","4404274.0"
"1573038121991","4427249.0"
"1573038122039","4455247.0"
"1573038122091","4461277.0"
"1573038122142","4437762.0"
"1573038122191","4423838.0"
"1573038122240","4469971.0"
"1573038122288","4500037.0"
"1573038122337","4440232.0"
"1573038122386","4398102.0"
"1573038122435","4365145.0"
"1573038122478","4359803.0"
"1573038122535","4332117.0"
"1573038122577","4276473.0"
"1573038122633","4221190.0"
"1573038122680","4169847.0"
"1573038122729","4141251.0"
"1573038122778","4160495.0"
"1573038122826","4170536.0"
"1573038122870","4169766.0"
"1573038122919","4141669.0"
"1573038122974","4119554.0"
"1573038123023","4157173.0"
"1573038123074","4098710.0"
"1573038123120","4081265.0"
"1573038123171","4054048.0"
"1573038123220","4030813.0"
"1573038123269","4011339.0"
"1573038123314","4068061.0"
"1573038123366","4054639.0"
"1573038123413","4020451.0"
"1573038123457","3996964.0"
"1573038123514","4028962.0"
"1573038123558","4029242.0"
"1573038123607","4013838.0"
"1573038123655","4034553.0"
"1573038123709","4048286.0"
"1573038123752","4128416.0"
"1573038123806","4023761.0"
"1573038123855","3954813.0"
"1573038123905","3925987.0"
"1573038123958","3925117.0"
"1573038124002","3952154.0"
"1573038124054","3953434.0"
"1573038124096","3985792.0"
"1573038124147","4019309.0"
"1573038124198","3950293.0"
"1573038124248","3937481.0"
"1573038124295","3944161.0"
"1573038124346","3950033.0"
"1573038124397","3973739.0"
"1573038124444","4028993.0"
"1573038124497","4067862.0"
"1573038124542","4072242.0"
"1573038124586","3955573.0"
"1573038124639","3887087.0"
"1573038124689","3879645.0"
"1573038124734","3933039.0"
"1573038124787","3969479.0"
"1573038124838","3991974.0"
"1573038124886","4011698.0"
"1573038124937","3992143.0"
"1573038124983","3952463.0"
"1573038125027","3931028.0"
"1573038125076","3910424.0"
"1573038125130","3874104.0"
"1573038125173","3854000.0"
"1573038125227","3853758.0"
"1573038125274","3902722.0"
"1573038125325","3917025.0"
"1573038125376","3851739.0"
"1573038125423","3805137.0"
"1573038125473","3760306.0"
"1573038125520","3745743.0"
"1573038125572","3769669.0"
"1573038125615","3813130.0"
"1573038125665","3831163.0"
"1573038125716","3805478.0"
"1573038125768","3790333.0"
"1573038125817","3806437.0"
"1573038125865","3832805.0"
"1573038125914","3807607.0"
"1573038125963","3909172.0"
"1573038126013","3948462.0"
"1573038126061","3902661.0"
"1573038126111","3905682.0"
"1573038126155","3887837.0"
"1573038126208","3854929.0"
"1573038126254","3774021.0"
"1573038126305","3726169.0"
"1573038126357","3735040.0"
"1573038126397","3738741.0"
"1573038126453","3762078.0"
"1573038126497","3752634.0"
"1573038126551","3650210.0"
"1573038126599","3683878.0"
"1573038126645","3663733.0"
"1573038126696","3591645.0"
"1573038126746","3663973.0"
"1573038126800","3618062.0"
"1573038126845","3560687.0"
"1573038126896","3579552.0"
"1573038126942","3582943.0"
"1573038126993","3618681.0"
"1573038127041","3642138.0"
"1573038127091","3612420.0"
"1573038127137","3585044.0"
"1573038127188","3600648.0"
"1573038127235","3655042.0"
"1573038127286","3655312.0"
"1573038127329","3725307.0"
"1573038127377","3670334.0"
"1573038127430","3679416.0"
"1573038127476","3738030.0"
"1573038127528","3855130.0"
"1573038127575","3791603.0"
"1573038127629","3808038.0"
"1573038127678","3811620.0"
"1573038127726","3832415.0"
"1573038127776","3933738.0"
"1573038127826","4104921.0"
"1573038127876","4279233.0"
"1573038127922","4466539.0"
"1573038127973","4527664.0"
"1573038128020","4547409.0"
"1573038128072","4547949.0"
"1573038128119","4581597.0"
"1573038128168","4612345.0"
"1573038128217","4641891.0"
"1573038128266","4685303.0"
"1573038128315","4710599.0"
"1573038128362","4682443.0"
"1573038128413","4650264.0"
"1573038128458","4610665.0"
"1573038128508","4561462.0"
"1573038128554","4522272.0"
"1573038128605","4521303.0"
"1573038128656","4458398.0"
"1573038128706","4368995.0"
"1573038128756","4309061.0"
"1573038128805","4243425.0"
"1573038128853","4222090.0"
"1573038128900","4256038.0"
"1573038128953","4258789.0"
"1573038128997","4310871.0"
"1573038129050","4334006.0"
"1573038129100","4290897.0"
"1573038129143","4226720.0"
"1573038129197","4247895.0"
"1573038129240","4320274.0"
"1573038129294","4368016.0"
"1573038129341","4373276.0"
"1573038129396","4350592.0"
"1573038129439","4348940.0"
"1573038129490","4348290.0"
"1573038129542","4310412.0"
"1573038129583","4274462.0"
"1573038129637","4260778.0"
"1573038129686","4257489.0"
"1573038129735","4268700.0"
"1573038129778","4324784.0"
"1573038129835","4302159.0"
"1573038129882","4258027.0"
"1573038129932","4216738.0"
"1573038129983","4203054.0"
"1573038130028","4251666.0"
"1573038130078","4258708.0"
"1573038130122","4313071.0"
"1573038130177","4340459.0"
"1573038130225","4352331.0"
"1573038130274","4373577.0"
"1573038130318","4401403.0"
"1573038130374","4426640.0"
"1573038130421","4425128.0"
"1573038130470","4441782.0"
"1573038130518","4502777.0"
"1573038130567","4551119.0"
"1573038130618","4556661.0"
"1573038130661","4520852.0"
"1573038130716","4521022.0"
"1573038130762","4520431.0"
"1573038130814","4519921.0"
"1573038130861","4548120.0"
"1573038130911","4501658.0"
"1573038130959","4498336.0"
"1573038131009","4526673.0"
"1573038131057","4519421.0"
"1573038131106","4517050.0"
"1573038131152","4455356.0"
"1573038131203","4407785.0"
"1573038131255","4415126.0"
"1573038131297","4425350.0"
"1573038131352","4414976.0"
"1573038131402","4398362.0"
"1573038131443","4376277.0"
"1573038131498","4401044.0"
"1573038131542","4396781.0"
"1573038131591","4369976.0"
"1573038131639","4328945.0"
"1573038131695","4294298.0"
"1573038131742","4313742.0"
"1573038131794","4328196.0"
"1573038131844","4336158.0"
"1573038131891","4350870.0"
"1573038131938","4324614.0"
"1573038131983","4283505.0"
"1573038132031","4259809.0"
"1573038132081","4213248.0"
"1573038132133","4186160.0"
"1573038132183","4160865.0"
"1573038132230","4167956.0"
"1573038132284","4185900.0"
"1573038132331","4175658.0"
"1573038132380","4142049.0"
"1573038132429","4078644.0"
"1573038132477","4073803.0"
"1573038132527","4097349.0"
"1573038132577","4114923.0"
"1573038132619","4131998.0"
"1573038132669","4140570.0"
"1573038132723","4138418.0"
"1573038132774","4147531.0"
"1573038132819","4103271.0"
"1573038132870","4053209.0"
"1573038132918","4047307.0"
"1573038132969","4052559.0"
"1573038133017","4047676.0"
"1573038133060","4026361.0"
"1573038133115","4040175.0"
"1573038133161","4030543.0"
"1573038133214","3961646.0"
"1573038133260","3936560.0"
"1573038133310","3923837.0"
"1573038133359","3949533.0"
"1573038133408","4006446.0"
"1573038133453","4075893.0"
"1573038133502","4183320.0"
"1573038133550","4400853.0"
"1573038133599","4573696.0"
"1573038133647","4589600.0"
"1573038133701","4579756.0"
"1573038133747","4611555.0"
"1573038133800","4667568.0"
"1573038133850","4724882.0"
"1573038133899","4756709.0"
"1573038133945","4738306.0"
"1573038133997","4696035.0"
"1573038134042","4641251.0"
"1573038134096","4589478.0"
"1573038134143","4562913.0"
"1573038134194","4540767.0"
"1573038134241","4551371.0"
"1573038134292","4620627.0"
"1573038134336","4679952.0"
"1573038134390","4582528.0"
"1573038134438","4498657.0"
"1573038134486","4461188.0"
"1573038134537","4489675.0"
"1573038134585","4520212.0"
"1573038134635","4543829.0"
"1573038134687","4604674.0"
"1573038134733","4658086.0"
"1573038134782","4631940.0"
"1573038134832","4602193.0"
"1573038134881","4556241.0"
"1573038134929","4514941.0"
"1573038134978","4501699.0"
"1573038135021","4521862.0"
"1573038135076","4607223.0"
"1573038135126","4558691.0"
"1573038135175","4474020.0"
"1573038135221","4391600.0"
"1573038135273","4371616.0"
"1573038135320","4360653.0"
"1573038135364","4357343.0"
"1573038135419","4386470.0"
"1573038135468","4455667.0"
"1573038135517","4507209.0"
"1573038135567","4519661.0"
"1573038135615","4537807.0"
"1573038135660","4531586.0"
"1573038135713","4499787.0"
"1573038135760","4484514.0"
"1573038135811","4526943.0"
"1573038135860","4500898.0"
"1573038135905","4414927.0"
"1573038135957","4377687.0"
"1573038136003","4383589.0"
"1573038136057","4341268.0"
"1573038136107","4334057.0"
"1573038136150","4348149.0"
"1573038136202","4333437.0"
"1573038136249","4325804.0"
"1573038136301","4328206.0"
"1573038136350","4309810.0"
"1573038136399","4298709.0"
"1573038136445","4242184.0"
"1573038136492","4214357.0"
"1573038136549","4234213.0"
"1573038136591","4286654.0"
"1573038136640","4263109.0"
"1573038136689","4241414.0"
"1573038136742","4224540.0"
"1573038136795","4243244.0"
"1573038136840","4262838.0"
"1573038136890","4359184.0"
"1573038136939","4425569.0"
"1573038136987","4332456.0"
"1573038137037","4302949.0"
"1573038137089","4341408.0"
"1573038137136","4373636.0"
"1573038137184","4392732.0"
"1573038137235","4431051.0"
"1573038137282","4452736.0"
"1573038137327","4508759.0"
"1573038137380","4555410.0"
"1573038137425","4511609.0"
"1573038137478","4476401.0"
"1573038137530","4486314.0"
"1573038137570","4506640.0"
"1573038137620","4539077.0"
"1573038137668","4584027.0"
"1573038137717","4694855.0"
"1573038137770","4735014.0"
"1573038137817","4730593.0"
"1573038137873","4700535.0"
"1573038137919","4703916.0"
"1573038137969","4708658.0"
"1573038138017","4720851.0"
"1573038138067","4709278.0"
"1573038138116","4656065.0"
"1573038138165","4626198.0"
"1573038138214","4582777.0"
"1573038138257","4527374.0"
"1573038138313","4527874.0"
"1573038138361","4535456.0"
"1573038138406","4547279.0"
"1573038138458","4525813.0"
"1573038138510","4519192.0"
"1573038138557","4424789.0"
"1573038138603","4390570.0"
"1573038138650","4389790.0"
"1573038138703","4409774.0"
"1573038138755","4421117.0"
"1573038138801","4438812.0"
"1573038138847","4481934.0"
"1573038138901","4527955.0"
"1573038138950","4503287.0"
"1573038138998","4414807.0"
"1573038139047","4365043.0"
"1573038139096","4387080.0"
"1573038139142","4427320.0"
"1573038139194","4460718.0"
"1573038139242","4474621.0"
"1573038139286","4379008.0"
"1573038139340","4304839.0"
"1573038139390","4264819.0"
"1573038139438","4229680.0"
"1573038139487","4224900.0"
"1573038139537","4216078.0"
"1573038139586","4229512.0"
"1573038139637","4287345.0"
"1573038139683","4327296.0"
"1573038139729","4405944.0"
"1573038139781","4287146.0"
"1573038139832","4197294.0"
"1573038139881","4160414.0"
"1573038139928","4166926.0"
"1573038139978","4167736.0"
"1573038140026","4194824.0"
"1573038140070","4204385.0"
"1573038140125","4138910.0"
"1573038140169","4077604.0"
"1573038140223","4026372.0"
"1573038140268","4013358.0"
"1573038140320","4033814.0"
"1573038140370","4075454.0"
"1573038140418","4147701.0"
"1573038140467","4241895.0"
"1573038140517","4257678.0"
"1573038140566","4249346.0"
"1573038140611","4219489.0"
"1573038140660","4193982.0"
"1573038140710","4181420.0"
"1573038140760","4188261.0"
"1573038140812","4174488.0"
"1573038140860","4212118.0"
"1573038140910","4291636.0"
"1573038140958","4436742.0"
"1573038141006","4501428.0"
"1573038141056","4481284.0"
"1573038141105","4459347.0"
"1573038141152","4444174.0"
"1573038141202","4438932.0"
"1573038141252","4467429.0"
"1573038141296","4507428.0"
"1573038141353","4531905.0"
"1573038141400","4531685.0"
"1573038141450","4432680.0"
"1573038141498","4371646.0"
"1573038141546","4367144.0"
"1573038141592","4370515.0"
