time,value,value2,value3
1582470909273,9101891.0,6428944.0,0.0
1582470909324,9033933.0,3736781.0,0.0
1582470909374,2293428.0,548935.0,0.0
1582470909424,328287.0,111548.0,0.0
1582470909472,96156.0,156596.0,0.0
1582470909524,249748.0,304136.0,0.0
1582470909570,106057.0,121258.0,0.0
1582470909613,468892.0,529312.0,0.0
1582470909666,1402794.0,1473202.0,0.0
1582470909716,1337766.0,1280272.0,0.0
1582470909764,569140.0,439992.0,0.0
1582470909810,431973.0,412229.0,0.0
1582470909915,464262.0,412659.0,0.0
1582470909918,537874.0,497710.0,0.0
1582470909985,711958.0,641694.0,0.0
1582470910059,613349.0,600177.0,0.0
1582470910060,198328.0,137004.0,0.0
1582470910106,256983.0,170699.0,0.0
1582470910161,371762.0,271756.0,0.0
1582470910202,189805.0,110908.0,0.0
1582470910248,40259.0,10548.0,0.0
1582470910297,12003.0,7688.0,0.0
1582470910346,9862.0,6956.0,0.0
1582470910396,10404.0,7486.0,0.0
1582470910447,84998.0,24358.0,0.0
1582470910497,27339.0,8389.0,0.0
1582470910545,154359.0,23539.0,0.0
1582470910595,232031.0,72045.0,0.0
1582470910644,105366.0,25439.0,0.0
1582470910694,120045.0,27995.0,0.0
1582470910740,68886.0,12198.0,0.0
1582470910792,24452.0,8391.0,0.0
1582470910841,16763.0,8464.0,0.0
1582470910887,15065.0,10026.0,0.0
1582470910936,12907.0,8448.0,0.0
1582470910986,16741.0,8840.0,0.0
1582470911035,9721.0,7458.0,0.0
1582470911082,11948.0,8049.0,0.0
1582470911133,10648.0,8045.0,0.0
1582470911183,10756.0,8149.0,0.0
1582470911230,11501.0,7917.0,0.0
1582470911281,11899.0,8374.0,0.0
1582470911328,11091.0,8157.0,0.0
1582470911378,13513.0,8393.0,0.0
1582470911426,14837.0,8372.0,0.0
1582470911476,14508.0,8537.0,0.0
1582470911527,14403.0,8478.0,0.0
1582470911576,13687.0,8638.0,0.0
1582470911626,12464.0,8143.0,0.0
1582470911673,11396.0,8179.0,0.0
1582470911724,10906.0,8013.0,0.0
1582470911771,10410.0,7994.0,0.0
1582470911816,10437.0,8222.0,0.0
1582470911870,10240.0,8143.0,0.0
1582470911916,12546.0,11946.0,0.0
1582470911968,19277.0,29730.0,0.0
1582470912017,48251.0,64369.0,0.0
1582470912066,61393.0,68729.0,0.0
1582470912115,59692.0,57201.0,0.0
1582470912164,53497.0,47762.0,0.0
1582470912212,48440.0,42493.0,0.0
1582470912263,44210.0,38570.0,0.0
1582470912406,41953.0,36158.0,0.0
1582470912406,40551.0,35586.0,0.0
1582470912422,40364.0,35697.0,0.0
1582470912522,43532.0,38863.0,0.0
1582470912522,44899.0,40813.0,0.0
1582470912555,44011.0,38855.0,0.0
1582470912604,39913.0,35531.0,0.0
1582470912651,45531.0,43908.0,0.0
1582470912704,39771.0,36534.0,0.0
1582470912750,40555.0,37109.0,0.0
1582470912801,40708.0,38540.0,0.0
1582470912846,43692.0,42985.0,0.0
1582470912897,53002.0,50669.0,0.0
1582470912947,61921.0,57860.0,0.0
1582470912995,74802.0,69538.0,0.0
1582470913045,87515.0,81273.0,0.0
1582470913092,99429.0,91843.0,0.0
1582470913143,107296.0,96390.0,0.0
1582470913186,105906.0,93314.0,0.0
1582470913237,107668.0,92434.0,0.0
1582470913289,113995.0,96656.0,0.0
1582470913338,121161.0,99449.0,0.0
1582470913387,115451.0,90542.0,0.0
1582470913435,105717.0,80520.0,0.0
1582470913481,107995.0,80497.0,0.0
1582470913533,211441.0,83693.0,0.0
1582470913577,199161.0,77685.0,0.0
1582470913631,184139.0,92186.0,0.0
1582470913678,186922.0,142904.0,0.0
1582470913729,174077.0,97635.0,0.0
1582470913777,162596.0,66056.0,0.0
1582470913829,155310.0,67464.0,0.0
1582470913876,144613.0,70137.0,0.0
1582470913922,141988.0,87184.0,0.0
1582470913973,131549.0,68301.0,0.0
1582470914024,131179.0,100475.0,0.0
1582470914066,122447.0,93712.0,0.0
1582470914119,101530.0,91302.0,0.0
1582470914169,94421.0,83374.0,0.0
1582470914219,91119.0,72476.0,0.0
1582470914267,83791.0,37445.0,0.0
1582470914316,40370.0,34620.0,0.0
1582470914364,40336.0,35661.0,0.0
1582470914414,42963.0,42741.0,0.0
1582470914461,21451.0,21117.0,0.0
1582470914507,13509.0,12373.0,0.0
1582470914559,12194.0,10357.0,0.0
1582470914610,11818.0,9002.0,0.0
1582470914768,17464.0,8624.0,0.0
1582470914768,19691.0,8348.0,0.0
1582470914768,19927.0,8834.0,0.0
1582470914882,14488.0,8793.0,0.0
1582470914882,12724.0,8673.0,0.0
1582470914928,9990.0,6700.0,0.0
1582470914952,7259.0,6316.0,0.0
1582470915000,11089.0,8307.0,0.0
1582470915043,10205.0,8204.0,0.0
1582470915095,7525.0,6379.0,0.0
1582470915144,7649.0,6747.0,0.0
1582470915191,9921.0,8198.0,0.0
1582470915245,10335.0,10930.0,0.0
1582470915290,9189.0,12245.0,0.0
1582470915341,8409.0,14821.0,0.0
1582470915388,9508.0,10262.0,0.0
1582470915438,9486.0,9994.0,0.0
1582470915484,9242.0,9933.0,0.0
1582470915535,8039.0,8716.0,0.0
1582470915588,8112.0,9246.0,0.0
1582470915637,10904.0,8393.0,0.0
1582470915681,13791.0,8630.0,0.0
1582470915734,12795.0,9242.0,0.0
1582470915781,11934.0,9965.0,0.0
1582470915835,12251.0,10083.0,0.0
1582470915882,11834.0,9486.0,0.0
1582470915925,11184.0,9406.0,0.0
1582470915982,10880.0,9309.0,0.0
1582470916026,8417.0,6343.0,0.0
1582470916080,12338.0,9786.0,0.0
1582470916122,12379.0,10101.0,0.0
1582470916175,12275.0,9559.0,0.0
1582470916226,11802.0,9730.0,0.0
1582470916273,11735.0,9299.0,0.0
1582470916327,11804.0,9406.0,0.0
1582470916368,12068.0,9467.0,0.0
1582470916421,11747.0,9266.0,0.0
1582470916464,11952.0,9242.0,0.0
1582470916518,11627.0,9451.0,0.0
1582470916562,11538.0,9439.0,0.0
1582470916615,11428.0,9341.0,0.0
1582470916662,11261.0,8868.0,0.0
1582470916709,8724.0,7497.0,0.0
1582470916756,1735.0,1960.0,0.0
1582470916807,0.0,0.0,0.0
1582470916857,22477.0,16698.0,0.0
1582470916903,25190.0,23726.0,0.0
1582470916957,40132.0,29554.0,0.0
1582470917002,33552.0,30995.0,0.0
1582470917055,45497.0,40439.0,0.0
1582470917105,40448.0,55373.0,0.0
1582470917153,63018.0,52753.0,0.0
1582470917202,71850.0,67575.0,0.0
1582470917248,50099.0,44782.0,0.0
1582470917299,46771.0,49245.0,0.0
1582470917344,48819.0,57838.0,0.0
1582470917393,65875.0,65936.0,0.0
1582470917447,106780.0,96854.0,0.0
1582470917489,118613.0,94923.0,0.0
1582470917548,87148.0,60639.0,0.0
1582470917592,50394.0,35537.0,0.0
1582470917643,32574.0,25067.0,0.0
1582470917692,32469.0,26020.0,0.0
1582470917744,40421.0,33097.0,0.0
1582470917792,43979.0,36118.0,0.0
1582470917846,40236.0,31995.0,0.0
1582470917890,25699.0,19742.0,0.0
1582470917940,17641.0,14128.0,0.0
1582470917988,16152.0,13604.0,0.0
1582470918029,18167.0,16967.0,0.0
1582470918081,23381.0,21077.0,0.0
1582470918128,16883.0,14868.0,0.0
1582470918177,13807.0,10890.0,0.0
1582470918226,13350.0,10286.0,0.0
1582470918279,13608.0,9880.0,0.0
1582470918322,12925.0,9992.0,0.0
1582470918377,12580.0,9797.0,0.0
1582470918427,12755.0,9713.0,0.0
1582470918471,12791.0,9790.0,0.0
1582470918523,13135.0,9921.0,0.0
1582470918570,13464.0,9797.0,0.0
1582470918622,13450.0,9925.0,0.0
1582470918667,13807.0,9933.0,0.0
1582470918718,14212.0,9872.0,0.0
1582470918764,13387.0,9868.0,0.0
1582470918816,13214.0,9691.0,0.0
1582470918866,13188.0,9896.0,0.0
1582470918914,13013.0,9697.0,0.0
1582470918963,13058.0,9931.0,0.0
1582470919010,12942.0,9713.0,0.0
1582470919061,12785.0,9770.0,0.0
1582470919107,12676.0,9992.0,0.0
1582470919159,12704.0,9813.0,0.0
1582470919203,12812.0,10095.0,0.0
1582470919256,12769.0,9768.0,0.0
1582470919305,12769.0,9935.0,0.0
1582470919353,12893.0,9969.0,0.0
1582470919405,13005.0,10195.0,0.0
1582470919451,12970.0,10004.0,0.0
1582470919501,12982.0,10114.0,0.0
1582470919545,13025.0,10392.0,0.0
1582470919598,13285.0,10195.0,0.0
1582470919647,13279.0,10380.0,0.0
1582470919695,13535.0,10650.0,0.0
1582470919745,13474.0,10733.0,0.0
1582470919793,13633.0,10942.0,0.0
1582470919845,13834.0,10967.0,0.0
1582470919891,14071.0,11225.0,0.0
1582470919942,14317.0,11769.0,0.0
1582470920067,15108.0,12440.0,0.0
1582470920067,16416.0,14021.0,0.0
1582470920096,18001.0,16058.0,0.0
1582470920196,21284.0,19321.0,0.0
1582470920196,29058.0,25370.0,0.0
1582470920232,33907.0,29870.0,0.0
1582470920284,34864.0,31089.0,0.0
1582470920330,36201.0,32365.0,0.0
1582470920381,37526.0,33259.0,0.0
1582470920424,38672.0,34153.0,0.0
1582470920478,40214.0,36209.0,0.0
1582470920526,41303.0,35581.0,0.0
1582470920575,41193.0,35624.0,0.0
1582470920625,42621.0,36441.0,0.0
1582470920673,43412.0,37241.0,0.0
1582470920725,44491.0,38641.0,0.0
1582470920770,45565.0,40057.0,0.0
1582470920821,47435.0,42179.0,0.0
1582470920866,49497.0,44767.0,0.0
1582470920918,52114.0,47065.0,0.0
1582470920965,53672.0,48808.0,0.0
1582470921016,55092.0,50045.0,0.0
1582470921066,56691.0,51470.0,0.0
1582470921113,59245.0,53587.0,0.0
1582470921162,61484.0,54946.0,0.0
1582470921211,63213.0,56161.0,0.0
1582470921262,64847.0,57126.0,0.0
1582470921305,66318.0,58256.0,0.0
1582470921358,66864.0,58650.0,0.0
1582470921408,67395.0,57636.0,0.0
1582470921457,67323.0,56860.0,0.0
1582470921506,81718.0,56248.0,0.0
1582470921552,83096.0,54491.0,0.0
1582470921603,62791.0,53367.0,0.0
1582470921652,63676.0,54064.0,0.0
1582470921695,64747.0,55210.0,0.0
1582470921745,71105.0,59932.0,0.0
1582470921795,74481.0,60897.0,0.0
1582470921843,87135.0,69615.0,0.0
1582470921893,90036.0,79130.0,0.0
1582470921942,86826.0,62722.0,0.0
1582470921994,71757.0,61689.0,0.0
1582470922042,83187.0,66905.0,0.0
1582470922087,79557.0,65564.0,0.0
1582470922141,71738.0,64883.0,0.0
1582470922188,71521.0,92330.0,0.0
1582470922238,71978.0,61891.0,0.0
1582470922286,69973.0,60434.0,0.0
1582470922336,79961.0,64778.0,0.0
1582470922387,73205.0,58928.0,0.0
1582470922433,81605.0,60448.0,0.0
1582470922482,77230.0,58284.0,0.0
1582470922526,71627.0,57449.0,0.0
1582470922581,73106.0,57232.0,0.0
1582470922627,72220.0,57484.0,0.0
1582470922678,69672.0,57390.0,0.0
1582470922728,69593.0,57480.0,0.0
1582470922775,75131.0,57025.0,0.0
1582470922825,75174.0,57370.0,0.0
1582470922874,68494.0,56872.0,0.0
1582470922924,68756.0,57268.0,0.0
1582470922965,69262.0,57829.0,0.0
1582470923021,70733.0,58002.0,0.0
1582470923068,75127.0,58516.0,0.0
1582470923118,76802.0,58884.0,0.0
1582470923168,77106.0,59331.0,0.0
1582470923215,71308.0,59361.0,0.0
1582470923265,76844.0,59420.0,0.0
1582470923309,75625.0,59359.0,0.0
1582470923363,76109.0,59331.0,0.0
1582470923407,77025.0,59440.0,0.0
1582470923461,74924.0,59515.0,0.0
1582470923508,75678.0,59448.0,0.0
1582470923558,73079.0,59278.0,0.0
1582470923607,71562.0,59489.0,0.0
1582470923656,71405.0,59274.0,0.0
1582470923700,71113.0,59264.0,0.0
1582470923750,70706.0,58804.0,0.0
1582470923800,69863.0,57851.0,0.0
1582470923847,72669.0,57128.0,0.0
1582470923896,71381.0,56915.0,0.0
1582470923948,71933.0,56773.0,0.0
1582470923998,70003.0,56482.0,0.0
1582470924047,69087.0,56395.0,0.0
1582470924097,70566.0,55950.0,0.0
1582470924145,70410.0,55659.0,0.0
1582470924192,72500.0,55367.0,0.0
1582470924243,67317.0,54430.0,0.0
1582470924289,63089.0,52833.0,0.0
1582470924341,61809.0,51872.0,0.0
1582470924387,60064.0,50736.0,0.0
1582470924438,58006.0,50104.0,0.0
1582470924487,56899.0,50125.0,0.0
1582470924534,55970.0,50336.0,0.0
1582470924585,55749.0,51378.0,0.0
1582470924630,55287.0,52122.0,0.0
1582470924683,54680.0,52969.0,0.0
1582470924729,54653.0,53757.0,0.0
1582470924781,54070.0,54233.0,0.0
1582470924829,54255.0,55442.0,0.0
1582470924879,54909.0,57047.0,0.0
1582470924927,54424.0,56838.0,0.0
1582470924976,51716.0,54475.0,0.0
1582470925026,49982.0,52774.0,0.0
1582470925071,47786.0,50614.0,0.0
1582470925124,45891.0,48481.0,0.0
1582470925170,45220.0,48158.0,0.0
1582470925221,45893.0,48784.0,0.0
1582470925265,45456.0,48786.0,0.0
1582470925319,45761.0,49125.0,0.0
1582470925368,45370.0,48902.0,0.0
1582470925416,45094.0,48367.0,0.0
1582470925466,44647.0,47108.0,0.0
1582470925510,43899.0,45505.0,0.0
1582470925564,41059.0,41860.0,0.0
1582470925610,38763.0,38712.0,0.0
1582470925661,37766.0,37211.0,0.0
1582470925710,38696.0,36811.0,0.0
1582470925759,42270.0,36685.0,0.0
1582470925807,44877.0,45137.0,0.0
1582470925853,41211.0,34088.0,0.0
1582470925906,34308.0,32020.0,0.0
1582470925948,32881.0,31144.0,0.0
1582470926004,32765.0,31136.0,0.0
1582470926050,32946.0,31217.0,0.0
1582470926102,42262.0,39549.0,0.0
1582470926150,37426.0,39129.0,0.0
1582470926200,35586.0,37254.0,0.0
1582470926248,42026.0,37786.0,0.0
1582470926298,40527.0,33229.0,0.0
1582470926346,44641.0,44692.0,0.0
1582470926391,41299.0,46390.0,0.0
1582470926443,44588.0,41419.0,0.0
1582470926490,31575.0,27719.0,0.0
1582470926542,31156.0,27369.0,0.0
1582470926589,31030.0,27381.0,0.0
1582470926640,30976.0,27814.0,0.0
1582470926689,31006.0,28009.0,0.0
1582470926737,30931.0,27883.0,0.0
1582470926786,31252.0,27995.0,0.0
1582470926834,30990.0,27639.0,0.0
1582470926884,30965.0,27544.0,0.0
1582470926927,30933.0,27448.0,0.0
1582470926983,30996.0,27580.0,0.0
1582470927030,30852.0,27241.0,0.0
1582470927080,30715.0,27316.0,0.0
1582470927128,30817.0,27101.0,0.0
1582470927176,31061.0,27450.0,0.0
1582470927226,31150.0,27841.0,0.0
1582470927271,31459.0,28007.0,0.0
1582470927324,31618.0,28164.0,0.0
1582470927372,31406.0,27841.0,0.0
1582470927425,31418.0,27853.0,0.0
1582470927470,31607.0,28046.0,0.0
1582470927520,31809.0,28005.0,0.0
1582470927568,31699.0,28058.0,0.0
1582470927616,31583.0,28186.0,0.0
1582470927667,31640.0,28340.0,0.0
1582470927713,31628.0,28229.0,0.0
1582470927765,31914.0,28129.0,0.0
1582470927812,31861.0,28466.0,0.0
1582470927864,31725.0,28389.0,0.0
1582470927909,31806.0,28174.0,0.0
1582470927956,31831.0,28149.0,0.0
1582470928008,32030.0,28436.0,0.0
1582470928053,32042.0,28367.0,0.0
1582470928108,31957.0,28334.0,0.0
1582470928153,32138.0,28389.0,0.0
1582470928205,31989.0,28615.0,0.0
1582470928252,32156.0,28336.0,0.0
1582470928303,31989.0,28383.0,0.0
1582470928351,31939.0,28424.0,0.0
1582470928401,31969.0,28544.0,0.0
1582470928450,32237.0,28720.0,0.0
1582470928498,32406.0,28781.0,0.0
1582470928548,32333.0,28680.0,0.0
1582470928593,32227.0,28655.0,0.0
1582470928645,32296.0,28804.0,0.0
1582470928693,32503.0,28871.0,0.0
1582470928737,32457.0,28657.0,0.0
1582470928784,32367.0,28745.0,0.0
1582470928837,32272.0,28420.0,0.0
1582470928885,32217.0,28550.0,0.0
1582470928936,32247.0,28702.0,0.0
1582470928984,32028.0,28497.0,0.0
1582470929033,32241.0,28346.0,0.0
1582470929079,31906.0,28235.0,0.0
1582470929127,31987.0,28233.0,0.0
1582470929184,31906.0,28058.0,0.0
1582470929231,31723.0,28314.0,0.0
1582470929281,31867.0,28371.0,0.0
1582470929329,31821.0,28080.0,0.0
1582470929373,31737.0,27971.0,0.0
1582470929423,31784.0,28170.0,0.0
1582470929475,31685.0,28088.0,0.0
1582470929525,32316.0,28450.0,0.0
1582470929573,33548.0,30232.0,0.0
1582470929623,35208.0,31953.0,0.0
1582470929671,40393.0,43056.0,0.0
1582470929722,66308.0,37548.0,0.0
1582470929769,67338.0,65359.0,0.0
1582470929813,35620.0,32442.0,0.0
1582470929868,34395.0,30478.0,0.0
1582470929915,36093.0,31800.0,0.0
1582470929966,39450.0,37971.0,0.0
1582470930014,71998.0,62709.0,0.0
1582470930059,55828.0,69313.0,0.0
1582470930112,63171.0,64922.0,0.0
1582470930163,73163.0,64635.0,0.0
1582470930209,80806.0,71417.0,0.0
1582470930253,89465.0,79008.0,0.0
1582470930308,97174.0,85871.0,0.0
1582470930356,103576.0,90833.0,0.0
1582470930407,109578.0,96081.0,0.0
1582470930454,113162.0,100116.0,0.0
1582470930504,113751.0,95699.0,0.0
1582470930551,110579.0,92411.0,0.0
1582470930603,108462.0,90016.0,0.0
1582470930650,109269.0,90869.0,0.0
1582470930694,117699.0,92617.0,0.0
1582470930748,119170.0,100471.0,0.0
1582470930797,121366.0,106953.0,0.0
1582470930847,123824.0,112877.0,0.0
1582470930895,116171.0,106963.0,0.0
1582470930946,108269.0,100274.0,0.0
1582470930992,101445.0,91160.0,0.0
1582470931043,96306.0,86739.0,0.0
1582470931089,90408.0,81397.0,0.0
1582470931135,83421.0,76958.0,0.0
1582470931189,72949.0,66131.0,0.0
1582470931238,65566.0,92763.0,0.0
1582470931287,83527.0,81859.0,0.0
1582470931335,55387.0,80091.0,0.0
1582470931385,55275.0,46492.0,0.0
1582470931433,51831.0,44178.0,0.0
1582470931480,52843.0,42814.0,0.0
1582470931530,48233.0,41472.0,0.0
1582470931575,47384.0,40852.0,0.0
1582470931629,47693.0,41008.0,0.0
1582470931674,48249.0,41697.0,0.0
1582470931727,49286.0,42530.0,0.0
1582470931775,50726.0,43910.0,0.0
1582470931825,52144.0,45269.0,0.0
1582470931873,54511.0,47666.0,0.0
1582470931924,63051.0,58148.0,0.0
1582470931971,69957.0,62742.0,0.0
1582470932016,83354.0,75261.0,0.0
1582470932069,100030.0,91361.0,0.0
1582470932118,114988.0,105778.0,0.0
1582470932167,128251.0,118564.0,0.0
1582470932216,141419.0,131433.0,0.0
1582470932266,152744.0,142203.0,0.0
1582470932312,160898.0,149729.0,0.0
1582470932362,167105.0,155158.0,0.0
1582470932411,172643.0,158878.0,0.0
1582470932456,178507.0,162572.0,0.0
1582470932509,187469.0,169189.0,0.0
1582470932559,191526.0,170749.0,0.0
1582470932608,194972.0,171737.0,0.0
1582470932657,196500.0,171408.0,0.0
1582470932706,195882.0,169728.0,0.0
1582470932755,195317.0,168706.0,0.0
1582470932802,193777.0,166172.0,0.0
1582470932853,192034.0,163659.0,0.0
1582470932898,189058.0,160178.0,0.0
1582470932945,187810.0,157657.0,0.0
1582470932999,201886.0,165111.0,0.0
1582470933049,221838.0,169650.0,0.0
1582470933096,217843.0,166446.0,0.0
1582470933147,196890.0,160457.0,0.0
1582470933194,200750.0,161460.0,0.0
1582470933240,196989.0,160830.0,0.0
1582470933292,200576.0,162458.0,0.0
1582470933338,204495.0,163598.0,0.0
1582470933390,222468.0,163917.0,0.0
1582470933441,214343.0,161822.0,0.0
1582470933484,239654.0,158819.0,0.0
1582470933536,245632.0,159817.0,0.0
1582470933588,246243.0,161470.0,0.0
1582470933636,239573.0,167852.0,0.0
1582470933681,194031.0,163321.0,0.0
1582470933732,189033.0,161371.0,0.0
1582470933780,184691.0,157559.0,0.0
1582470933830,185530.0,157186.0,0.0
1582470933881,192780.0,161223.0,0.0
1582470933929,198357.0,164091.0,0.0
1582470933978,227675.0,170536.0,0.0
1582470934027,238242.0,170825.0,0.0
1582470934076,232338.0,170995.0,0.0
1582470934122,229796.0,171652.0,0.0
1582470934173,228069.0,171574.0,0.0
1582470934219,237118.0,172182.0,0.0
1582470934271,215113.0,170361.0,0.0
1582470934322,217008.0,170624.0,0.0
1582470934368,216275.0,170256.0,0.0
1582470934418,219946.0,171093.0,0.0
1582470934463,217679.0,171079.0,0.0
1582470934516,193391.0,161286.0,0.0
1582470934561,188919.0,158228.0,0.0
1582470934614,184797.0,156084.0,0.0
1582470934661,186002.0,156966.0,0.0
1582470934712,200212.0,167172.0,0.0
1582470934760,236708.0,172277.0,0.0
1582470934810,257688.0,164337.0,0.0
1582470934864,272507.0,166198.0,0.0
1582470934907,269667.0,165741.0,0.0
1582470934957,257074.0,167328.0,0.0
1582470935000,257708.0,161408.0,0.0
1582470935055,249888.0,162005.0,0.0
1582470935104,249856.0,166846.0,0.0
1582470935147,262674.0,163218.0,0.0
1582470935203,286264.0,165388.0,0.0
1582470935246,327541.0,168055.0,0.0
1582470935302,347286.0,168888.0,0.0
1582470935349,316101.0,167279.0,0.0
1582470935399,289550.0,166942.0,0.0
1582470935441,257596.0,178082.0,0.0
1582470935490,248074.0,174295.0,0.0
1582470935545,233455.0,173066.0,0.0
1582470935593,232600.0,172399.0,0.0
1582470935646,245825.0,165849.0,0.0
1582470935691,252769.0,161751.0,0.0
1582470935741,203166.0,215803.0,0.0
1582470935788,205336.0,221175.0,0.0
1582470935839,201565.0,193430.0,0.0
1582470935883,239494.0,298282.0,0.0
1582470935936,224416.0,320034.0,0.0
1582470935981,265884.0,214272.0,0.0
1582470936030,245571.0,281161.0,0.0
1582470936084,203373.0,199523.0,0.0
1582470936132,174459.0,167040.0,0.0
1582470936183,171771.0,165658.0,0.0
1582470936229,177119.0,171093.0,0.0
1582470936280,179439.0,171123.0,0.0
1582470936325,178787.0,168740.0,0.0
1582470936377,180587.0,169339.0,0.0
1582470936422,199068.0,196642.0,0.0
1582470936475,249843.0,242842.0,0.0
1582470936525,258842.0,204430.0,0.0
1582470936573,255581.0,194651.0,0.0
1582470936622,238549.0,184931.0,0.0
1582470936671,237675.0,175557.0,0.0
1582470936721,228116.0,171345.0,0.0
1582470936768,229225.0,181357.0,0.0
1582470936817,236950.0,190738.0,0.0
1582470936864,239542.0,191169.0,0.0
1582470936916,240792.0,192678.0,0.0
1582470936963,241026.0,188873.0,0.0
1582470937014,247078.0,203552.0,0.0
1582470937063,260309.0,270350.0,0.0
1582470937106,262296.0,198997.0,0.0
1582470937163,352505.0,185181.0,0.0
1582470937210,303414.0,187570.0,0.0
1582470937259,275529.0,175967.0,0.0
1582470937304,326213.0,182615.0,0.0
1582470937357,284747.0,271786.0,0.0
1582470937404,240725.0,304540.0,0.0
1582470937453,233177.0,305710.0,0.0
1582470937502,303652.0,290710.0,0.0
1582470937553,290123.0,304983.0,0.0
1582470937604,289251.0,282745.0,0.0
1582470937646,290580.0,284743.0,0.0
1582470937699,218636.0,346656.0,0.0
1582470937746,342487.0,313748.0,0.0
1582470937797,328555.0,316094.0,0.0
1582470937842,219731.0,293776.0,0.0
1582470937895,218073.0,317259.0,0.0
1582470937944,230036.0,305934.0,0.0
1582470937992,248874.0,298510.0,0.0
1582470938042,276538.0,291921.0,0.0
1582470938091,284312.0,303548.0,0.0
1582470938140,308754.0,300257.0,0.0
1582470938186,313880.0,295489.0,0.0
1582470938238,310611.0,288507.0,0.0
1582470938284,299631.0,273531.0,0.0
1582470938335,311082.0,279456.0,0.0
1582470938384,322098.0,292559.0,0.0
1582470938432,317263.0,278844.0,0.0
1582470938482,309629.0,240826.0,0.0
1582470938531,306084.0,187969.0,0.0
1582470938580,305377.0,187046.0,0.0
1582470938627,296561.0,210789.0,0.0
1582470938678,310568.0,155633.0,0.0
1582470938723,279135.0,136362.0,0.0
1582470938776,281362.0,133345.0,0.0
1582470938825,310078.0,133932.0,0.0
1582470938875,283300.0,153469.0,0.0
1582470938922,297402.0,211707.0,0.0
1582470938971,307468.0,236103.0,0.0
1582470939022,306887.0,252021.0,0.0
1582470939067,301082.0,162029.0,0.0
1582470939119,301978.0,141962.0,0.0
1582470939165,318825.0,138920.0,0.0
1582470939217,260638.0,136848.0,0.0
1582470939265,277808.0,136214.0,0.0
1582470939314,273026.0,136206.0,0.0
1582470939364,261048.0,136730.0,0.0
1582470939412,292343.0,137287.0,0.0
1582470939462,293026.0,137847.0,0.0
1582470939504,299816.0,137092.0,0.0
1582470939559,299798.0,135235.0,0.0
1582470939604,284995.0,135986.0,0.0
1582470939657,291212.0,136549.0,0.0
1582470939706,286642.0,138061.0,0.0
1582470939754,284856.0,137746.0,0.0
1582470939805,303262.0,135452.0,0.0
1582470939853,290224.0,135314.0,0.0
1582470939903,313400.0,134946.0,0.0
1582470939946,300476.0,134556.0,0.0
1582470939995,212731.0,134103.0,0.0
1582470940044,216348.0,134499.0,0.0
1582470940096,232645.0,134962.0,0.0
1582470940146,256603.0,134582.0,0.0
1582470940190,235499.0,135141.0,0.0
1582470940244,185929.0,134800.0,0.0
1582470940286,184594.0,136557.0,0.0
1582470940336,183885.0,137587.0,0.0
1582470940386,182375.0,137122.0,0.0
1582470940436,181471.0,135917.0,0.0
1582470940483,182983.0,137179.0,0.0
1582470940533,188466.0,140995.0,0.0
1582470940586,194905.0,144546.0,0.0
1582470940635,197798.0,146480.0,0.0
1582470940686,195858.0,146753.0,0.0
1582470940733,196768.0,146314.0,0.0
1582470940783,194084.0,143085.0,0.0
1582470940827,189210.0,141190.0,0.0
1582470940883,186262.0,139310.0,0.0
1582470940926,182625.0,136484.0,0.0
1582470940978,180228.0,135102.0,0.0
1582470941027,180388.0,135480.0,0.0
1582470941076,180461.0,136033.0,0.0
1582470941126,180315.0,136630.0,0.0
1582470941174,179933.0,136901.0,0.0
1582470941224,178937.0,135897.0,0.0
1582470941266,177729.0,134912.0,0.0
1582470941322,177501.0,134235.0,0.0
1582470941367,177767.0,134109.0,0.0
1582470941419,177915.0,134089.0,0.0
1582470941467,177397.0,133597.0,0.0
1582470941516,176633.0,132949.0,0.0
1582470941566,177932.0,132922.0,0.0
1582470941615,178620.0,132132.0,0.0
1582470941663,179961.0,132616.0,0.0
1582470941708,182920.0,133772.0,0.0
1582470941763,184811.0,134586.0,0.0
1582470941806,215346.0,134838.0,0.0
1582470941860,284873.0,134166.0,0.0
1582470941908,300214.0,135604.0,0.0
1582470941957,271542.0,136163.0,0.0
1582470942007,223865.0,138890.0,0.0
1582470942056,218370.0,141287.0,0.0
1582470942106,226811.0,143922.0,0.0
1582470942152,209334.0,146346.0,0.0
1582470942202,200742.0,149087.0,0.0
1582470942247,206102.0,150879.0,0.0
1582470942300,201839.0,153071.0,0.0
1582470942348,201254.0,154500.0,0.0
1582470942397,206051.0,155310.0,0.0
1582470942447,199265.0,152890.0,0.0
1582470942494,192268.0,150379.0,0.0
1582470942545,188816.0,152789.0,0.0
1582470942592,190094.0,152799.0,0.0
1582470942644,191485.0,155211.0,0.0
1582470942687,192615.0,157253.0,0.0
1582470942741,192182.0,158094.0,0.0
1582470942788,192570.0,159416.0,0.0
1582470942838,194334.0,161082.0,0.0
1582470942887,193680.0,160735.0,0.0
1582470942936,193080.0,159853.0,0.0
1582470942986,193300.0,159914.0,0.0
1582470943035,193424.0,159847.0,0.0
1582470943085,192725.0,158799.0,0.0
1582470943127,191234.0,157358.0,0.0
1582470943184,190917.0,156828.0,0.0
1582470943228,189149.0,155215.0,0.0
1582470943281,188064.0,153740.0,0.0
1582470943329,188369.0,153295.0,0.0
1582470943377,186522.0,151383.0,0.0
1582470943427,185597.0,149967.0,0.0
1582470943476,184754.0,148931.0,0.0
1582470943520,185654.0,149160.0,0.0
1582470943572,183976.0,147726.0,0.0
1582470943619,183029.0,147047.0,0.0
1582470943668,182599.0,146809.0,0.0
1582470943717,182745.0,146844.0,0.0
1582470943765,182294.0,146419.0,0.0
1582470943819,183671.0,147626.0,0.0
1582470943870,187075.0,150515.0,0.0
1582470943917,187095.0,150808.0,0.0
1582470943965,185537.0,149388.0,0.0
1582470944011,184840.0,147758.0,0.0
1582470944064,178771.0,143134.0,0.0
1582470944109,168250.0,135084.0,0.0
1582470944155,152504.0,124602.0,0.0
1582470944208,134440.0,118032.0,0.0
1582470944255,108172.0,92119.0,0.0
1582470944304,97944.0,85599.0,0.0
1582470944355,75207.0,71040.0,0.0
1582470944403,59109.0,55336.0,0.0
1582470944458,52890.0,33562.0,0.0
1582470944506,52644.0,51665.0,0.0
1582470944548,48812.0,23694.0,0.0
1582470944605,24990.0,20293.0,0.0
1582470944650,21822.0,17460.0,0.0
1582470944700,19344.0,15075.0,0.0
1582470944749,16863.0,13285.0,0.0
1582470944798,15528.0,11914.0,0.0
1582470944847,14640.0,11024.0,0.0
1582470944894,14004.0,10443.0,0.0
1582470944945,13340.0,10105.0,0.0
1582470944989,13058.0,9600.0,0.0
1582470945041,12915.0,9449.0,0.0
1582470945090,12676.0,9467.0,0.0
1582470945141,12594.0,9169.0,0.0
1582470945189,12422.0,9144.0,0.0
1582470945238,12566.0,9228.0,0.0
1582470945287,12281.0,9022.0,0.0
1582470945334,12399.0,9224.0,0.0
1582470945386,12440.0,9045.0,0.0
1582470945436,12424.0,9165.0,0.0
1582470945483,12507.0,9303.0,0.0
1582470945531,12515.0,9157.0,0.0
1582470945582,12407.0,9311.0,0.0
1582470945629,12334.0,9205.0,0.0
1582470945679,12424.0,9150.0,0.0
1582470945728,12438.0,9244.0,0.0
1582470945776,12393.0,9138.0,0.0
1582470945827,12375.0,9195.0,0.0
1582470945872,12519.0,9179.0,0.0
1582470945924,12365.0,9098.0,0.0
1582470945972,12440.0,9055.0,0.0
1582470946023,12294.0,9077.0,0.0
1582470946066,12505.0,9278.0,0.0
1582470946114,12430.0,9195.0,0.0
1582470946165,12318.0,9142.0,0.0
1582470946214,12428.0,9039.0,0.0
1582470946263,12359.0,9055.0,0.0
1582470946310,12604.0,9122.0,0.0
1582470946364,12314.0,9169.0,0.0
1582470946412,12369.0,9181.0,0.0
1582470946458,12285.0,9057.0,0.0
1582470946510,12357.0,9020.0,0.0
1582470946560,12235.0,9132.0,0.0
1582470946608,12255.0,9106.0,0.0
1582470946659,12245.0,9140.0,0.0
1582470946708,12275.0,9252.0,0.0
1582470946751,12416.0,9134.0,0.0
1582470946805,12322.0,9146.0,0.0
1582470946853,12350.0,9254.0,0.0
1582470946903,12212.0,9012.0,0.0
1582470946951,12527.0,9020.0,0.0
1582470947002,12288.0,9094.0,0.0
1582470947049,12316.0,9283.0,0.0
1582470947099,12369.0,9335.0,0.0
1582470947148,12436.0,9197.0,0.0
1582470947191,12379.0,9081.0,0.0
1582470947246,12344.0,9187.0,0.0
1582470947293,12273.0,9069.0,0.0
1582470947339,12391.0,9102.0,0.0
1582470947391,12389.0,9132.0,0.0
1582470947442,12456.0,9096.0,0.0
1582470947489,12324.0,9122.0,0.0
1582470947540,12363.0,9146.0,0.0
1582470947588,12432.0,9256.0,0.0
1582470947632,12432.0,9213.0,0.0
1582470947685,12509.0,9061.0,0.0
1582470947735,12491.0,9236.0,0.0
1582470947784,12302.0,9295.0,0.0
1582470947832,12424.0,9179.0,0.0
1582470947883,12377.0,9140.0,0.0
1582470947929,12501.0,9278.0,0.0
1582470947980,12344.0,9234.0,0.0
1582470948028,12391.0,9031.0,0.0
1582470948071,12269.0,9134.0,0.0
1582470948127,12275.0,9335.0,0.0
1582470948175,12385.0,9114.0,0.0
1582470948224,12251.0,9106.0,0.0
1582470948272,12385.0,8988.0,0.0
1582470948323,12235.0,9077.0,0.0
1582470948370,12304.0,9130.0,0.0
1582470948421,12261.0,9264.0,0.0
1582470948469,12466.0,9047.0,0.0
1582470948512,12489.0,9224.0,0.0
1582470948567,12353.0,9031.0,0.0
1582470948615,12344.0,9081.0,0.0
1582470948665,12383.0,9181.0,0.0
1582470948712,12298.0,9138.0,0.0
1582470948763,12277.0,9291.0,0.0
1582470948810,12259.0,9104.0,0.0
1582470948861,12324.0,9203.0,0.0
1582470948909,12369.0,9033.0,0.0
1582470948954,12418.0,9195.0,0.0
1582470949007,12267.0,9197.0,0.0
1582470949055,12416.0,9248.0,0.0
1582470949106,12432.0,9285.0,0.0
1582470949154,12292.0,9148.0,0.0
1582470949204,12283.0,9232.0,0.0
1582470949251,12391.0,9106.0,0.0
1582470949301,12288.0,9000.0,0.0
1582470949349,12245.0,9008.0,0.0
1582470949393,12361.0,9073.0,0.0
1582470949447,12306.0,9035.0,0.0
1582470949492,12227.0,9148.0,0.0
1582470949544,12405.0,8923.0,0.0
1582470949593,12344.0,9270.0,0.0
1582470949640,12275.0,9179.0,0.0
1582470949690,12399.0,9181.0,0.0
1582470949735,12220.0,9291.0,0.0
1582470949783,12466.0,9218.0,0.0
1582470949834,12405.0,9053.0,0.0
1582470949881,12527.0,9014.0,0.0
1582470949930,12432.0,9110.0,0.0
1582470949980,12379.0,9187.0,0.0
1582470950028,12308.0,9240.0,0.0
1582470950078,12584.0,9140.0,0.0
1582470950125,12438.0,9201.0,0.0
1582470950175,12355.0,9248.0,0.0
1582470950227,12478.0,9209.0,0.0
1582470950274,12328.0,9090.0,0.0
1582470950325,12430.0,9049.0,0.0
1582470950371,12233.0,9079.0,0.0
1582470950427,12342.0,9025.0,0.0
1582470950476,12369.0,9090.0,0.0
1582470950525,12474.0,9073.0,0.0
1582470950572,12326.0,9043.0,0.0
1582470950620,12338.0,9049.0,0.0
1582470950671,12220.0,9130.0,0.0
1582470950715,12383.0,9211.0,0.0
1582470950769,12375.0,9112.0,0.0
1582470950817,12430.0,9037.0,0.0
1582470950868,12426.0,9242.0,0.0
1582470950917,12285.0,9307.0,0.0
1582470950966,12271.0,9250.0,0.0
1582470951014,12497.0,8990.0,0.0
1582470951065,12420.0,9104.0,0.0
1582470951106,12454.0,9295.0,0.0
1582470951159,12245.0,8994.0,0.0
1582470951207,12450.0,8968.0,0.0
1582470951255,12259.0,9173.0,0.0
1582470951306,12369.0,9114.0,0.0
1582470951358,12393.0,9057.0,0.0
1582470951407,12218.0,9033.0,0.0
1582470951457,12367.0,9205.0,0.0
1582470951506,12316.0,9085.0,0.0
1582470951555,12350.0,9276.0,0.0
1582470951605,12399.0,9181.0,0.0
1582470951653,12338.0,9209.0,0.0
1582470951704,12389.0,9199.0,0.0
1582470951750,12377.0,9177.0,0.0
1582470951797,12539.0,9240.0,0.0
1582470951848,12460.0,9218.0,0.0
1582470951898,12379.0,9106.0,0.0
1582470951947,12320.0,9088.0,0.0
1582470951996,12273.0,8988.0,0.0
1582470952044,12424.0,9106.0,0.0
1582470952093,12176.0,9177.0,0.0
1582470952144,12294.0,9213.0,0.0
1582470952191,12247.0,9276.0,0.0
1582470952239,12385.0,9000.0,0.0
1582470952289,12350.0,9258.0,0.0
1582470952339,12481.0,9124.0,0.0
1582470952384,12294.0,9098.0,0.0
1582470952437,12196.0,9118.0,0.0
1582470952483,12342.0,9049.0,0.0
1582470952535,12580.0,9134.0,0.0
1582470952581,12493.0,9085.0,0.0
1582470952630,12438.0,9173.0,0.0
1582470952680,12450.0,9043.0,0.0
1582470952731,12497.0,9299.0,0.0
1582470952779,12086.0,9092.0,0.0
1582470952829,12359.0,8856.0,0.0
1582470952881,12493.0,9228.0,0.0
1582470952928,12263.0,9144.0,0.0
1582470952975,12281.0,8974.0,0.0
1582470953025,12397.0,9106.0,0.0
1582470953075,12367.0,9144.0,0.0
1582470953120,12379.0,9248.0,0.0
1582470953171,12326.0,9069.0,0.0
1582470953219,12389.0,8935.0,0.0
1582470953270,12369.0,8947.0,0.0
1582470953319,12505.0,9189.0,0.0
1582470953369,12355.0,9163.0,0.0
1582470953413,12383.0,9039.0,0.0
1582470953466,12251.0,8994.0,0.0
1582470953514,12371.0,9136.0,0.0
1582470953560,12273.0,9213.0,0.0
1582470953610,12336.0,9220.0,0.0
1582470953659,12375.0,9216.0,0.0
1582470953710,12369.0,8960.0,0.0
1582470953761,12350.0,9250.0,0.0
1582470953809,12444.0,9073.0,0.0
1582470953857,12265.0,9096.0,0.0
1582470953902,12562.0,9211.0,0.0
1582470953955,12578.0,9047.0,0.0
1582470954003,12348.0,9226.0,0.0
1582470954049,12330.0,8880.0,0.0
1582470954106,12296.0,9041.0,0.0
1582470954150,12420.0,9120.0,0.0
1582470954201,12288.0,9000.0,0.0
1582470954249,12304.0,9185.0,0.0
1582470954298,12485.0,9199.0,0.0
1582470954342,12300.0,9293.0,0.0
1582470954396,12302.0,9183.0,0.0
1582470954442,12391.0,9169.0,0.0
1582470954488,12216.0,9104.0,0.0
1582470954544,12255.0,9102.0,0.0
1582470954586,12338.0,9209.0,0.0
1582470954640,12263.0,9128.0,0.0
1582470954685,12326.0,9018.0,0.0
1582470954740,12206.0,8998.0,0.0
1582470954783,12322.0,9047.0,0.0
1582470954835,12405.0,9020.0,0.0
1582470954882,12503.0,9136.0,0.0
1582470954935,12316.0,9059.0,0.0
1582470954984,12340.0,9077.0,0.0
1582470955030,12257.0,9189.0,0.0
1582470955082,12401.0,9128.0,0.0
1582470955125,12314.0,9002.0,0.0
1582470955176,12361.0,9075.0,0.0
1582470955222,12353.0,9207.0,0.0
1582470955278,12328.0,9236.0,0.0
1582470955322,12430.0,9094.0,0.0
1582470955376,12422.0,9224.0,0.0
1582470955425,12320.0,9025.0,0.0
1582470955473,12416.0,8970.0,0.0
1582470955523,12389.0,9077.0,0.0
1582470955572,12277.0,9075.0,0.0
1582470955621,12334.0,8990.0,0.0
1582470955665,12316.0,9144.0,0.0
1582470955714,12377.0,9041.0,0.0
1582470955765,12296.0,9218.0,0.0
1582470955813,12359.0,9185.0,0.0
1582470955861,12422.0,8909.0,0.0
1582470955911,12481.0,9122.0,0.0
1582470955963,12495.0,9325.0,0.0
1582470956012,12290.0,8951.0,0.0
1582470956063,12338.0,9346.0,0.0
1582470956111,12444.0,8943.0,0.0
1582470956154,12334.0,9258.0,0.0
1582470956205,12359.0,9150.0,0.0
1582470956255,12355.0,9020.0,0.0
1582470956303,12403.0,8984.0,0.0
1582470956352,12426.0,9309.0,0.0
1582470956402,12300.0,9132.0,0.0
1582470956453,12428.0,8949.0,0.0
1582470956502,12328.0,9173.0,0.0
1582470956550,12212.0,9283.0,0.0
1582470956601,12564.0,8994.0,0.0
1582470956650,12275.0,9053.0,0.0
1582470956694,12204.0,9272.0,0.0
1582470956742,12227.0,8980.0,0.0
1582470956796,12367.0,9100.0,0.0
1582470956843,12474.0,9161.0,0.0
1582470956888,12505.0,9165.0,0.0
1582470956938,12397.0,9216.0,0.0
1582470956992,12389.0,8982.0,0.0
1582470957042,12383.0,9238.0,0.0
1582470957090,12237.0,9189.0,0.0
1582470957141,12208.0,9136.0,0.0
1582470957184,12196.0,9106.0,0.0
1582470957237,12338.0,9116.0,0.0
1582470957283,12519.0,9031.0,0.0
1582470957335,12420.0,9096.0,0.0
1582470957385,12308.0,9167.0,0.0
1582470957433,12397.0,9191.0,0.0
1582470957482,12310.0,9140.0,0.0
1582470957531,12491.0,9057.0,0.0
1582470957582,12290.0,8945.0,0.0
1582470957627,12147.0,9049.0,0.0
1582470957679,12251.0,9179.0,0.0
1582470957723,12212.0,9199.0,0.0
1582470957775,12387.0,9195.0,0.0
1582470957824,12147.0,9155.0,0.0
1582470957874,12367.0,9268.0,0.0
1582470957923,12399.0,8976.0,0.0
1582470957972,12470.0,9169.0,0.0
1582470958022,12279.0,9008.0,0.0
1582470958070,12249.0,9134.0,0.0
1582470958119,12322.0,9146.0,0.0
1582470958164,12273.0,9100.0,0.0
1582470958217,12265.0,9236.0,0.0
1582470958265,12288.0,9061.0,0.0
1582470958315,12411.0,9140.0,0.0
1582470958365,12113.0,9071.0,0.0
1582470958413,12389.0,9205.0,0.0
1582470958462,12381.0,9006.0,0.0
1582470958511,12275.0,9153.0,0.0
1582470958561,12271.0,8974.0,0.0
1582470958603,12214.0,9165.0,0.0
1582470958658,12424.0,9142.0,0.0
1582470958708,12450.0,9020.0,0.0
1582470958752,12353.0,9159.0,0.0
1582470958802,12430.0,9132.0,0.0
1582470958853,12202.0,9150.0,0.0
1582470958905,12436.0,9065.0,0.0
1582470958947,12381.0,9142.0,0.0
1582470959002,12411.0,9240.0,0.0
1582470959044,12271.0,9037.0,0.0
1582470959099,12157.0,9185.0,0.0
1582470959144,12326.0,9092.0,0.0
1582470959197,12391.0,9092.0,0.0
1582470959246,12241.0,9100.0,0.0
1582470959295,12231.0,9136.0,0.0
1582470959345,12316.0,9207.0,0.0
1582470959393,12288.0,9157.0,0.0
1582470959443,12316.0,9114.0,0.0
1582470959486,12350.0,9130.0,0.0
1582470959534,12373.0,9096.0,0.0
1582470959585,12393.0,9142.0,0.0
1582470959638,12153.0,9110.0,0.0
1582470959686,12310.0,9220.0,0.0
1582470959735,12357.0,8955.0,0.0
1582470959785,12283.0,8974.0,0.0
1582470959834,12214.0,9041.0,0.0
1582470959884,12285.0,9167.0,0.0
1582470959930,12273.0,9124.0,0.0
1582470959982,12405.0,9122.0,0.0
1582470960025,12141.0,9205.0,0.0
1582470960073,12265.0,9031.0,0.0
1582470960125,12294.0,8937.0,0.0
1582470960176,12387.0,9027.0,0.0
1582470960225,12377.0,8957.0,0.0
1582470960274,12353.0,9203.0,0.0
1582470960325,12353.0,9073.0,0.0
1582470960370,12426.0,9057.0,0.0
1582470960423,12407.0,9222.0,0.0
1582470960467,12391.0,9079.0,0.0
1582470960520,12271.0,9148.0,0.0
1582470960566,12269.0,9197.0,0.0
1582470960618,12300.0,9189.0,0.0
1582470960667,12383.0,9140.0,0.0
1582470960715,12346.0,8941.0,0.0
1582470960765,12428.0,9126.0,0.0
1582470960813,12387.0,9077.0,0.0
1582470960862,12369.0,9010.0,0.0
1582470960906,12200.0,9122.0,0.0
1582470960961,12255.0,8972.0,0.0
1582470961006,12353.0,9130.0,0.0
1582470961058,12478.0,9138.0,0.0
1582470961107,12290.0,9118.0,0.0
1582470961155,12416.0,9272.0,0.0
1582470961205,12233.0,9096.0,0.0
1582470961254,12326.0,9106.0,0.0
1582470961304,12285.0,9130.0,0.0
1582470961346,12328.0,9059.0,0.0
1582470961402,12304.0,9045.0,0.0
1582470961446,12288.0,9138.0,0.0
1582470961499,12310.0,9116.0,0.0
1582470961548,12489.0,9077.0,0.0
1582470961596,12265.0,8998.0,0.0
1582470961647,12440.0,9144.0,0.0
1582470961690,12391.0,9045.0,0.0
1582470961744,12428.0,9258.0,0.0
1582470961789,12222.0,9047.0,0.0
1582470961842,12155.0,8984.0,0.0
1582470961892,12300.0,9159.0,0.0
1582470961941,12442.0,9191.0,0.0
1582470961988,12357.0,9010.0,0.0
1582470962038,12373.0,9090.0,0.0
1582470962082,12172.0,9179.0,0.0
1582470962132,12385.0,8925.0,0.0
1582470962182,12283.0,9222.0,0.0
1582470962230,12334.0,8974.0,0.0
1582470962280,12288.0,9138.0,0.0
1582470962327,12131.0,9014.0,0.0
1582470962381,12456.0,9098.0,0.0
1582470962429,12375.0,9189.0,0.0
1582470962479,12277.0,9029.0,0.0
1582470962528,12481.0,9124.0,0.0
1582470962576,12424.0,9203.0,0.0
1582470962624,12334.0,9057.0,0.0
1582470962673,12267.0,9120.0,0.0
1582470962723,12237.0,9234.0,0.0
1582470962769,12255.0,9148.0,0.0
1582470962822,12147.0,9171.0,0.0
1582470962869,12420.0,9071.0,0.0
1582470962919,12556.0,9293.0,0.0
1582470962968,12923.0,9439.0,0.0
1582470963017,15949.0,11400.0,0.0
1582470963066,30106.0,26835.0,0.0
1582470963115,29681.0,32719.0,0.0
1582470963165,23870.0,29846.0,0.0
1582470963208,23627.0,30256.0,0.0
1582470963264,27379.0,35716.0,0.0
1582470963309,33643.0,50641.0,0.0
1582470963360,39860.0,64115.0,0.0
1582470963408,48776.0,89685.0,0.0
1582470963485,46012.0,90455.0,0.0
1582470963587,36522.0,73766.0,0.0
1582470963587,30969.0,63754.0,0.0
1582470963629,36977.0,73051.0,0.0
1582470963710,51246.0,94112.0,0.0
1582470963710,119507.0,165168.0,0.0
1582470963756,312045.0,260849.0,0.0
1582470963804,158939.0,72427.0,0.0
1582470963849,854093.0,370919.0,0.0
1582470963900,1711770.0,797915.0,0.0
1582470963947,1239111.0,468228.0,0.0
1582470963998,95841.0,34635.0,0.0
1582470964045,223815.0,85124.0,0.0
1582470964091,742708.0,306773.0,0.0
1582470964144,928784.0,848877.0,0.0
1582470964190,947360.0,1328768.0,0.0
1582470964243,1111907.0,424254.0,0.0
1582470964290,211332.0,85205.0,0.0
1582470964341,348950.0,144981.0,0.0
1582470964387,526464.0,219804.0,0.0
1582470964442,848512.0,497737.0,0.0
1582470964483,899250.0,1091185.0,0.0
1582470964531,2395253.0,949934.0,0.0
1582470964583,848048.0,352056.0,0.0
1582470964631,415540.0,178517.0,0.0
1582470964685,50090.0,36457.0,0.0
1582470964731,104838.0,131612.0,0.0
1582470964781,184797.0,248659.0,0.0
1582470964828,607217.0,651298.0,0.0
1582470964879,1303594.0,653899.0,0.0
1582470964928,1219161.0,653990.0,0.0
1582470964973,1539252.0,3133972.0,0.0
1582470965019,1788464.0,2406737.0,0.0
1582470965072,1341531.0,1838959.0,0.0
1582470965119,691626.0,1023242.0,0.0
1582470965169,427597.0,728801.0,0.0
1582470965223,406460.0,751754.0,0.0
1582470965267,237192.0,458723.0,0.0
1582470965316,69430.0,176286.0,0.0
1582470965369,56549.0,151777.0,0.0
1582470965422,14342.0,22184.0,0.0
1582470965470,18618.0,17332.0,0.0
1582470965519,49822.0,22007.0,0.0
1582470965570,25254.0,13604.0,0.0
1582470965615,13777.0,33464.0,0.0
1582470965664,34088.0,227649.0,0.0
1582470965707,165333.0,664848.0,0.0
1582470965762,100581.0,553384.0,0.0
1582470965809,170020.0,824265.0,0.0
1582470965858,145363.0,723573.0,0.0
1582470965908,136425.0,712236.0,0.0
1582470965955,174411.0,944432.0,0.0
1582470966003,881609.0,2402950.0,0.0
1582470966055,904508.0,3250675.0,0.0
1582470966097,877882.0,2326308.0,0.0
1582470966146,1.0087619E7,1986669.0,0.0
1582470966196,9709540.0,1756901.0,0.0
1582470966245,3661466.0,1506929.0,0.0
1582470966303,894051.0,1259312.0,0.0
1582470966360,932484.0,1144175.0,0.0
1582470966408,617384.0,844322.0,0.0
1582470966450,260939.0,693965.0,0.0
1582470966528,260884.0,744445.0,0.0
1582470966578,311395.0,851453.0,0.0
1582470966591,524162.0,939704.0,0.0
1582470966637,513911.0,1054270.0,0.0
1582470966682,458778.0,902999.0,0.0
1582470966736,475412.0,733679.0,0.0
1582470966782,459310.0,702961.0,0.0
1582470966833,588592.0,632332.0,0.0
1582470966878,916234.0,779133.0,0.0
1582470966932,1473641.0,1026594.0,0.0
1582470966977,1576517.0,1608915.0,0.0
1582470967028,1.0574858E7,1761137.0,0.0
1582470967077,1.230292E7,1870392.0,0.0
1582470967122,1.4421678E7,2081926.0,0.0
1582470967171,1.7482676E7,3497065.0,0.0
1582470967221,2.0029608E7,3701644.0,0.0
1582470967274,6065466.0,2399674.0,0.0
1582470967323,3253622.0,2173799.0,0.0
1582470967368,1676750.0,1894995.0,0.0
1582470967420,787694.0,1964497.0,0.0
1582470967467,518424.0,1938344.0,0.0
1582470967517,387084.0,1750009.0,0.0
1582470967564,274773.0,1226914.0,0.0
1582470967618,37873.0,276654.0,0.0
1582470967667,15199.0,103897.0,0.0
1582470967719,13639.0,39291.0,0.0
1582470967764,13551.0,48607.0,0.0
1582470967821,149573.0,220086.0,0.0
1582470967866,41431.0,162944.0,0.0
1582470967914,15351.0,78949.0,0.0
1582470967962,13882.0,56819.0,0.0
1582470968015,12153.0,27203.0,0.0
1582470968060,12202.0,24653.0,0.0
1582470968109,11804.0,20364.0,0.0
1582470968156,12409.0,39202.0,0.0
1582470968203,10741.0,73307.0,0.0
1582470968254,13468.0,92216.0,0.0
1582470968305,12688.0,84931.0,0.0
1582470968353,17210.0,96123.0,0.0
1582470968402,14543.0,83049.0,0.0
1582470968450,12481.0,66919.0,0.0
1582470968498,13925.0,68821.0,0.0
1582470968545,9264.0,38912.0,0.0
1582470968595,4518.0,16438.0,0.0
1582470968644,5778.0,15949.0,0.0
1582470968695,10916.0,19388.0,0.0
1582470968740,11054.0,42825.0,0.0
1582470968788,10782.0,41059.0,0.0
1582470968838,10597.0,20425.0,0.0
1582470968894,10942.0,11603.0,0.0
1582470968938,10459.0,9992.0,0.0
1582470968985,10156.0,13033.0,0.0
1582470969033,10989.0,39328.0,0.0
1582470969085,14439.0,106563.0,0.0
1582470969136,21252.0,182093.0,0.0
1582470969182,29708.0,250343.0,0.0
1582470969234,34092.0,276851.0,0.0
1582470969279,27093.0,225080.0,0.0
1582470969328,25943.0,211393.0,0.0
1582470969377,17773.0,138709.0,0.0
1582470969425,23417.0,188141.0,0.0
1582470969475,36002.0,259126.0,0.0
1582470969523,124413.0,394668.0,0.0
1582470969576,229546.0,5448385.0,0.0
1582470969621,8515714.0,1.2103098E7,0.0
1582470969670,1.1793978E7,1.4388711E7,0.0
1582470969722,2147981.0,357002.0,0.0
1582470969769,17251.0,20419.0,0.0
1582470969821,20618.0,0.0,0.0
1582470969869,22513.0,19254.0,0.0
1582470969920,21987.0,16505.0,0.0
1582470969964,21711.0,16942.0,0.0
1582470970018,20975.0,17015.0,0.0
1582470970062,24551.0,14386.0,0.0
1582470970112,354178.0,160424.0,0.0
1582470970160,693566.0,729303.0,0.0
1582470970210,861364.0,898318.0,0.0
1582470970259,2277928.0,919655.0,0.0
1582470970306,2271904.0,1330218.0,0.0
1582470970358,2381541.0,1643146.0,0.0
1582470970405,3765816.0,2595167.0,0.0
1582470970456,4721152.0,3117427.0,0.0
1582470970518,4772471.0,3144647.0,0.0
1582470970552,1.1258061E7,1.0903413E7,0.0
1582470970603,1.2563596E7,1.2645347E7,0.0
1582470970650,1.5149769E7,1.4945318E7,0.0
1582470970700,1.8229884E7,1.5219796E7,0.0
1582470970748,2.0665308E7,1.05312E7,0.0
1582470970799,1.9112728E7,7768109.0,0.0
1582470970845,1.7826892E7,7374998.0,0.0
1582470970896,1.8701088E7,7294859.0,0.0
1582470970943,2.0210904E7,7248911.0,0.0
1582470970993,1.8765268E7,6651128.0,0.0
1582470971041,2.0879232E7,6931102.0,0.0
1582470971098,2.150382E7,7033344.0,0.0
1582470971142,2.6895686E7,7544538.0,0.0
1582470971188,3.4593984E7,9860400.0,0.0
1582470971240,3.1349188E7,1.0699422E7,0.0
1582470971285,3.2051304E7,1.0554499E7,0.0
1582470971341,3.274254E7,1.0455232E7,0.0
1582470971383,3.3051764E7,1.0466044E7,0.0
1582470971433,3.5881472E7,1.1143382E7,0.0
1582470971488,3.4148724E7,1.064396E7,0.0
1582470971530,3.1568664E7,1.0514944E7,0.0
1582470971582,3.1222132E7,1.0434593E7,0.0
1582470971628,2.8383044E7,9992079.0,0.0
1582470971679,2.5965208E7,9578499.0,0.0
1582470971726,2.1962064E7,8426089.0,0.0
1582470971780,2.029796E7,8102305.0,0.0
1582470971825,2.2837934E7,8572013.0,0.0
1582470971879,2.4182586E7,8430132.0,0.0
1582470971923,2.5111876E7,8497385.0,0.0
1582470971973,2.5890012E7,8526844.0,0.0
1582470972025,2.7116612E7,8426484.0,0.0
1582470972070,2.764459E7,8442010.0,0.0
1582470972122,2.7236026E7,8174753.0,0.0
1582470972168,2.7674648E7,8565165.0,0.0
1582470972221,2.6006318E7,8606226.0,0.0
1582470972267,2.5992076E7,9009125.0,0.0
1582470972321,2.6202798E7,9078283.0,0.0
1582470972364,2.6829986E7,9184090.0,0.0
1582470972418,2.5661544E7,9062215.0,0.0
1582470972462,2.5637584E7,9144741.0,0.0
1582470972515,2.574742E7,8875809.0,0.0
1582470972560,2.6176384E7,9011595.0,0.0
1582470972609,2.7030168E7,9011824.0,0.0
1582470972660,2.690667E7,9055634.0,0.0
1582470972708,2.6771002E7,8777005.0,0.0
1582470972760,2.6187066E7,8505807.0,0.0
1582470972805,2.5226436E7,8298996.0,0.0
1582470972855,2.5009872E7,8280666.0,0.0
1582470972903,2.5249616E7,8484732.0,0.0
1582470972955,2.5852066E7,8935457.0,0.0
1582470973003,2.57908E7,9025697.0,0.0
1582470973051,2.5327778E7,9080192.0,0.0
1582470973101,2.3633488E7,8439917.0,0.0
1582470973149,2.0854364E7,7646863.0,0.0
1582470973206,1.8266472E7,6857562.0,0.0
1582470973247,1.4288011E7,6283241.0,0.0
1582470973305,1.2342586E7,6235764.0,0.0
1582470973345,9840821.0,6149948.0,0.0
1582470973395,9147491.0,5719591.0,0.0
1582470973446,1.0401042E7,6549814.0,0.0
1582470973492,1.1796001E7,7468525.0,0.0
1582470973562,1.2215495E7,7624716.0,0.0
1582470973624,1.1655485E7,7320475.0,0.0
1582470973645,1.1142622E7,6888707.0,0.0
1582470973689,9836676.0,6248493.0,0.0
1582470973789,7316655.0,5197933.0,0.0
1582470973798,6230774.0,4647067.0,0.0
1582470973855,4863488.0,3822592.0,0.0
1582470973886,4199614.0,3384263.0,0.0
1582470973936,3509569.0,2932219.0,0.0
1582470973989,2955055.0,2322232.0,0.0
1582470974032,2873960.0,2640477.0,0.0
1582470974083,2893553.0,2700990.0,0.0
1582470974129,3364662.0,3000811.0,0.0
1582470974182,3198780.0,2856903.0,0.0
1582470974227,3427917.0,2944930.0,0.0
1582470974284,3822069.0,3120694.0,0.0
1582470974325,3892213.0,3123500.0,0.0
1582470974375,3786010.0,3088093.0,0.0
1582470974425,3158907.0,2677485.0,0.0
1582470974473,4113905.0,3102122.0,0.0
1582470974522,4285511.0,2910201.0,0.0
1582470974570,4485863.0,2798189.0,0.0
1582470974626,5885919.0,3245011.0,0.0
1582470974669,7496591.0,3575365.0,0.0
1582470974725,9958522.0,4490168.0,0.0
1582470974766,1.2478327E7,4965258.0,0.0
1582470974820,1.5086668E7,5599492.0,0.0
1582470974864,1.713634E7,6863064.0,0.0
1582470974917,1.7292408E7,7778424.0,0.0
1582470974962,1.5289155E7,8216218.0,0.0
1582470975013,1.3214659E7,9772928.0,0.0
1582470975061,1.5422256E7,1.1729701E7,0.0
1582470975112,1.3532873E7,1.1354822E7,0.0
1582470975165,1.2827075E7,9749190.0,0.0
1582470975207,1.1497088E7,7377325.0,0.0
1582470975257,1.0371949E7,6106219.0,0.0
1582470975304,9824493.0,5496588.0,0.0
1582470975365,9020422.0,5066355.0,0.0
1582470975404,7751004.0,4662790.0,0.0
1582470975457,6944889.0,4332072.0,0.0
1582470975501,7342495.0,4337096.0,0.0
1582470975550,7664300.0,4345837.0,0.0
1582470975603,7419852.0,4371792.0,0.0
1582470975649,7304337.0,4410925.0,0.0
1582470975697,7426937.0,4663900.0,0.0
1582470975747,6798955.0,4816229.0,0.0
1582470975798,7566616.0,5750748.0,0.0
1582470975846,8951033.0,6703847.0,0.0
1582470975895,9355395.0,7011259.0,0.0
1582470975944,9807622.0,6796221.0,0.0
1582470975991,1.0112968E7,7398179.0,0.0
1582470976042,1.0451815E7,8612346.0,0.0
1582470976089,9849171.0,8222630.0,0.0
1582470976138,9254303.0,7777976.0,0.0
1582470976186,7870709.0,6619898.0,0.0
1582470976236,6729703.0,5661541.0,0.0
1582470976284,6673176.0,5655063.0,0.0
1582470976345,6693064.0,5576805.0,0.0
1582470976407,6647956.0,5563088.0,0.0
1582470976452,6372085.0,5199556.0,0.0
1582470976495,5839211.0,4520906.0,0.0
1582470976530,6096695.0,4642253.0,0.0
1582470976587,6191532.0,4666555.0,0.0
1582470976628,6250118.0,4272898.0,0.0
1582470976678,6255432.0,4111863.0,0.0
1582470976726,6395495.0,4100959.0,0.0
1582470976775,6294168.0,4085028.0,0.0
1582470976828,6251080.0,4093754.0,0.0
1582470976872,6134486.0,3955795.0,0.0
1582470976926,6013945.0,3925426.0,0.0
1582470976971,6129155.0,3905574.0,0.0
1582470977024,6191878.0,3875167.0,0.0
1582470977074,6447882.0,4108712.0,0.0
1582470977120,6335041.0,4254340.0,0.0
1582470977167,6519558.0,4562927.0,0.0
