"1572898671031","4759472.0"
"1572898671081","4769928.0"
"1572898671130","4781494.0"
"1572898671181","4786759.0"
"1572898671226","4787269.0"
"1572898671274","4753304.0"
"1572898671323","4716915.0"
"1572898671372","4712267.0"
"1572898671418","4705109.0"
"1572898671468","4709073.0"
"1572898671519","4704973.0"
"1572898671566","4707303.0"
"1572898671615","4706409.0"
"1572898671662","4714565.0"
"1572898671713","4721109.0"
"1572898671761","4732999.0"
"1572898671811","4745969.0"
"1572898671857","4749704.0"
"1572898671907","4742018.0"
"1572898671959","4705682.0"
"1572898672004","4681297.0"
"1572898672051","4667639.0"
"1572898672104","4662532.0"
"1572898672149","4661938.0"
"1572898672202","4658517.0"
"1572898672247","4658848.0"
"1572898672303","4664695.0"
"1572898672345","4665539.0"
"1572898672397","4679539.0"
"1572898672444","4689464.0"
"1572898672493","4701218.0"
"1572898672543","4707959.0"
"1572898672590","4682264.0"
"1572898672641","4648695.0"
"1572898672688","4628691.0"
"1572898672736","4618904.0"
"1572898672784","4624499.0"
"1572898672834","4625290.0"
"1572898672882","4621409.0"
"1572898672932","4621482.0"
"1572898672982","4628276.0"
"1572898673030","4637045.0"
"1572898673075","4645514.0"
"1572898673124","4654823.0"
"1572898673174","4660077.0"
"1572898673225","4650599.0"
"1572898673273","4621316.0"
"1572898673320","4595913.0"
"1572898673374","4590254.0"
"1572898673421","4593708.0"
"1572898673468","4593885.0"
"1572898673516","4593178.0"
"1572898673565","4589527.0"
"1572898673614","4589828.0"
"1572898673663","4597640.0"
"1572898673713","4607272.0"
"1572898673760","4620099.0"
"1572898673810","4626590.0"
"1572898673861","4618997.0"
"1572898673910","4586396.0"
"1572898673959","4570323.0"
"1572898674006","4569220.0"
"1572898674058","4570947.0"
"1572898674103","4583076.0"
"1572898674155","4579789.0"
"1572898674206","4579592.0"
"1572898674248","4586406.0"
"1572898674302","4595746.0"
"1572898674348","4606919.0"
"1572898674401","4620381.0"
"1572898674442","4632551.0"
"1572898674491","4615980.0"
"1572898674543","4581682.0"
"1572898674590","4561564.0"
"1572898674637","4558673.0"
"1572898674686","4560400.0"
"1572898674735","4561347.0"
"1572898674786","4566412.0"
"1572898674833","4563238.0"
"1572898674885","4566495.0"
"1572898674930","4577117.0"
"1572898674983","4588277.0"
"1572898675032","4605828.0"
"1572898675079","4616053.0"
"1572898675125","4626777.0"
"1572898675177","4598109.0"
"1572898675223","4567245.0"
"1572898675271","4551994.0"
"1572898675324","4550495.0"
"1572898675367","4557423.0"
"1572898675417","4561450.0"
"1572898675466","4557966.0"
"1572898675515","4556322.0"
"1572898675564","4560534.0"
"1572898675612","4570426.0"
"1572898675660","4581538.0"
"1572898675711","4593241.0"
"1572898675757","4601790.0"
"1572898675813","4612453.0"
"1572898675855","4593968.0"
"1572898675905","4560034.0"
"1572898675956","4545533.0"
"1572898676008","4546440.0"
"1572898676053","4550788.0"
"1572898676103","4555436.0"
"1572898676149","4550568.0"
"1572898676201","4551328.0"
"1572898676243","4552671.0"
"1572898676292","4563334.0"
"1572898676351","4573517.0"
"1572898676391","4585793.0"
"1572898676437","4592731.0"
"1572898676490","4600313.0"
"1572898676541","4579082.0"
"1572898676585","4540739.0"
"1572898676634","4522638.0"
"1572898676687","4514805.0"
"1572898676732","4510445.0"
"1572898676780","4508958.0"
"1572898676830","4509541.0"
"1572898676877","4509708.0"
"1572898676928","4514202.0"
"1572898676975","4525498.0"
"1572898677027","4541092.0"
"1572898677071","4560804.0"
"1572898677121","4580039.0"
"1572898677171","4590744.0"
"1572898677219","4582192.0"
"1572898677267","4544587.0"
"1572898677317","4524334.0"
"1572898677363","4510705.0"
"1572898677419","4498566.0"
"1572898677472","4497121.0"
"1572898677519","4507773.0"
"1572898677564","4531262.0"
"1572898677612","4552951.0"
"1572898677662","4543650.0"
"1572898677709","4516864.0"
"1572898677755","4471155.0"
"1572898677810","4429442.0"
"1572898677853","4388008.0"
"1572898677905","4326383.0"
"1572898677951","4276648.0"
"1572898678003","4296216.0"
"1572898678050","4395830.0"
"1572898678098","4470272.0"
"1572898678149","4560826.0"
"1572898678200","4588621.0"
"1572898678248","4600387.0"
"1572898678298","4594499.0"
"1572898678342","4556842.0"
"1572898678397","4465590.0"
"1572898678442","4424531.0"
"1572898678488","4367660.0"
"1572898678539","4306265.0"
"1572898678593","4199275.0"
"1572898678633","4121630.0"
"1572898678686","4065436.0"
"1572898678733","4004551.0"
"1572898678782","3960848.0"
"1572898678831","3928779.0"
"1572898678874","3908431.0"
"1572898678928","3884755.0"
"1572898678993","3869118.0"
"1572898679093","3857145.0"
"1572898679094","3837464.0"
"1572898679131","3835580.0"
"1572898679199","3803958.0"
"1572898679215","3753339.0"
"1572898679267","3713976.0"
"1572898679312","3689780.0"
"1572898679362","3671970.0"
"1572898679412","3659227.0"
"1572898679461","3647691.0"
"1572898679510","3627822.0"
"1572898679556","3615953.0"
"1572898679606","3610918.0"
"1572898679653","3611822.0"
"1572898679702","3617596.0"
"1572898679756","3630059.0"
"1572898679799","3617127.0"
"1572898679849","3585505.0"
"1572898679899","3567924.0"
"1572898679951","3563253.0"
"1572898679997","3567965.0"
"1572898680046","3569121.0"
"1572898680094","3559476.0"
"1572898680142","3547276.0"
"1572898680193","3535687.0"
"1572898680240","3531369.0"
"1572898680291","3526387.0"
"1572898680337","3522393.0"
"1572898680391","3516682.0"
"1572898680436","3481833.0"
"1572898680484","3446869.0"
"1572898680533","3423496.0"
"1572898680584","3416754.0"
"1572898680633","3418231.0"
"1572898680682","3410117.0"
"1572898680734","3402097.0"
"1572898680780","3393286.0"
"1572898680828","3394108.0"
"1572898680874","3399580.0"
"1572898680926","3402284.0"
"1572898680970","3406321.0"
"1572898681024","3391611.0"
"1572898681072","3355587.0"
"1572898681117","3343603.0"
"1572898681167","3353153.0"
"1572898681214","3315872.0"
"1572898681263","3340072.0"
"1572898681313","3341372.0"
"1572898681359","3358088.0"
"1572898681413","3361446.0"
"1572898681458","3370193.0"
"1572898681508","3381162.0"
"1572898681555","3384858.0"
"1572898681604","3374110.0"
"1572898681658","3320608.0"
"1572898681705","3287736.0"
"1572898681753","3272338.0"
"1572898681802","3269272.0"
"1572898681857","3274213.0"
"1572898681899","3282702.0"
"1572898681950","3292535.0"
"1572898681992","3309661.0"
"1572898682047","3330702.0"
"1572898682097","3353053.0"
"1572898682145","3384899.0"
"1572898682193","3422449.0"
"1572898682238","3429329.0"
"1572898682284","3423867.0"
"1572898682335","3431094.0"
"1572898682384","3447440.0"
"1572898682436","3475204.0"
"1572898682485","3484092.0"
"1572898682534","3493747.0"
"1572898682578","3510233.0"
"1572898682627","3543899.0"
"1572898682675","3576196.0"
"1572898682724","3606826.0"
"1572898682771","3652014.0"
"1572898682821","3668037.0"
"1572898682874","3681584.0"
"1572898682919","3701032.0"
"1572898682972","3727292.0"
"1572898683019","3788210.0"
"1572898683070","3903961.0"
"1572898683114","4047311.0"
"1572898683166","4169510.0"
"1572898683218","4213562.0"
"1572898683264","4141100.0"
"1572898683312","4100963.0"
"1572898683357","4067456.0"
"1572898683410","4014606.0"
"1572898683455","3951987.0"
"1572898683502","3887278.0"
"1572898683555","3871579.0"
"1572898683600","3861162.0"
"1572898683659","3863714.0"
"1572898683702","3871658.0"
"1572898683747","3879988.0"
"1572898683795","3863604.0"
"1572898683844","3869246.0"
"1572898683894","3864007.0"
"1572898683942","3855211.0"
"1572898683994","3851688.0"
"1572898684038","3845250.0"
"1572898684089","3821679.0"
"1572898684136","3818441.0"
"1572898684183","3812545.0"
"1572898684236","3825414.0"
"1572898684280","3841601.0"
"1572898684337","3856944.0"
"1572898684384","3865622.0"
"1572898684433","3883747.0"
"1572898684481","3898335.0"
"1572898684530","3905458.0"
"1572898684579","3911684.0"
"1572898684624","3919628.0"
"1572898684677","3915420.0"
"1572898684725","3905365.0"
"1572898684773","3905034.0"
"1572898684822","3904221.0"
"1572898684873","3909124.0"
"1572898684914","3915341.0"
"1572898684969","3919274.0"
"1572898685015","3923868.0"
"1572898685063","3932040.0"
"1572898685114","3935223.0"
"1572898685160","3942765.0"
"1572898685210","3954698.0"
"1572898685258","3960252.0"
"1572898685306","3940591.0"
"1572898685355","3920810.0"
"1572898685409","3900092.0"
"1572898685454","3898792.0"
"1572898685506","3954840.0"
"1572898685556","4099466.0"
"1572898685597","4159146.0"
"1572898685649","4217006.0"
"1572898685696","4243242.0"
"1572898685751","4273566.0"
"1572898685796","4339512.0"
"1572898685847","4449101.0"
"1572898685900","4485961.0"
"1572898685945","4517089.0"
"1572898685994","4548817.0"
"1572898686045","4569455.0"
"1572898686087","4612028.0"
"1572898686145","4649760.0"
"1572898686186","4690905.0"
"1572898686234","4694595.0"
"1572898686282","4763259.0"
"1572898686331","4761096.0"
"1572898686380","4753928.0"
"1572898686430","4756695.0"
"1572898686478","4752908.0"
"1572898686527","4750277.0"
"1572898686579","4736889.0"
"1572898686623","4695600.0"
"1572898686678","4657464.0"
"1572898686728","4629493.0"
"1572898686772","4616387.0"
"1572898686821","4611653.0"
"1572898686874","4602758.0"
"1572898686921","4598784.0"
"1572898686972","4594342.0"
"1572898687016","4589984.0"
"1572898687060","4592388.0"
"1572898687116","4594612.0"
"1572898687166","4596756.0"
"1572898687214","4591368.0"
"1572898687260","4544430.0"
"1572898687315","4502135.0"
"1572898687359","4480207.0"
"1572898687410","4470219.0"
"1572898687454","4464747.0"
"1572898687501","4461305.0"
"1572898687552","4455198.0"
"1572898687598","4446720.0"
"1572898687647","4446762.0"
"1572898687698","4453024.0"
"1572898687744","4461533.0"
"1572898687794","4469075.0"
"1572898687842","4476200.0"
"1572898687894","4446210.0"
"1572898687939","4404933.0"
"1572898687988","4384700.0"
"1572898688041","4374964.0"
"1572898688096","4378510.0"
"1572898688134","4382994.0"
"1572898688187","4374869.0"
"1572898688237","4366902.0"
"1572898688280","4362355.0"
"1572898688332","4364562.0"
"1572898688381","4366797.0"
"1572898688432","4374298.0"
"1572898688480","4375712.0"
"1572898688524","4347574.0"
"1572898688577","4299026.0"
"1572898688623","4274547.0"
"1572898688671","4259567.0"
"1572898688720","4256916.0"
"1572898688769","4258236.0"
"1572898688819","4250394.0"
"1572898688866","4239045.0"
"1572898688921","4232844.0"
"1572898688970","4224471.0"
"1572898689020","4225135.0"
"1572898689063","4228963.0"
"1572898689114","4225521.0"
"1572898689161","4184929.0"
"1572898689213","4140761.0"
"1572898689255","4112101.0"
"1572898689308","4101908.0"
"1572898689359","4094969.0"
"1572898689399","4094033.0"
"1572898689459","4081726.0"
"1572898689502","4074922.0"
"1572898689550","4076775.0"
"1572898689596","4083787.0"
"1572898689645","4086314.0"
"1572898689694","4099004.0"
"1572898689995","4029943.0"
"1572898689995","4036339.0"
"1572898690069","4040730.0"
"1572898690090","4040907.0"
"1572898690133","4039647.0"
"1572898690181","4042780.0"
"1572898690234","4055751.0"
"1572898690283","4064406.0"
"1572898690334","4082267.0"
"1572898690382","4088945.0"
"1572898690427","4068433.0"
"1572898690480","4044277.0"
"1572898690522","4036736.0"
"1572898690573","4042603.0"
"1572898690623","4053993.0"
"1572898690675","4061275.0"
"1572898690716","4063553.0"
"1572898690764","4067933.0"
"1572898690814","4076629.0"
"1572898690863","4087915.0"
"1572898690913","4102385.0"
"1572898690964","4116565.0"
"1572898691010","4115149.0"
"1572898691056","4089175.0"
"1572898691106","4071417.0"
"1572898691154","4071864.0"
"1572898691201","4079636.0"
"1572898691251","4087322.0"
"1572898691304","4092712.0"
"1572898691349","4098027.0"
"1572898691397","4103655.0"
"1572898691446","4112351.0"
"1572898691495","4123887.0"
"1572898691548","4142051.0"
"1572898691593","4156739.0"
"1572898691643","4140917.0"
"1572898691691","4111831.0"
"1572898691739","4104092.0"
"1572898691787","4103281.0"
"1572898691836","4116605.0"
"1572898691886","4117573.0"
"1572898691934","4124241.0"
"1572898691983","4127248.0"
"1572898692031","4128507.0"
"1572898692083","4136787.0"
"1572898692129","4154118.0"
"1572898692177","4166580.0"
"1572898692226","4176213.0"
"1572898692274","4154305.0"
"1572898692324","4130409.0"
"1572898692373","4126707.0"
"1572898692423","4131939.0"
"1572898692470","4140791.0"
"1572898692518","4145328.0"
"1572898692567","4145255.0"
"1572898692676","4147283.0"
"1572898692676","4152744.0"
"1572898692849","4163167.0"
"1572898692849","4173009.0"
"1572898692854","4187916.0"
"1572898692877","4194375.0"
"1572898692991","4170865.0"
"1572898692993","4150060.0"
"1572898693017","4149333.0"
"1572898693070","4156759.0"
"1572898693105","4162253.0"
"1572898693152","4162690.0"
"1572898693200","4158986.0"
"1572898693248","4160816.0"
"1572898693297","4162460.0"
"1572898693345","4170418.0"
"1572898693397","4177024.0"
"1572898693445","4188113.0"
"1572898693493","4175733.0"
"1572898693758","4140448.0"
"1572898693758","4122920.0"
"1572898693758","4119936.0"
"1572898693758","4120362.0"
"1572898693758","4126520.0"
"1572898693786","4122680.0"
"1572898693870","4121463.0"
"1572898693886","4124710.0"
"1572898693937","4129712.0"
"1572898693981","4139430.0"
"1572898694036","4149124.0"
"1572898694082","4155845.0"
"1572898694127","4131565.0"
"1572898694182","4098037.0"
"1572898694226","4083307.0"
"1572898694279","4083277.0"
"1572898694326","4090112.0"
"1572898694367","4096414.0"
"1572898694415","4092170.0"
"1572898694467","4092972.0"
"1572898694515","4096414.0"
"1572898694566","4103519.0"
"1572898694613","4117002.0"
"1572898694661","4128101.0"
"1572898694710","4130608.0"
"1572898694758","4093563.0"
"1572898694809","4062793.0"
"1572898694862","4060828.0"
"1572898694907","4064229.0"
"1572898694953","4069400.0"
"1572898695003","4068847.0"
"1572898695055","4068650.0"
"1572898695102","4065560.0"
"1572898695154","4071927.0"
"1572898695200","4083411.0"
"1572898695247","4091140.0"
"1572898695301","4101898.0"
"1572898695349","4100658.0"
"1572898695396","4064936.0"
"1572898695440","4040783.0"
"1572898695490","4033635.0"
"1572898695543","4037806.0"
"1572898695596","4040687.0"
"1572898695634","4045214.0"
"1572898695691","4038036.0"
"1572898695738","4039003.0"
"1572898695787","4046919.0"
"1572898695831","4058997.0"
"1572898695877","4067537.0"
"1572898695928","4081976.0"
"1572898695973","4073041.0"
"1572898696026","4034946.0"
"1572898696075","4010032.0"
"1572898696123","4006172.0"
"1572898696171","4009730.0"
"1572898696219","4016597.0"
"1572898696268","4014880.0"
"1572898696320","4012446.0"
"1572898696369","4014776.0"
"1572898696421","4022318.0"
"1572898696472","4035226.0"
"1572898696516","4046108.0"
"1572898696558","4052733.0"
"1572898696613","4033761.0"
"1572898696662","4002637.0"
"1572898696709","3987947.0"
"1572898696761","3984243.0"
"1572898696812","3993419.0"
"1572898696860","3998443.0"
"1572898696908","3998943.0"
"1572898696957","4000733.0"
"1572898697005","4003458.0"
"1572898697049","4015067.0"
"1572898697095","4025793.0"
"1572898697145","4038796.0"
"1572898697193","4051789.0"
"1572898697242","4029943.0"
"1572898697292","3998236.0"
"1572898697339","3989195.0"
"1572898697391","3988811.0"
"1572898697436","3998110.0"
"1572898697497","4003114.0"
"1572898697540","4003925.0"
"1572898697587","4001481.0"
"1572898697631","4005861.0"
"1572898697685","4013830.0"
"1572898697729","4027237.0"
"1572898697785","4038276.0"
"1572898697828","4043371.0"
"1572898697875","4016804.0"
"1572898697923","3989321.0"
"1572898697973","3985533.0"
"1572898698021","3990568.0"
"1572898698074","4001741.0"
"1572898698123","4008762.0"
"1572898698169","4006735.0"
"1572898698216","4005808.0"
"1572898698263","4014547.0"
"1572898698311","4027050.0"
"1572898698360","4040783.0"
"1572898698412","4054400.0"
"1572898698458","4044434.0"
"1572898698512","4010812.0"
"1572898698555","3991328.0"
"1572898698606","3988987.0"
"1572898698654","3997706.0"
"1572898698709","4003354.0"
"1572898698752","4002271.0"
"1572898698807","4003321.0"
"1572898698852","4002907.0"
"1572898698902","4014193.0"
"1572898698953","4028080.0"
"1572898698995","4042280.0"
"1572898699051","4048365.0"
"1572898699092","4028403.0"
"1572898699147","3999650.0"
"1572898699191","3987833.0"
"1572898699244","3991661.0"
"1572898699293","4001657.0"
"1572898699335","4006901.0"
"1572898699384","4005611.0"
"1572898699435","4006828.0"
"1572898699482","4017021.0"
"1572898699535","4024626.0"
"1572898699579","4042207.0"
"1572898699627","4050779.0"
"1572898699676","4051569.0"
"1572898699725","4021089.0"
"1572898699774","3999234.0"
"1572898699830","3998142.0"
"1572898699876","4007182.0"
"1572898699920","4018708.0"
"1572898699970","4015774.0"
"1572898700017","4015244.0"
"1572898700065","4019508.0"
"1572898700117","4028497.0"
"1572898700161","4040263.0"
"1572898700212","4052733.0"
"1572898700260","4065832.0"
"1572898700313","4045265.0"
"1572898700357","4014681.0"
"1572898700407","4004571.0"
"1572898700455","4005662.0"
"1572898700504","4020662.0"
"1572898700554","4029017.0"
"1572898700603","4029391.0"
"1572898700653","4026416.0"
"1572898700698","4035612.0"
"1572898700749","4047741.0"
"1572898700798","4059725.0"
"1572898700851","4070814.0"
"1572898700893","4056437.0"
"1572898700943","4022089.0"
"1572898700994","4001938.0"
"1572898701042","3999609.0"
"1572898701094","4005985.0"
"1572898701138","4012424.0"
"1572898701187","4010323.0"
"1572898701235","4006391.0"
"1572898701284","4008722.0"
"1572898701336","4017064.0"
"1572898701388","4031254.0"
"1572898701433","4046701.0"
"1572898701483","4050633.0"
"1572898701533","4018832.0"
"1572898701579","3993679.0"
"1572898701625","3986490.0"
"1572898701674","3984514.0"
"1572898701723","3992962.0"
"1572898701773","3997320.0"
"1572898701819","3998557.0"
"1572898701869","4003000.0"
"1572898701916","4011706.0"
"1572898701967","4028860.0"
"1572898702015","4041240.0"
"1572898702063","4055606.0"
"1572898702116","4047522.0"
"1572898702160","4012600.0"
"1572898702213","3998579.0"
"1572898702261","3994396.0"
"1572898702314","4003321.0"
"1572898702356","4006432.0"
"1572898702411","4007306.0"
"1572898702456","4006349.0"
"1572898702511","4007411.0"
"1572898702558","4018864.0"
"1572898702598","4027820.0"
"1572898702647","4042363.0"
"1572898702699","4045525.0"
"1572898702751","4022826.0"
"1572898702797","3997466.0"
"1572898702848","3987978.0"
"1572898702893","3996155.0"
"1572898702946","4005715.0"
"1572898702991","4010355.0"
"1572898703036","4012840.0"
"1572898703086","4013964.0"
"1572898703135","4027030.0"
"1572898703182","4037120.0"
"1572898703233","4051819.0"
"1572898703280","4062035.0"
"1572898703330","4063646.0"
"1572898703375","4027717.0"
"1572898703427","4004144.0"
"1572898703474","3998817.0"
"1572898703525","3999973.0"
"1572898703577","4008358.0"
"1572898703622","4010489.0"
"1572898703672","4005851.0"
"1572898703722","4008888.0"
"1572898703774","4019435.0"
"1572898703815","4030701.0"
"1572898703865","4046108.0"
"1572898703915","4058632.0"
"1572898703962","4047532.0"
"1572898704011","4023742.0"
"1572898704058","4034645.0"
"1572898704113","4068463.0"
"1572898704415","4109220.0"
"1572898704415","4152693.0"
"1572898704415","4192908.0"
"1572898704417","4243350.0"
"1572898704419","4296019.0"
"1572898704420","4332635.0"
"1572898704483","4378042.0"
"1572898704507","4420796.0"
"1572898704584","4455541.0"
"1572898704611","4447770.0"
"1572898704643","4429972.0"
"1572898704694","4425967.0"
"1572898704748","4431355.0"
"1572898704792","4439448.0"
"1572898704836","4441945.0"
"1572898704895","4444952.0"
"1572898704943","4454781.0"
"1572898704983","4465987.0"
"1572898705033","4480975.0"
"1572898705081","4491046.0"
"1572898705132","4497298.0"
"1572898705179","4499472.0"
"1572898705229","4472456.0"
"1572898705275","4449154.0"
"1572898705325","4444192.0"
"1572898705375","4445919.0"
"1572898705430","4453711.0"
"1572898705477","4450454.0"
"1572898705519","4446876.0"
"1572898705575","4444078.0"
"1572898705623","4447469.0"
"1572898705667","4451766.0"
"1572898705722","4460649.0"
"1572898705771","4468067.0"
"1572898705817","4455385.0"
"1572898705865","4406223.0"
"1572898705914","4379426.0"
"1572898705959","4370490.0"
"1572898706013","4368887.0"
"1572898706062","4365819.0"
"1572898706109","4356083.0"
"1572898706154","4352067.0"
"1572898706202","4348312.0"
"1572898706252","4347148.0"
"1572898706300","4347552.0"
"1572898706350","4354397.0"
"1572898706398","4353909.0"
"1572898706447","4321225.0"
"1572898706501","4281955.0"
"1572898706551","4264801.0"
"1572898706597","4262824.0"
"1572898706648","4266059.0"
"1572898706694","4266829.0"
"1572898706742","4262085.0"
"1572898706793","4255843.0"
"1572898706842","4263001.0"
"1572898706892","4268326.0"
"1572898706941","4280269.0"
"1572898706986","4286447.0"
"1572898707036","4285387.0"
"1572898707081","4243350.0"
"1572898707130","4205184.0"
"1572898707180","4198089.0"
"1572898707236","4198922.0"
"1572898707282","4208534.0"
"1572898707325","4202447.0"
"1572898707374","4196372.0"
"1572898707422","4199296.0"
"1572898707471","4205517.0"
"1572898707521","4210978.0"
"1572898707568","4263084.0"
"1572898707620","4350642.0"
"1572898707665","4386864.0"
"1572898707714","4375401.0"
"1572898707763","4377730.0"
"1572898707812","4392626.0"
"1572898707864","4427881.0"
"1572898707909","4467151.0"
"1572898707963","4497538.0"
"1572898708014","4538118.0"
"1572898708060","4566828.0"
"1572898708105","4594281.0"
"1572898708153","4595935.0"
"1572898708200","4616894.0"
"1572898708258","4661585.0"
"1572898708302","4683897.0"
"1572898708347","4686915.0"
"1572898708396","4698670.0"
"1572898708445","4711870.0"
"1572898708494","4739384.0"
"1572898708545","4743942.0"
"1572898708591","4745616.0"
"1572898708643","4755281.0"
"1572898708690","4778561.0"
"1572898708738","4793291.0"
"1572898708793","4821138.0"
"1572898708842","4846427.0"
"1572898708885","4846896.0"
"1572898708933","4846531.0"
"1572898708981","4841778.0"
"1572898709036","4818163.0"
"1572898709086","4798638.0"
"1572898709128","4781964.0"
"1572898709179","4767660.0"
"1572898709224","4742308.0"
"1572898709272","4737003.0"
"1572898709324","4729482.0"
"1572898709372","4727214.0"
"1572898709424","4746136.0"
"1572898709469","4749090.0"
"1572898709517","4730388.0"
"1572898709566","4710790.0"
"1572898709615","4704193.0"
"1572898709663","4719183.0"
"1572898709714","4745179.0"
"1572898709764","4767691.0"
"1572898709810","4788746.0"
"1572898709856","4805587.0"
"1572898709908","4820504.0"
"1572898709955","4826955.0"
"1572898710006","4833383.0"
"1572898710054","4848644.0"
"1572898710102","4848717.0"
"1572898710151","4820264.0"
"1572898710206","4810654.0"
"1572898710254","4817227.0"
"1572898710303","4826599.0"
"1572898710344","4831853.0"
"1572898710401","4829886.0"
"1572898710443","4827255.0"
"1572898710500","4833903.0"
"1572898710548","4846364.0"
"1572898710596","4859700.0"
"1572898710649","4867399.0"
"1572898710684","4879205.0"
"1572898710733","4856122.0"
"1572898710785","4814138.0"
"1572898710834","4788193.0"
"1572898710883","4785749.0"
"1572898710930","4785625.0"
"1572898711198","4781744.0"
"1572898711198","4774379.0"
"1572898711198","4764216.0"
"1572898711198","4758735.0"
"1572898711199","4762656.0"
"1572898711232","4768855.0"
"1572898711311","4769781.0"
"1572898711329","4775482.0"
"1572898711373","4742964.0"
"1572898711424","4686061.0"
"1572898711693","4649258.0"
"1572898711693","4637326.0"
"1572898711693","4630834.0"
"1572898711694","4622866.0"
"1572898711695","4608241.0"
"1572898711743","4592491.0"
"1572898711835","4582058.0"
"1572898711862","4585293.0"
"1572898711906","4595216.0"
"1572898711958","4593761.0"
"1572898712003","4561200.0"
"1572898712050","4506930.0"
"1572898712098","4488966.0"
"1572898712148","4483202.0"
"1572898712197","4494854.0"
"1572898712246","4500782.0"
"1572898712294","4486095.0"
"1572898712343","4460409.0"
"1572898712392","4423273.0"
"1572898712446","4403529.0"
"1572898712492","4399471.0"
"1572898712547","4383597.0"
"1572898712587","4364009.0"
"1572898712635","4280456.0"
"1572898712688","4176223.0"
"1572898712738","4091255.0"
"1572898712788","4059018.0"
"1572898712833","4082100.0"
"1572898712884","4179801.0"
"1572898712926","4246690.0"
"1572898712984","4287904.0"
"1572898713026","4313817.0"
"1572898713078","4312850.0"
"1572898713126","4241976.0"
"1572898713175","4191754.0"
"1572898713227","4144412.0"
"1572898713268","4049978.0"
"1572898713316","3967152.0"
"1572898713366","3920810.0"
"1572898713414","3910834.0"
"1572898713463","3908931.0"
"1572898713512","3889580.0"
"1572898713560","3851800.0"
"1572898713613","3826781.0"
"1572898713658","3810937.0"
"1572898713707","3784338.0"
"1572898713755","3765646.0"
"1572898713810","3740243.0"
"1572898713857","3666499.0"
"1572898713908","3623598.0"
"1572898713952","3581354.0"
"1572898714005","3577837.0"
"1572898714049","3567290.0"
"1572898714093","3563066.0"
"1572898714153","3542595.0"
"1572898714198","3524494.0"
"1572898714250","3517972.0"
"1572898714292","3515568.0"
"1572898714346","3518386.0"
"1572898714388","3514569.0"
"1572898714443","3464856.0"
"1572898714489","3425920.0"
"1572898714533","3407173.0"
"1572898714582","3405748.0"
"1572898714629","3404584.0"
"1572898714679","3400141.0"
"1572898714730","3398113.0"
"1572898714777","3393722.0"
"1572898714827","3391278.0"
"1572898714874","3393452.0"
"1572898714925","3397833.0"
"1572898714974","3398613.0"
"1572898715022","3359394.0"
"1572898715073","3324308.0"
"1572898715120","3310118.0"
"1572898715169","3266200.0"
"1572898715222","3270438.0"
"1572898715270","3267500.0"
"1572898715319","3267862.0"
"1572898715364","3272417.0"
"1572898715412","3279384.0"
"1572898715467","3291440.0"
"1572898715509","3303230.0"
"1572898715557","3305484.0"
"1572898715611","3279414.0"
"1572898715655","3251439.0"
"1572898715703","3244511.0"
"1572898715753","3243495.0"
"1572898715801","3252439.0"
"1572898715852","3255828.0"
"1572898715898","3262472.0"
"1572898715955","3267153.0"
"1572898716000","3270471.0"
"1572898716054","3279406.0"
"1572898716093","3288431.0"
"1572898716148","3295185.0"
"1572898716191","3280605.0"
"1572898716238","3242691.0"
"1572898716292","3216260.0"
"1572898716343","3208072.0"
"1572898716393","3216503.0"
"1572898716435","3232934.0"
"1572898716489","3256112.0"
"1572898716531","3284884.0"
"1572898716589","3308092.0"
"1572898716635","3346015.0"
"1572898716684","3385695.0"
"1572898716726","3430560.0"
"1572898716775","3466069.0"
"1572898716824","3475171.0"
"1572898716873","3500854.0"
"1572898716922","3553877.0"
"1572898716974","3599490.0"
"1572898717018","3635000.0"
"1572898717068","3662277.0"
"1572898717116","3693750.0"
"1572898717170","3732335.0"
"1572898717213","3778941.0"
"1572898717269","3802323.0"
"1572898717314","3805689.0"
"1572898717359","3817636.0"
"1572898717415","3819142.0"
"1572898717461","3882093.0"
"1572898717512","4017523.0"
"1572898717558","4133274.0"
"1572898717603","4233423.0"
"1572898717656","4296649.0"
"1572898717706","4267964.0"
"1572898717755","4196729.0"
"1572898717801","4132171.0"
"1572898717853","4079158.0"
"1572898717896","4043198.0"
"1572898717944","4025134.0"
"1572898717994","3994140.0"
"1572898718041","3971506.0"
"1572898718093","3955516.0"
"1572898718139","3969095.0"
"1572898718189","3962278.0"
"1572898718236","3979694.0"
"1572898718286","3959466.0"
"1572898718334","3946455.0"
"1572898718388","3930961.0"
"1572898718436","3912584.0"
"1572898718483","3922395.0"
"1572898718531","3928163.0"
"1572898718574","3900202.0"
"1572898718627","3854549.0"
"1572898718673","3834800.0"
"1572898718728","3811252.0"
"1572898718773","3819377.0"
"1572898718826","3887246.0"
"1572898718874","3890438.0"
"1572898718924","3975856.0"
"1572898718968","4027176.0"
"1572898719015","4014212.0"
"1572898719064","4024151.0"
"1572898719113","4041646.0"
"1572898719161","4071482.0"
"1572898719213","4064223.0"
"1572898719259","4050322.0"
"1572898719309","4045090.0"
"1572898719355","4055430.0"
"1572898719411","4065422.0"
"1572898719455","4070552.0"
"1572898719508","4090790.0"
"1572898719558","4112745.0"
"1572898719600","4117837.0"
"1572898719651","4143244.0"
"1572898719704","4150887.0"
"1572898719752","4163646.0"
"1572898719799","4140391.0"
"1572898719850","4162511.0"
"1572898719897","4184846.0"
"1572898719940","4280645.0"
"1572898719990","4389382.0"
"1572898720039","4484951.0"
"1572898720088","4539186.0"
"1572898720136","4592790.0"
"1572898720186","4612894.0"
"1572898720237","4595147.0"
"1572898720283","4552433.0"
"1572898720335","4517065.0"
"1572898720380","4462364.0"
"1572898720431","4399453.0"
"1572898720482","4364235.0"
"1572898720533","4336558.0"
"1572898720575","4314160.0"
"1572898720624","4293451.0"
"1572898720673","4259177.0"
"1572898720727","4226519.0"
"1572898720776","4196910.0"
"1572898720824","4168454.0"
"1572898720871","4136931.0"
"1572898720919","4121730.0"
"1572898720972","4104391.0"
"1572898721015","4088567.0"
"1572898721068","4084831.0"
"1572898721112","4089008.0"
"1572898721167","4116323.0"
"1572898721210","4114960.0"
"1572898721257","4113391.0"
"1572898721306","4122280.0"
"1572898721354","4138491.0"
"1572898721403","4139138.0"
"1572898721452","4147649.0"
"1572898721500","4138026.0"
"1572898721549","4127813.0"
"1572898721597","4068888.0"
"1572898721649","3969978.0"
"1572898721695","3922277.0"
"1572898721750","3920069.0"
"1572898721800","3948369.0"
"1572898721847","3961041.0"
"1572898721895","3952530.0"
"1572898721942","3937424.0"
"1572898721991","3924112.0"
"1572898722039","3929283.0"
"1572898722091","3936682.0"
"1572898722137","3943885.0"
"1572898722188","3954484.0"
"1572898722234","3915247.0"
"1572898722279","3863415.0"
"1572898722329","3827992.0"
"1572898722377","3806075.0"
"1572898722426","3791851.0"
"1572898722474","3775041.0"
"1572898722523","3753597.0"
"1572898722573","3731728.0"
"1572898722620","3726787.0"
"1572898722671","3725155.0"
"1572898722721","3726898.0"
"1572898722775","3743825.0"
"1572898722821","3756877.0"
"1572898722868","3736267.0"
"1572898722920","3678368.0"
"1572898722967","3645482.0"
"1572898723014","3625449.0"
"1572898723056","3616054.0"
"1572898723109","3617601.0"
"1572898723160","3609484.0"
"1572898723210","3604526.0"
"1572898723259","3599207.0"
"1572898723302","3609900.0"
"1572898723351","3624866.0"
"1572898723399","3636868.0"
"1572898723449","3648493.0"
"1572898723496","3659446.0"
"1572898723546","3638302.0"
"1572898723594","3602178.0"
"1572898723643","3587575.0"
"1572898723693","3603108.0"
"1572898723745","3622375.0"
"1572898723791","3634970.0"
"1572898723838","3642693.0"
"1572898723886","3643355.0"
"1572898723936","3647475.0"
"1572898723985","3658138.0"
"1572898724033","3670818.0"
"1572898724290","3682182.0"
"1572898724290","3699181.0"
"1572898724290","3712113.0"
"1572898724290","3724131.0"
"1572898724290","3699409.0"
"1572898724342","3681418.0"
"1572898724412","3677492.0"
"1572898724431","3685436.0"
"1572898724477","3696816.0"
"1572898724521","3704407.0"
"1572898724570","3704722.0"
"1572898724619","3711498.0"
"1572898724667","3724840.0"
"1572898724715","3736622.0"
"1572898724764","3750846.0"
"1572898724814","3764087.0"
"1572898724861","3777231.0"
"1572898724911","3790392.0"
"1572898724962","3784222.0"
"1572898725011","3755851.0"
"1572898725061","3743904.0"
"1572898725106","3743132.0"
"1572898725159","3748120.0"
"1572898725203","3754323.0"
"1572898725257","3758626.0"
"1572898725298","3763307.0"
"1572898725356","3765615.0"
"1572898725403","3777499.0"
"1572898725452","3789100.0"
"1572898725500","3801646.0"
"1572898725543","3813538.0"
"1572898725594","3829071.0"
"1572898725641","3841239.0"
"1572898725689","3827653.0"
"1572898725740","3805169.0"
"1572898725787","3794978.0"
"1572898725834","3796500.0"
"1572898725883","3802063.0"
"1572898725932","3809527.0"
"1572898725979","3808337.0"
"1572898726036","3812884.0"
"1572898726080","3819897.0"
"1572898726127","3827565.0"
"1572898726181","3840514.0"
"1572898726227","3851255.0"
"1572898726305","3864116.0"
"1572898726350","3875283.0"
"1572898726377","3890753.0"
"1572898726426","3884552.0"
"1572898726473","3856826.0"
"1572898726521","3846977.0"
"1572898726573","3846101.0"
"1572898726614","3850144.0"
"1572898726661","3859104.0"
"1572898726717","3861445.0"
"1572898726762","3859868.0"
"1572898726809","3866260.0"
"1572898726857","3873596.0"
"1572898726906","3885214.0"
"1572898726954","3897114.0"
"1572898727003","3910180.0"
"1572898727053","3922748.0"
"1572898727102","3933972.0"
"1572898727150","3938944.0"
"1572898727199","3953113.0"
"1572898727250","3968654.0"
"1572898727301","3988608.0"
"1572898727346","4000855.0"
"1572898727399","4004983.0"
"1572898727441","4011288.0"
"1572898727498","4013511.0"
"1572898727542","4012424.0"
"1572898727592","4020644.0"
"1572898727639","4027215.0"
"1572898727685","4031748.0"
"1572898727739","4038391.0"
"1572898727781","4043593.0"
"1572898727839","4040866.0"
"1572898727883","4006757.0"
"1572898727934","3980302.0"
"1572898727979","3972894.0"
"1572898728027","3972264.0"
"1572898728075","3974912.0"
"1572898728125","3974005.0"
"1572898728173","3968048.0"
"1572898728222","3964934.0"
"1572898728270","3964249.0"
"1572898728317","3968560.0"
"1572898728369","3978355.0"
"1572898728421","3987939.0"
"1572898728465","3994991.0"
"1572898728520","3992494.0"
"1572898728564","3956431.0"
"1572898728613","3924979.0"
"1572898728665","3913616.0"
"1572898728709","3911046.0"
"1572898728764","3915696.0"
"1572898728812","3912874.0"
"1572898728861","3906050.0"
"1572898728902","3903433.0"
"1572898728953","3904648.0"
"1572898729003","3910747.0"
"1572898729048","3919282.0"
"1572898729098","3926430.0"
"1572898729147","3937361.0"
"1572898729196","3936587.0"
"1572898729245","3902677.0"
"1572898729293","3873629.0"
"1572898729346","3865677.0"
"1572898729392","3866347.0"
"1572898729444","3874188.0"
"1572898729495","3877136.0"
"1572898729542","3870555.0"
"1572898729585","3867347.0"
"1572898729635","3871603.0"
"1572898729686","3881880.0"
"1572898729738","3887232.0"
"1572898729786","3899778.0"
"1572898729835","3911866.0"
"1572898729883","3907311.0"
"1572898729931","3882676.0"
"1572898729981","3880911.0"
"1572898730023","3897429.0"
"1572898730072","3922655.0"
"1572898730122","3947353.0"
"1572898730170","3976259.0"
"1572898730218","3989223.0"
"1572898730269","3996418.0"
"1572898730316","4002377.0"
"1572898730368","4013519.0"
"1572898730414","4029998.0"
"1572898730469","4038178.0"
"1572898730518","4045074.0"
"1572898730566","4023267.0"
"1572898730610","4005757.0"
"1572898730663","4005977.0"
"1572898730707","4013299.0"
"1572898730760","4014362.0"
"1572898730810","4010910.0"
"1572898730930","4024088.0"
"1572898730930","4017783.0"
"1572898731167","4002415.0"
"1572898731167","4018933.0"
"1572898731167","4049873.0"
"1572898731168","4087740.0"
"1572898731170","4101672.0"
"1572898731211","4103933.0"
"1572898731294","4134355.0"
"1572898731294","4171741.0"
"1572898731344","4187249.0"
"1572898731390","4182796.0"
"1572898731435","4178306.0"
"1572898731486","4161527.0"
"1572898731533","4145735.0"
"1572898731583","4133203.0"
"1572898731632","4126244.0"
"1572898731678","4118576.0"
"1572898731730","4107741.0"
"1572898731777","4067210.0"
"1572898731832","4008892.0"
"1572898731879","3967299.0"
"1572898731929","3945398.0"
"1572898731979","3933381.0"
"1572898732026","3923963.0"
"1572898732072","3910060.0"
"1572898732117","3899524.0"
"1572898732169","3896137.0"
"1572898732215","3898012.0"
"1572898732265","3899532.0"
"1572898732313","3896011.0"
"1572898732360","3891179.0"
"1572898732412","3851721.0"
"1572898732459","3802008.0"
"1572898732791","3773007.0"
"1572898732791","3759343.0"
"1572898732791","3752415.0"
"1572898732791","3746718.0"
"1572898732791","3730104.0"
"1572898732793","3716967.0"
"1572898732816","3710451.0"
"1572898732915","3706668.0"
"1572898732915","3707164.0"
"1572898732949","3709370.0"
"1572898733001","3707416.0"
"1572898733049","3669731.0"
"1572898733098","3633015.0"
"1572898733147","3623172.0"
"1572898733188","3627845.0"
"1572898733244","3633613.0"
"1572898733289","3635529.0"
"1572898733335","3642361.0"
"1572898733385","3641423.0"
"1572898733433","3646758.0"
"1572898733481","3656539.0"
"1572898733532","3664065.0"
"1572898733578","3671702.0"
"1572898733631","3670479.0"
"1572898733676","3633180.0"
"1572898733725","3605014.0"
"1572898733778","3594628.0"
"1572898733828","3594597.0"
"1572898733871","3601342.0"
"1572898733919","3599876.0"
"1572898734249","3587321.0"
"1572898734249","3576163.0"
"1572898734249","3571134.0"
"1572898734249","3568936.0"
"1572898734249","3598142.0"
"1572898734256","3635055.0"
"1572898734313","3677966.0"
"1572898734313","3684065.0"
"1572898734392","3699332.0"
"1572898734408","3680008.0"
"1572898734455","3632621.0"
"1572898734504","3572081.0"
"1572898734553","3548361.0"
"1572898734601","3541944.0"
"1572898734651","3563483.0"
"1572898734698","3592618.0"
"1572898734752","3620571.0"
"1572898734800","3670960.0"
"1572898734851","3705762.0"
"1572898734892","3734186.0"
"1572898734942","3741752.0"
"1572898734993","3733392.0"
"1572898735044","3744969.0"
"1572898735094","3758640.0"
"1572898735137","3752360.0"
"1572898735192","3786861.0"
"1572898735234","3789470.0"
"1572898735289","3757852.0"
"1572898735332","3737419.0"
"1572898735386","3735259.0"
"1572898735434","3734194.0"
"1572898735482","3762787.0"
"1572898735532","3762653.0"
"1572898735574","3742327.0"
"1572898735625","3713649.0"
"1572898735673","3693216.0"
"1572898735728","3688196.0"
"1572898735776","3702198.0"
"1572898735823","3706817.0"
"1572898735870","3710041.0"
"1572898735919","3706368.0"
"1572898735965","3696288.0"
"1572898736014","3690624.0"
"1572898736062","3700315.0"
"1572898736113","3725029.0"
"1572898736158","3748041.0"
"1572898736209","3748002.0"
"1572898736257","3707046.0"
"1572898736306","3688108.0"
"1572898736353","3681387.0"
"1572898736409","3654040.0"
"1572898736457","3642022.0"
"1572898736506","3620516.0"
"1572898736555","3625276.0"
"1572898736598","3638231.0"
"1572898736646","3667273.0"
"1572898736694","3714366.0"
"1572898736744","3728276.0"
"1572898736791","3765128.0"
"1572898736847","3831088.0"
"1572898736894","3874456.0"
"1572898736944","3935067.0"
"1572898736989","3899107.0"
"1572898737036","3920597.0"
"1572898737084","3915160.0"
"1572898737134","3933452.0"
"1572898737182","3951270.0"
"1572898737233","3952310.0"
"1572898737279","3945823.0"
"1572898737328","3933947.0"
"1572898737376","3983674.0"
"1572898737432","4039163.0"
"1572898737473","4088307.0"
"1572898737528","4079544.0"
"1572898737576","4023165.0"
"1572898737620","3972130.0"
"1572898737672","3935941.0"
"1572898737723","3895048.0"
"1572898737773","3867040.0"
"1572898737819","3844518.0"
"1572898737870","3829205.0"
"1572898737918","3824942.0"
"1572898737967","3851847.0"
"1572898738013","3967219.0"
"1572898738065","4092578.0"
"1572898738109","4158114.0"
"1572898738156","4191284.0"
"1572898738215","4258222.0"
"1572898738254","4285285.0"
"1572898738302","4254795.0"
"1572898738356","4231808.0"
"1572898738400","4185862.0"
"1572898738449","4161416.0"
"1572898738497","4124930.0"
"1572898738547","4113887.0"
"1572898738596","4117065.0"
"1572898738644","4135204.0"
"1572898738700","4148335.0"
"1572898738746","4143890.0"
"1572898738794","4133676.0"
"1572898738844","4181465.0"
"1572898738892","4216305.0"
"1572898738939","4232429.0"
"1572898738989","4255835.0"
"1572898739036","4272597.0"
"1572898739088","4269517.0"
"1572898739131","4289714.0"
"1572898739184","4311710.0"
"1572898739232","4358946.0"
"1572898739279","4398815.0"
"1572898739332","4382730.0"
"1572898739376","4378601.0"
"1572898739429","4343769.0"
"1572898739472","4344517.0"
"1572898739520","4386923.0"
"1572898739569","4402234.0"
"1572898739617","4388823.0"
"1572898739666","4308746.0"
"1572898739715","4125913.0"
"1572898739764","4027357.0"
"1572898739813","3961027.0"
"1572898739861","3931119.0"
"1572898739914","3899280.0"
"1572898739962","3872036.0"
"1572898740022","3853366.0"
"1572898740056","3849079.0"
"1572898740104","3857930.0"
"1572898740157","3877467.0"
"1572898740202","3892896.0"
"1572898740251","3924744.0"
"1572898740297","3935366.0"
"1572898740349","3960734.0"
"1572898740398","4012092.0"
"1572898740445","4076739.0"
"1572898740496","4138500.0"
"1572898740542","4166981.0"
"1572898740593","4122351.0"
"1572898740640","4070607.0"
"1572898740689","3992122.0"
"1572898740741","4003338.0"
"1572898740793","4032520.0"
"1572898740840","4153811.0"
"1572898740890","4253423.0"
"1572898740938","4306753.0"
"1572898740984","4344823.0"
"1572898741034","4365314.0"
"1572898741081","4362500.0"
"1572898741129","4360460.0"
"1572898741178","4334287.0"
"1572898741230","4333232.0"
"1572898741280","4332420.0"
"1572898741327","4358727.0"
"1572898741377","4378522.0"
"1572898741421","4404356.0"
"1572898741472","4406198.0"
"1572898741518","4404906.0"
"1572898741566","4389138.0"
"1572898741614","4421315.0"
"1572898741663","4426524.0"
"1572898741711","4430535.0"
"1572898741760","4460812.0"
"1572898741809","4465194.0"
"1572898741861","4509358.0"
"1572898741907","4528822.0"
"1572898741961","4549282.0"
"1572898742009","4555018.0"
"1572898742058","4570882.0"
"1572898742099","4527768.0"
"1572898742154","4510287.0"
"1572898742199","4478047.0"
"1572898742256","4466407.0"
"1572898742301","4402740.0"
"1572898742350","4416483.0"
"1572898742399","4426138.0"
"1572898742441","4418572.0"
"1572898742496","4397972.0"
"1572898742538","4380594.0"
"1572898742595","4378908.0"
"1572898742642","4441496.0"
"1572898742685","4421030.0"
"1572898742734","4441356.0"
"1572898742782","4415892.0"
"1572898742832","4395648.0"
"1572898742881","4417666.0"
"1572898742929","4459867.0"
"1572898742979","4563955.0"
"1572898743026","4604990.0"
"1572898743075","4557249.0"
"1572898743123","4491838.0"
"1572898743179","4437786.0"
"1572898743219","4417950.0"
"1572898743276","4447187.0"
"1572898743320","4422489.0"
"1572898743374","4404827.0"
"1572898743420","4413891.0"
"1572898743468","4360342.0"
"1572898743517","4424072.0"
"1572898743559","4433048.0"
"1572898743611","4461348.0"
"1572898743663","4505386.0"
"1572898743710","4586274.0"
"1572898743762","4576619.0"
"1572898743808","4541669.0"
"1572898743860","4519003.0"
"1572898743901","4483303.0"
"1572898743956","4453831.0"
"1572898744001","4388790.0"
"1572898744052","4361404.0"
"1572898744100","4328431.0"
"1572898744146","4327046.0"
"1572898744200","4344643.0"
"1572898744242","4349750.0"
"1572898744297","4375552.0"
"1572898744339","4371059.0"
"1572898744392","4344982.0"
"1572898744443","4369080.0"
"1572898744494","4364448.0"
"1572898744540","4346124.0"
"1572898744584","4317549.0"
"1572898744633","4292646.0"
"1572898744680","4263834.0"
"1572898744731","4251138.0"
"1572898744781","4244740.0"
"1572898744828","4219544.0"
"1572898744876","4209393.0"
"1572898744925","4198590.0"
"1572898744973","4192207.0"
"1572898745020","4191126.0"
"1572898745070","4185390.0"
"1572898745121","4168659.0"
"1572898745176","4149896.0"
"1572898745222","4139816.0"
"1572898745267","4135001.0"
"1572898745319","4132912.0"
"1572898745369","4123140.0"
"1572898745417","4115764.0"
"1572898745464","4106662.0"
"1572898745512","4101973.0"
"1572898745562","4101634.0"
"1572898745605","4100183.0"
"1572898745660","4084445.0"
"1572898745709","4064475.0"
"1572898745758","4054593.0"
"1572898745803","4045326.0"
"1572898745850","4044655.0"
"1572898745898","4037516.0"
"1572898745947","4033907.0"
"1572898745995","4033828.0"
"1572898746045","4028769.0"
"1572898746093","4028137.0"
"1572898746143","4031227.0"
"1572898746191","4022511.0"
"1572898746243","4004866.0"
"1572898746294","3995180.0"
"1572898746342","3989451.0"
"1572898746383","3989215.0"
"1572898746440","3987206.0"
"1572898746483","3981712.0"
"1572898746530","3982815.0"
"1572898746586","3978993.0"
"1572898746629","3978339.0"
"1572898746681","3980160.0"
"1572898746731","3974383.0"
"1572898746779","3958172.0"
"1572898746822","3945981.0"
"1572898746871","3940024.0"
"1572898746926","3939228.0"
"1572898746972","3940796.0"
"1572898747021","3935303.0"
"1572898747066","3932710.0"
"1572898747113","3931394.0"
"1572898747165","3932160.0"
"1572898747212","3933192.0"
"1572898747260","3935957.0"
"1572898747310","3923734.0"
"1572898747357","3911007.0"
"1572898747406","3908935.0"
"1572898747461","3911037.0"
"1572898747505","3913947.0"
"1572898747559","3917681.0"
"1572898747603","3917145.0"
"1572898747650","3916980.0"
"1572898747697","3918675.0"
"1572898747757","3921237.0"
"1572898747802","3918872.0"
"1572898747842","3909849.0"
"1572898747898","3898689.0"
"1572898747947","3888247.0"
"1572898747998","3887664.0"
"1572898748045","3887829.0"
"1572898748091","3883920.0"
"1572898748138","3885064.0"
"1572898748184","3883944.0"
"1572898748242","3883457.0"
"1572898748285","3888144.0"
"1572898748331","3895206.0"
"1572898748380","3889745.0"
"1572898748430","3877782.0"
"1572898748476","3872140.0"
"1572898748527","3870153.0"
"1572898748575","3869287.0"
"1572898748627","3867773.0"
"1572898748672","3868491.0"
"1572898748722","3868885.0"
"1572898748771","3872422.0"
"1572898748823","3877869.0"
"1572898748869","3884930.0"
"1572898748920","3892668.0"
"1572898748968","3892794.0"
"1572898749020","3894292.0"
"1572898749069","3897602.0"
"1572898749110","3904002.0"
"1572898749163","3907169.0"
"1572898749213","3912181.0"
"1572898749260","3916225.0"
"1572898749308","3918587.0"
"1572898749353","3923907.0"
"1572898749407","3924404.0"
"1572898749454","3920495.0"
"1572898749498","3912962.0"
"1572898749549","3902488.0"
"1572898749595","3899595.0"
"1572898749646","3903473.0"
"1572898749693","3910337.0"
"1572898749742","3914174.0"
"1572898749792","3922710.0"
"1572898749839","3924049.0"
"1572898749890","3934689.0"
"1572898749942","3943720.0"
"1572898749988","3948858.0"
"1572898750040","3948464.0"
"1572898750086","3947786.0"
"1572898750132","3942672.0"
"1572898750186","3958812.0"
"1572898750232","3974651.0"
"1572898750283","4003620.0"
"1572898750328","4024348.0"
"1572898750381","4049345.0"
"1572898750429","4079969.0"
"1572898750478","4117859.0"
"1572898750527","4131415.0"
"1572898750569","4161676.0"
"1572898750618","4176548.0"
"1572898750670","4189519.0"
"1572898750716","4213965.0"
"1572898750764","4253352.0"
"1572898750813","4281077.0"
"1572898750862","4296870.0"
"1572898750913","4340246.0"
"1572898750964","4370389.0"
"1572898751022","4378782.0"
"1572898751062","4363414.0"
"1572898751109","4336944.0"
"1572898751160","4310867.0"
"1572898751201","4275718.0"
"1572898751250","4281031.0"
"1572898751301","4328267.0"
"1572898751351","4352310.0"
"1572898751398","4381626.0"
"1572898751453","4441914.0"
"1572898751496","4481326.0"
"1572898751545","4539997.0"
"1572898751593","4572308.0"
"1572898751642","4556107.0"
"1572898751691","4565113.0"
"1572898751745","4559132.0"
"1572898751789","4527924.0"
"1572898751843","4507631.0"
"1572898751891","4490136.0"
"1572898751932","4502950.0"
"1572898751986","4527845.0"
"1572898752031","4557043.0"
"1572898752087","4574657.0"
"1572898752130","4588040.0"
"1572898752183","4587708.0"
"1572898752232","4574555.0"
"1572898752279","4576083.0"
"1572898752328","4559030.0"
"1572898752375","4544971.0"
"1572898752425","4545152.0"
"1572898752471","4535025.0"
"1572898752518","4536742.0"
"1572898752566","4540541.0"
"1572898752615","4550653.0"
"1572898752664","4561615.0"
"1572898752713","4609089.0"
"1572898752761","4633321.0"
"1572898752814","4676500.0"
"1572898752862","4733541.0"
"1572898752912","4864954.0"
"1572898752955","4846053.0"
"1572898753011","4838334.0"
"1572898753052","4868492.0"
"1572898753103","4880902.0"
"1572898753153","4801156.0"
"1572898753207","4730752.0"
"1572898753254","4772352.0"
"1572898753303","4806544.0"
"1572898753352","4850921.0"
"1572898753399","4882525.0"
"1572898753448","4926506.0"
"1572898753499","4994466.0"
"1572898753547","5037949.0"
"1572898753592","4996786.0"
"1572898753649","4962155.0"
"1572898753687","4920305.0"
"1572898753733","4904557.0"
"1572898753782","4921002.0"
"1572898753831","4937346.0"
"1572898753881","4987568.0"
"1572898753932","4979600.0"
"1572898753975","4981223.0"
"1572898754029","5031312.0"
"1572898754076","5087892.0"
"1572898754125","5096951.0"
"1572898754175","5054854.0"
"1572898754220","4993883.0"
"1572898754273","4953616.0"
"1572898754317","4958807.0"
"1572898754368","4964589.0"
"1572898754417","4985114.0"
"1572898754465","5001248.0"
"1572898754512","5013461.0"
"1572898754561","5022510.0"
"1572898754615","5025997.0"
"1572898754658","5036377.0"
"1572898754709","5056142.0"
"1572898754758","5072652.0"
"1572898754807","5036897.0"
"1572898754855","4966649.0"
"1572898754904","4901166.0"
"1572898754955","4836992.0"
"1572898755001","4776376.0"
"1572898755050","4743828.0"
"1572898755098","4717748.0"
"1572898755148","4690712.0"
"1572898755195","4658744.0"
"1572898755245","4639553.0"
"1572898755292","4630960.0"
"1572898755342","4634705.0"
"1572898755394","4643963.0"
"1572898755438","4629461.0"
"1572898755493","4619755.0"
"1572898755536","4616387.0"
"1572898755586","4614867.0"
"1572898755632","4609269.0"
"1572898755682","4591481.0"
"1572898755734","4571633.0"
"1572898755780","4558600.0"
"1572898755829","4550662.0"
"1572898755877","4532207.0"
"1572898755931","4506057.0"
"1572898755973","4472072.0"
"1572898756024","4456779.0"
"1572898756075","4460993.0"
"1572898756120","4480030.0"
"1572898756168","4463833.0"
"1572898756217","4446366.0"
"1572898756267","4431055.0"
"1572898756316","4420693.0"
"1572898756364","4404922.0"
"1572898756415","4404069.0"
"1572898756461","4430014.0"
"1572898756510","4466507.0"
"1572898756558","4499098.0"
"1572898756609","4527766.0"
"1572898756655","4554292.0"
"1572898756704","4552472.0"
"1572898756754","4542933.0"
"1572898756802","4511132.0"
"1572898756852","4487779.0"
"1572898756900","4469564.0"
"1572898756951","4433466.0"
"1572898757000","4408366.0"
"1572898757047","4381403.0"
"1572898757093","4358060.0"
"1572898757150","4339949.0"
"1572898757196","4321722.0"
"1572898757247","4299950.0"
"1572898757292","4292128.0"
"1572898757341","4289227.0"
"1572898757395","4306234.0"
"1572898757440","4323139.0"
"1572898757487","4339323.0"
"1572898757540","4339147.0"
"1572898757588","4338856.0"
"1572898757631","4368203.0"
"1572898757677","4381933.0"
"1572898757735","4388632.0"
"1572898757777","4403758.0"
"1572898757830","4427704.0"
"1572898757879","4442621.0"
"1572898757924","4462843.0"
"1572898757971","4476046.0"
"1572898758019","4488569.0"
"1572898758068","4498182.0"
"1572898758117","4505100.0"
"1572898758167","4500752.0"
"1572898758217","4490400.0"
"1572898758263","4485896.0"
"1572898758319","4491534.0"
"1572898758364","4495528.0"
"1572898758414","4510789.0"
"1572898758459","4523314.0"
"1572898758512","4544379.0"
"1572898758562","4560367.0"
"1572898758606","4578895.0"
"1572898758652","4585864.0"
"1572898758700","4594031.0"
"1572898758751","4586280.0"
"1572898758798","4575036.0"
"1572898758851","4563177.0"
"1572898758896","4561668.0"
"1572898758952","4559390.0"
"1572898759003","4555926.0"
"1572898759049","4558933.0"
"1572898759098","4558890.0"
"1572898759147","4557840.0"
"1572898759197","4555375.0"
"1572898759238","4554896.0"
"1572898759291","4568712.0"
"1572898759337","4579622.0"
"1572898759385","4592022.0"
"1572898759433","4590608.0"
"1572898759482","4589267.0"
"1572898759531","4579915.0"
"1572898759580","4558829.0"
"1572898759630","4535767.0"
"1572898759679","4513068.0"
"1572898759726","4493624.0"
"1572898759775","4479624.0"
"1572898759823","4461990.0"
"1572898759873","4437357.0"
"1572898759925","4397340.0"
"1572898759974","4354314.0"
"1572898760024","4337212.0"
"1572898760064","4317791.0"
"1572898760115","4296226.0"
"1572898760168","4280352.0"
"1572898760219","4257873.0"
"1572898760260","4242009.0"
"1572898760317","4232324.0"
"1572898760361","4233717.0"
"1572898760413","4247480.0"
"1572898760465","4249144.0"
"1572898760507","4224075.0"
"1572898760554","4199566.0"
"1572898760600","4173486.0"
"1572898760655","4151787.0"
"1572898760700","4107536.0"
"1572898760750","4064572.0"
"1572898760796","3974018.0"
"1572898760845","3940782.0"
"1572898760894","3907098.0"
"1572898760942","3872042.0"
"1572898760993","3854191.0"
"1572898761041","3833959.0"
"1572898761089","3814184.0"
"1572898761141","3783641.0"
"1572898761193","3762182.0"
"1572898761241","3745091.0"
"1572898761284","3736413.0"
"1572898761338","3730807.0"
"1572898761380","3726116.0"
"1572898761436","3718209.0"
"1572898761485","3719655.0"
"1572898761531","3727447.0"
"1572898761582","3728530.0"
"1572898761623","3728310.0"
"1572898761674","3734708.0"
"1572898761722","3746141.0"
"1572898761770","3751113.0"
"1572898761821","3748689.0"
"1572898761866","3732087.0"
"1572898761915","3711292.0"
"1572898761964","3700640.0"
"1572898762013","3693171.0"
"1572898762060","3690808.0"
"1572898762111","3681125.0"
"1572898762166","3677921.0"
"1572898762214","3680989.0"
"1572898762263","3683049.0"
"1572898762310","3692235.0"
"1572898762360","3709856.0"
"1572898762401","3713050.0"
"1572898762456","3724659.0"
"1572898762506","3741273.0"
"1572898762549","3745361.0"
"1572898762597","3755190.0"
"1572898762649","3770024.0"
"1572898762694","3787948.0"
"1572898762742","3802408.0"
"1572898762797","3811594.0"
"1572898762843","3824887.0"
"1572898762891","3843738.0"
"1572898762944","3849281.0"
"1572898762991","3848970.0"
"1572898763034","3810397.0"
"1572898763084","3800795.0"
"1572898763132","3808971.0"
"1572898763183","3816929.0"
"1572898763230","3830215.0"
"1572898763277","3839410.0"
"1572898763327","3834406.0"
"1572898763375","3807276.0"
"1572898763429","3778679.0"
"1572898763476","3748179.0"
"1572898763524","3724899.0"
"1572898763573","3716794.0"
"1572898763618","3714641.0"
"1572898763671","3720602.0"
"1572898763719","3746005.0"
"1572898763762","3775506.0"
"1572898763817","3808316.0"
"1572898763865","3822567.0"
"1572898763915","3835060.0"
"1572898763963","3852424.0"
"1572898764015","3862983.0"
"1572898764062","3861463.0"
"1572898764105","3857698.0"
"1572898764154","3856729.0"
"1572898764204","3864084.0"
"1572898764252","3868838.0"
"1572898764300","3873926.0"
"1572898764349","3903083.0"
"1572898764397","3929443.0"
"1572898764446","3944443.0"
"1572898764501","3970253.0"
"1572898764543","3998787.0"
"1572898764593","4049259.0"
"1572898764644","4082570.0"
"1572898764695","4085357.0"
"1572898764737","4038213.0"
"1572898764787","4028361.0"
"1572898764835","4017147.0"
"1572898764885","3986241.0"
"1572898764933","4007068.0"
"1572898764988","4033292.0"
"1572898765038","4057000.0"
"1572898765086","4084951.0"
"1572898765129","4091306.0"
"1572898765183","4142145.0"
"1572898765224","4209865.0"
"1572898765281","4279084.0"
"1572898765326","4302021.0"
"1572898765379","4284399.0"
"1572898765424","4247096.0"
"1572898765471","4232303.0"
"1572898765517","4204507.0"
"1572898765566","4198859.0"
"1572898765615","4241759.0"
"1572898765666","4313880.0"
"1572898765711","4360565.0"
"1572898765761","4436079.0"
"1572898765810","4515252.0"
"1572898765858","4554042.0"
"1572898765907","4538512.0"
"1572898765966","4517280.0"
"1572898766013","4521441.0"
"1572898766061","4505224.0"
"1572898766103","4445939.0"
"1572898766151","4400471.0"
"1572898766205","4384544.0"
"1572898766248","4381433.0"
"1572898766303","4382401.0"
"1572898766346","4376252.0"
"1572898766400","4361606.0"
"1572898766449","4348728.0"
"1572898766500","4334862.0"
"1572898766546","4323992.0"
"1572898766587","4318041.0"
"1572898766636","4311633.0"
"1572898766687","4292512.0"
"1572898766734","4260390.0"
"1572898766783","4229629.0"
"1572898766832","4209137.0"
"1572898766880","4198735.0"
"1572898766931","4187239.0"
"1572898766976","4173498.0"
"1572898767026","4159985.0"
"1572898767080","4150790.0"
"1572898767123","4149156.0"
"1572898767176","4148532.0"
"1572898767226","4146492.0"
"1572898767270","4142675.0"
"1572898767323","4118666.0"
"1572898767368","4082216.0"
"1572898767422","4064906.0"
"1572898767470","4055960.0"
"1572898767517","4050228.0"
"1572898767568","4045795.0"
"1572898767611","4032918.0"
"1572898767665","4028454.0"
"1572898767708","4023192.0"
"1572898767763","4021443.0"
"1572898767810","4027030.0"
"1572898767859","4026884.0"
"1572898767909","4017271.0"
"1572898767952","3983309.0"
"1572898768001","3948751.0"
"1572898768051","3930786.0"
"1572898768097","3924711.0"
"1572898768149","3919758.0"
"1572898768195","3911155.0"
"1572898768243","3900609.0"
"1572898768292","3894897.0"
"1572898768341","3893367.0"
"1572898768389","3891683.0"
"1572898768445","3897352.0"
"1572898768496","3900369.0"
"1572898768541","3878107.0"
"1572898768582","3840908.0"
"1572898768633","3820696.0"
"1572898768684","3809491.0"
"1572898768736","3805986.0"
"1572898768785","3801035.0"
"1572898768829","3794553.0"
"1572898768881","3786949.0"
"1572898768942","3788842.0"
"1572898768976","3795313.0"
"1572898769028","3800265.0"
"1572898769070","3822401.0"
"1572898769119","3868308.0"
"1572898769169","3916399.0"
"1572898769223","3914786.0"
"1572898769272","3922017.0"
"1572898769318","3943226.0"
"1572898769363","3968422.0"
"1572898769412","3999806.0"
"1572898769459","4021319.0"
"1572898769511","4048459.0"
"1572898769557","4048262.0"
"1572898769606","4052870.0"
"1572898769653","4061151.0"
"1572898769703","4076389.0"
"1572898769754","4095280.0"
"1572898769808","4107723.0"
"1572898769852","4107192.0"
"1572898769902","4109667.0"
"1572898769951","4123056.0"
"1572898770001","4139761.0"
"1572898770051","4143018.0"
"1572898770094","4136131.0"
"1572898770148","4119736.0"
"1572898770195","4128985.0"
"1572898770244","4144932.0"
"1572898770296","4179604.0"
"1572898770340","4209564.0"
"1572898770392","4237214.0"
"1572898770440","4261991.0"
"1572898770489","4278251.0"
"1572898770535","4277938.0"
"1572898770580","4266225.0"
"1572898770634","4269722.0"
"1572898770676","4278802.0"
"1572898770726","4318894.0"
"1572898770774","4352796.0"
"1572898770822","4375702.0"
"1572898770871","4390109.0"
"1572898770925","4373028.0"
"1572898770972","4338763.0"
"1572898771017","4312007.0"
"1572898771073","4292264.0"
"1572898771114","4274797.0"
"1572898771169","4256020.0"
"1572898771213","4224211.0"
"1572898771268","4170908.0"
"1572898771316","4133833.0"
"1572898771357","4109917.0"
"1572898771411","4090548.0"
"1572898771461","4077379.0"
"1572898771512","4058581.0"
"1572898771553","4044434.0"
"1572898771600","4029391.0"
"1572898771652","4022826.0"
"1572898771698","4021329.0"
"1572898771753","4017294.0"
"1572898771794","4018448.0"
"1572898771844","4020591.0"
"1572898771891","4010292.0"
"1572898771941","3970253.0"
"1572898771995","3931097.0"
"1572898772255","3907618.0"
"1572898772255","3889227.0"
"1572898772255","3882038.0"
"1572898772255","3875340.0"
"1572898772255","3860819.0"
"1572898772371","3850697.0"
"1572898772371","3844226.0"
"1572898772437","3843945.0"
"1572898772475","3844569.0"
"1572898772533","3847253.0"
"1572898772573","3847556.0"
"1572898772623","3852257.0"
"1572898772673","3830546.0"
"1572898772719","3787979.0"
"1572898772771","3761235.0"
"1572898772821","3745162.0"
"1572898772874","3737443.0"
"1572898772918","3733105.0"
"1572898772969","3722183.0"
"1572898773017","3712207.0"
"1572898773066","3707901.0"
"1572898773110","3708899.0"
"1572898773162","3715130.0"
"1572898773213","3718989.0"
"1572898773259","3721445.0"
"1572898773311","3729381.0"
"1572898773353","3731921.0"
"1572898773408","3721756.0"
"1572898773453","3683829.0"
"1572898773499","3661671.0"
"1572898773548","3654786.0"
"1572898773596","3656200.0"
"1572898773645","3657199.0"
"1572898773694","3654483.0"
"1572898773741","3649054.0"
"1572898773791","3650458.0"
"1572898773838","3655316.0"
"1572898773893","3663014.0"
"1572898773937","3670680.0"
"1572898773989","3682903.0"
"1572898774036","3690611.0"
"1572898774088","3701524.0"
"1572898774132","3700703.0"
"1572898774186","3669182.0"
"1572898774231","3637589.0"
"1572898774280","3624576.0"
"1572898774332","3625492.0"
"1572898774375","3624586.0"
"1572898774438","3620291.0"
"1572898774471","3616463.0"
"1572898774525","3619303.0"
"1572898774571","3622485.0"
"1572898774617","3629173.0"
"1572898774672","3639619.0"
"1572898774716","3649958.0"
"1572898774763","3659790.0"
"1572898774813","3668673.0"
"1572898774860","3679075.0"
"1572898774910","3689165.0"
"1572898774959","3660090.0"
"1572898775006","3634178.0"
"1572898775055","3622891.0"
"1572898775103","3625055.0"
"1572898775158","3632514.0"
"1572898775207","3639192.0"
"1572898775253","3634988.0"
"1572898775302","3634407.0"
"1572898775351","3641409.0"
"1572898775400","3648512.0"
"1572898775450","3663835.0"
"1572898775496","3671440.0"
"1572898775558","3684484.0"
"1572898775595","3696209.0"
"1572898775646","3704385.0"
"1572898775692","3716587.0"
"1572898775735","3728081.0"
"1572898775790","3708692.0"
"1572898775837","3685607.0"
"1572898775885","3678441.0"
"1572898775931","3677005.0"
"1572898775979","3681769.0"
"1572898776029","3688187.0"
"1572898776077","3685867.0"
"1572898776126","3684703.0"
"1572898776176","3688864.0"
"1572898776222","3695386.0"
"1572898776272","3705352.0"
"1572898776320","3721912.0"
"1572898776376","3730818.0"
"1572898776415","3742573.0"
"1572898776475","3747691.0"
"1572898776519","3759674.0"
"1572898776568","3745694.0"
"1572898776614","3721081.0"
"1572898776660","3714121.0"
"1572898776713","3713871.0"
"1572898776761","3719478.0"
"1572898776813","3727737.0"
"1572898776858","3726437.0"
"1572898776905","3726626.0"
"1572898776955","3733648.0"
"1572898777004","3737299.0"
"1572898777051","3747098.0"
"1572898777100","3759695.0"
"1572898777149","3768766.0"
"1572898777198","3779252.0"
"1572898777245","3788645.0"
"1572898777294","3801472.0"
"1572898777346","3797341.0"
"1572898777398","3771908.0"
"1572898777441","3750363.0"
"1572898777492","3745225.0"
"1572898777541","3743207.0"
"1572898777591","3750332.0"
"1572898777635","3750280.0"
"1572898777688","3746692.0"
"1572898777738","3748648.0"
"1572898777779","3751102.0"
"1572898777834","3760611.0"
"1572898777879","3770170.0"
"1572898777937","3775485.0"
"1572898777981","3786388.0"
"1572898778027","3796207.0"
"1572898778079","3807443.0"
"1572898778121","3817616.0"
"1572898778174","3815661.0"
"1572898778220","3787906.0"
"1572898778274","3765770.0"
"1572898778321","3759809.0"
"1572898778364","3760184.0"
"1572898778412","3762972.0"
"1572898778463","3764106.0"
"1572898778511","3758010.0"
"1572898778559","3761359.0"
"1572898778606","3765999.0"
"1572898778656","3770493.0"
"1572898778704","3780823.0"
"1572898778753","3787782.0"
"1572898778800","3796020.0"
"1572898778856","3809460.0"
"1572898778900","3811344.0"
"1572898778952","3819333.0"
"1572898779002","3806132.0"
"1572898779048","3778606.0"
"1572898779100","3766676.0"
"1572898779148","3765416.0"
"1572898779198","3770254.0"
"1572898779241","3776069.0"
"1572898779287","3768953.0"
"1572898779335","3767570.0"
"1572898779391","3768380.0"
"1572898779439","3773001.0"
"1572898779480","3781310.0"
"1572898779539","3788958.0"
"1572898779581","3801845.0"
"1572898779628","3808857.0"
"1572898779676","3816502.0"
"1572898779725","3810084.0"
"1572898779774","3782977.0"
"1572898779823","3761932.0"
"1572898779872","3756804.0"
"1572898779921","3757895.0"
"1572898779969","3757271.0"
"1572898780016","3756220.0"
"1572898780071","3751019.0"
"1572898780115","3755753.0"
"1572898780170","3751060.0"
"1572898780219","3759061.0"
"1572898780261","3769630.0"
"1572898780317","3775319.0"
"1572898780357","3784474.0"
"1572898780406","3790435.0"
"1572898780461","3797674.0"
"1572898780503","3794856.0"
"1572898780560","3761651.0"
"1572898780603","3738546.0"
"1572898780653","3728060.0"
"1572898780705","3724180.0"
"1572898780751","3721081.0"
"1572898780801","3720539.0"
"1572898780848","3712676.0"
"1572898780899","3710969.0"
"1572898780943","3715598.0"
"1572898780997","3719509.0"
"1572898781042","3727447.0"
"1572898781093","3735645.0"
"1572898781138","3744705.0"
"1572898781185","3752443.0"
"1572898781234","3760318.0"
"1572898781283","3755003.0"
"1572898781332","3721612.0"
"1572898781378","3702584.0"
"1572898781430","3694409.0"
"1572898781476","3690040.0"
"1572898781525","3696623.0"
"1572898781574","3694012.0"
"1572898781622","3687064.0"
"1572898781677","3688624.0"
"1572898781726","3690611.0"
"1572898781770","3699017.0"
"1572898781823","3704592.0"
"1572898781869","3715640.0"
"1572898781921","3722630.0"
"1572898781968","3732232.0"
"1572898782015","3732252.0"
"1572898782062","3709035.0"
"1572898782110","3685774.0"
"1572898782156","3673821.0"
"1572898782209","3676131.0"
"1572898782261","3677431.0"
"1572898782308","3678472.0"
"1572898782352","3675194.0"
"1572898782403","3673656.0"
"1572898782448","3677192.0"
"1572898782498","3680656.0"
"1572898782549","3689478.0"
"1572898782595","3693452.0"
"1572898782662","3705331.0"
"1572898782695","3713330.0"
"1572898782762","3710325.0"
"1572898782790","3682320.0"
"1572898782838","3667415.0"
"1572898782889","3662317.0"
"1572898782942","3666269.0"
"1572898782984","3670993.0"
"1572898783040","3672116.0"
"1572898783085","3669816.0"
"1572898783131","3669660.0"
"1572898783185","3676578.0"
"1572898783233","3685359.0"
"1572898783283","3695335.0"
"1572898783325","3705134.0"
"1572898783379","3716494.0"
"1572898783426","3713123.0"
"1572898783475","3683892.0"
"1572898783526","3662035.0"
"1572898783573","3651685.0"
"1572898783616","3649741.0"
"1572898783665","3650688.0"
"1572898783714","3655596.0"
"1572898783765","3649241.0"
"1572898783812","3648855.0"
"1572898783860","3651175.0"
"1572898783909","3657573.0"
"1572898783957","3665562.0"
"1572898784008","3674280.0"
"1572898784054","3684599.0"
"1572898784107","3687324.0"
"1572898784152","3661433.0"
"1572898784206","3640179.0"
"1572898784255","3649678.0"
"1572898784303","3681655.0"
"1572898784346","3709409.0"
"1572898784401","3724097.0"
"1572898784679","3740970.0"
"1572898784679","3760589.0"
"1572898784679","3789135.0"
"1572898784680","3819353.0"
"1572898784685","3847649.0"
"1572898784724","3866945.0"
"1572898784743","3888270.0"
"1572898784820","3894855.0"
"1572898784835","3898402.0"
"1572898784881","3869161.0"
"1572898784933","3844028.0"
"1572898784981","3835780.0"
"1572898785031","3823930.0"
"1572898785084","3823297.0"
"1572898785126","3816659.0"
"1572898785173","3819739.0"
"1572898785223","3833772.0"
"1572898785271","3853131.0"
"1572898785320","3885889.0"
"1572898785370","3916887.0"
"1572898785417","3938878.0"
"1572898785465","3942999.0"
"1572898785514","3935695.0"
"1572898785570","3907275.0"
"1572898785613","3850156.0"
"1572898785669","3802959.0"
"1572898785711","3774145.0"
"1572898785764","3760339.0"
"1572898785809","3756074.0"
"1572898785861","3742770.0"
"1572898785911","3730911.0"
"1572898785953","3726520.0"
"1572898786007","3720632.0"
"1572898786052","3722475.0"
"1572898786101","3726167.0"
"1572898786149","3733678.0"
"1572898786202","3738660.0"
"1572898786251","3729288.0"
"1572898786296","3691381.0"
"1572898786344","3650052.0"
"1572898786389","3628476.0"
"1572898786445","3616587.0"
"1572898786490","3611688.0"
"1572898786541","3604593.0"
"1572898786584","3595688.0"
"1572898786847","3589666.0"
"1572898786847","3588603.0"
"1572898786847","3586700.0"
"1572898786847","3593921.0"
"1572898786847","3600826.0"
"1572898786905","3607881.0"
"1572898787037","3606997.0"
"1572898787037","3568018.0"
"1572898787037","3533346.0"
"1572898787082","3516172.0"
"1572898787121","3506340.0"
"1572898787170","3507787.0"
"1572898787223","3506019.0"
"1572898787273","3499184.0"
"1572898787318","3496531.0"
"1572898787365","3498810.0"
"1572898787410","3501035.0"
"1572898787466","3514008.0"
"1572898787511","3521767.0"
"1572898787561","3531526.0"
"1572898787605","3525804.0"
"1572898787659","3487294.0"
"1572898787710","3456867.0"
"1572898787750","3445995.0"
"1572898787800","3446932.0"
"1572898787853","3450760.0"
"1572898787897","3450042.0"
"1572898787947","3446828.0"
"1572898787994","3447712.0"
"1572898788044","3450166.0"
"1572898788093","3456357.0"
"1572898788141","3470037.0"
"1572898788191","3478129.0"
"1572898788237","3476362.0"
"1572898788291","3441263.0"
"1572898788336","3415121.0"
"1572898788387","3406405.0"
"1572898788432","3409806.0"
"1572898788488","3415808.0"
"1572898788535","3415330.0"
"1572898788576","3412417.0"
"1572898788629","3413904.0"
"1572898788682","3420779.0"
"1572898788732","3430611.0"
"1572898788773","3446068.0"
"1572898788822","3456597.0"
"1572898788872","3447992.0"
"1572898788919","3407766.0"
"1572898788968","3378838.0"
"1572898789016","3369559.0"
"1572898789066","3370599.0"
"1572898789113","3375654.0"
"1572898789162","3374864.0"
"1572898789210","3373354.0"
"1572898789266","3372950.0"
"1572898789311","3327384.0"
"1572898789357","3332349.0"
"1572898789413","3345865.0"
"1572898789453","3358742.0"
"1572898789510","3360729.0"
"1572898789553","3327589.0"
"1572898789601","3294073.0"
"1572898789653","3279825.0"
"1572898789705","3275160.0"
"1572898789754","3281944.0"
"1572898789795","3284813.0"
"1572898789841","3284845.0"
"1572898789892","3283301.0"
"1572898789940","3286499.0"
"1572898789994","3298117.0"
"1572898790037","3308470.0"
"1572898790088","3318550.0"
"1572898790148","3331687.0"
"1572898790184","3342264.0"
"1572898790234","3349623.0"
"1572898790287","3317006.0"
"1572898790338","3279628.0"
"1572898790384","3267191.0"
"1572898790431","3264662.0"
"1572898790480","3269784.0"
"1572898790530","3270974.0"
"1572898790573","3267271.0"
"1572898790621","3267492.0"
"1572898790675","3273788.0"
"1572898790726","3283206.0"
"1572898790771","3295776.0"
"1572898790821","3305870.0"
"1572898790871","3320441.0"
"1572898790914","3329127.0"
"1572898790968","3342059.0"
"1572898791014","3314153.0"
"1572898791058","3273764.0"
"1572898791106","3254276.0"
"1572898791156","3251809.0"
"1572898791205","3255600.0"
"1572898791254","3256718.0"
"1572898791302","3250123.0"
"1572898791352","3251226.0"
"1572898791400","3259367.0"
"1572898791448","3271029.0"
"1572898791503","3285948.0"
"1572898791554","3302040.0"
"1572898791594","3312963.0"
"1572898791650","3329064.0"
"1572898791695","3343020.0"
"1572898791740","3356661.0"
"1572898791793","3337323.0"
"1572898791841","3298722.0"
"1572898791893","3276074.0"
"1572898791940","3273354.0"
"1572898791989","3277263.0"
"1572898792040","3286595.0"
"1572898792081","3288588.0"
"1572898792130","3290077.0"
"1572898792181","3295689.0"
"1572898792233","3308613.0"
"1572898792275","3322727.0"
"1572898792323","3337307.0"
"1572898792374","3352139.0"
"1572898792420","3366678.0"
"1572898792470","3380760.0"
"1572898792518","3397004.0"
"1572898792567","3381124.0"
"1572898792616","3344958.0"
"1572898792664","3329724.0"
"1572898792718","3325919.0"
"1572898792768","3330844.0"
"1572898792816","3337858.0"
"1572898792862","3340940.0"
"1572898792912","3339719.0"
"1572898792958","3344329.0"
"1572898793010","3357505.0"
"1572898793057","3371329.0"
"1572898793101","3387144.0"
"1572898793155","3399509.0"
"1572898793198","3416626.0"
"1572898793251","3428085.0"
"1572898793301","3426241.0"
"1572898793352","3392772.0"
"1572898793396","3371942.0"
"1572898793449","3373478.0"
"1572898793496","3376530.0"
"1572898793547","3387215.0"
"1572898793595","3391116.0"
"1572898793643","3393141.0"
"1572898793694","3396758.0"
"1572898793737","3406246.0"
"1572898793783","3420346.0"
"1572898793833","3433350.0"
"1572898793881","3452097.0"
"1572898793930","3465795.0"
"1572898793979","3479159.0"
"1572898794028","3460246.0"
"1572898794079","3423971.0"
"1572898794125","3408012.0"
"1572898794180","3404245.0"
"1572898794227","3408312.0"
"1572898794277","3416769.0"
"1572898794323","3418660.0"
"1572898794373","3418463.0"
"1572898794416","3421984.0"
"1572898794473","3433845.0"
"1572898794517","3443309.0"
"1572898794560","3460033.0"
"1572898794613","3472176.0"
"1572898794660","3485826.0"
"1572898794713","3499658.0"
"1572898794758","3484722.0"
"1572898794812","3447289.0"
"1572898794860","3429117.0"
"1572898794908","3422126.0"
"1572898794952","3425808.0"
"1572898795000","3427328.0"
"1572898795050","3426509.0"
"1572898795099","3424097.0"
"1572898795148","3423095.0"
"1572898795199","3432309.0"
"1572898795245","3439928.0"
"1572898795293","3449016.0"
"1572898795342","3459293.0"
"1572898795399","3471815.0"
"1572898795437","3479584.0"
"1572898795492","3471374.0"
"1572898795541","3434949.0"
"1572898795593","3411661.0"
"1572898795635","3410180.0"
"1572898795681","3416460.0"
"1572898795738","3419849.0"
"1572898795778","3421954.0"
"1572898795834","3417973.0"
"1572898795881","3420149.0"
"1572898795933","3429392.0"
"1572898795974","3435871.0"
"1572898796022","3445841.0"
"1572898796072","3461593.0"
"1572898796121","3471010.0"
"1572898796167","3465589.0"
"1572898796221","3422301.0"
"1572898796267","3385126.0"
"1572898796312","3375687.0"
"1572898796360","3372186.0"
"1572898796414","3372407.0"
"1572898796461","3370554.0"
"1572898796510","3366393.0"
"1572898796561","3361950.0"
"1572898796606","3366590.0"
"1572898796655","3372895.0"
"1572898796703","3384338.0"
"1572898796753","3393946.0"
"1572898796802","3405846.0"
"1572898796854","3407256.0"
"1572898796901","3366576.0"
"1572898796953","3326951.0"
"1572898796996","3314964.0"
"1572898797049","3310277.0"
"1572898797100","3310433.0"
"1572898797148","3313869.0"
"1572898797198","3309543.0"
"1572898797241","3305098.0"
"1572898797293","3307879.0"
"1572898797343","3318109.0"
"1572898797388","3324934.0"
"1572898797439","3336393.0"
"1572898797480","3348252.0"
"1572898797536","3357734.0"
"1572898797582","3340395.0"
"1572898797628","3303269.0"
"1572898797683","3278620.0"
"1572898797732","3275562.0"
"1572898797779","3276058.0"
"1572898797826","3279904.0"
"1572898797878","3278675.0"
"1572898797921","3273805.0"
"1572898797973","3278815.0"
"1572898798020","3283630.0"
"1572898798067","3296225.0"
"1572898798114","3308511.0"
"1572898798170","3319086.0"
"1572898798217","3329418.0"
"1572898798261","3321427.0"
"1572898798310","3283844.0"
"1572898798357","3265048.0"
"1572898798406","3261486.0"
"1572898798455","3265932.0"
"1572898798504","3274363.0"
"1572898798554","3274615.0"
"1572898798601","3271527.0"
"1572898798650","3276972.0"
"1572898798703","3283616.0"
"1572898798746","3297533.0"
"1572898798801","3309984.0"
"1572898798848","3325478.0"
"1572898798899","3336015.0"
"1572898798942","3315303.0"
"1572898798996","3279817.0"
"1572898799042","3259138.0"
"1572898799094","3253117.0"
"1572898799139","3256096.0"
"1572898799191","3261399.0"
"1572898799240","3260407.0"
"1572898799283","3261872.0"
"1572898799339","3265647.0"
"1572898799385","3275341.0"
"1572898799429","3288691.0"
"1572898799477","3301678.0"
"1572898799526","3315675.0"
"1572898799574","3326833.0"
"1572898799623","3320915.0"
"1572898799672","3287840.0"
"1572898799724","3265970.0"
"1572898799770","3258042.0"
"1572898799818","3260769.0"
"1572898799868","3268130.0"
"1572898799922","3271582.0"
"1572898799963","3272787.0"
"1572898800020","3279518.0"
"1572898800064","3285538.0"
"1572898800111","3297682.0"
"1572898800157","3312672.0"
"1572898800208","3324019.0"
"1572898800254","3336905.0"
"1572898800306","3347663.0"
"1572898800353","3351113.0"
"1572898800403","3322601.0"
"1572898800457","3298470.0"
"1572898800505","3292015.0"
"1572898800552","3298210.0"
"1572898800603","3301040.0"
"1572898800649","3305390.0"
"1572898800702","3304766.0"
"1572898800745","3309819.0"
"1572898800799","3314996.0"
"1572898800846","3329292.0"
"1572898800895","3339560.0"
"1572898800943","3352673.0"
"1572898800984","3366040.0"
"1572898801040","3376599.0"
"1572898801085","3374236.0"
"1572898801132","3344778.0"
"1572898801186","3326313.0"
"1572898801234","3321624.0"
"1572898801286","3321624.0"
"1572898801323","3327416.0"
"1572898801380","3331774.0"
"1572898801427","3333256.0"
"1572898801479","3336486.0"
"1572898801519","3345944.0"
"1572898801569","3357748.0"
"1572898801617","3370563.0"
"1572898801668","3385851.0"
"1572898801713","3398509.0"
"1572898801765","3410872.0"
"1572898801812","3404806.0"
"1572898801861","3372739.0"
"1572898801910","3354416.0"
"1572898801964","3346645.0"
"1572898802006","3348205.0"
"1572898802062","3353321.0"
"1572898802104","3354179.0"
"1572898802152","3359160.0"
"1572898802207","3364685.0"
"1572898802255","3374441.0"
"1572898802305","3386561.0"
"1572898802348","3397595.0"
"1572898802401","3411787.0"
"1572898802447","3424168.0"
"1572898802500","3438929.0"
"1572898802546","3431718.0"
"1572898802596","3400076.0"
"1572898802645","3382337.0"
"1572898802687","3377444.0"
"1572898802736","3379169.0"
"1572898802787","3383251.0"
"1572898802833","3384001.0"
"1572898802882","3369002.0"
"1572898802931","3391408.0"
"1572898803242","3419676.0"
"1572898803242","3463320.0"
"1572898803242","3507728.0"
"1572898803242","3582522.0"
"1572898803242","3652386.0"
"1572898803242","3680024.0"
"1572898803288","3704295.0"
"1572898803358","3707771.0"
"1572898803378","3689843.0"
"1572898803423","3686454.0"
"1572898803471","3698102.0"
"1572898803519","3734558.0"
"1572898803569","3767460.0"
"1572898803613","3781189.0"
"1572898803667","3789194.0"
"1572898803709","3788777.0"
"1572898803763","3787973.0"
"1572898803809","3802451.0"
"1572898803859","3821893.0"
"1572898803910","3827447.0"
"1572898803952","3838268.0"
"1572898804000","3846022.0"
"1572898804050","3838441.0"
"1572898804096","3790866.0"
"1572898804149","3746395.0"
"1572898804194","3717528.0"
"1572898804244","3690662.0"
"1572898804292","3677163.0"
"1572898804340","3662663.0"
"1572898804388","3647311.0"
"1572898804442","3632479.0"
"1572898804490","3628988.0"
"1572898804539","3623747.0"
"1572898804590","3626221.0"
"1572898804631","3621422.0"
"1572898804689","3620209.0"
"1572898804735","3619183.0"
"1572898804783","3586155.0"
"1572898804831","3536215.0"
"1572898804879","3506939.0"
"1572898804931","3486803.0"
"1572898804971","3477914.0"
"1572898805026","3472028.0"
"1572898805072","3461688.0"
"1572898805118","3449425.0"
"1572898805174","3442712.0"
"1572898805216","3444933.0"
"1572898805265","3448283.0"
"1572898805314","3453799.0"
"1572898805361","3458677.0"
"1572898805411","3470845.0"
"1572898805712","3460506.0"
"1572898805712","3418896.0"
"1572898805712","3387333.0"
"1572898805712","3376615.0"
"1572898805714","3371501.0"
"1572898805715","3373858.0"
"1572898805808","3374685.0"
"1572898805808","3368862.0"
"1572898805905","3367017.0"
"1572898805905","3371526.0"
"1572898805953","3380973.0"
"1572898805993","3389856.0"
"1572898806049","3401045.0"
"1572898806091","3410289.0"
"1572898806147","3390565.0"
"1572898806195","3357127.0"
"1572898806237","3341901.0"
"1572898806286","3339686.0"
"1572898806334","3348260.0"
"1572898806383","3352815.0"
"1572898806433","3352005.0"
"1572898806480","3351287.0"
"1572898806532","3355290.0"
"1572898806576","3366875.0"
"1572898806626","3379311.0"
"1572898806673","3391219.0"
"1572898806723","3402479.0"
"1572898806773","3385331.0"
"1572898806824","3354857.0"
"1572898806873","3338914.0"
"1572898806917","3340499.0"
"1572898806971","3347630.0"
"1572898807014","3355457.0"
"1572898807071","3356111.0"
"1572898807113","3354983.0"
"1572898807168","3360948.0"
"1572898807211","3368988.0"
"1572898807264","3383686.0"
"1572898807310","3400226.0"
"1572898807356","3411102.0"
"1572898807410","3392014.0"
"1572898807452","3360776.0"
"1572898807502","3351153.0"
"1572898807552","3350176.0"
"1572898807597","3356732.0"
"1572898807648","3363691.0"
"1572898807696","3365016.0"
"1572898807745","3368988.0"
"1572898807793","3374929.0"
"1572898807842","3385616.0"
"1572898807896","3399864.0"
"1572898807946","3414633.0"
"1572898807995","3428888.0"
"1572898808044","3439425.0"
"1572898808091","3412496.0"
"1572898808136","3384929.0"
"1572898808190","3376640.0"
"1572898808232","3376963.0"
"1572898808286","3386703.0"
"1572898808336","3392197.0"
"1572898808383","3389131.0"
"1572898808430","3391668.0"
"1572898808481","3395986.0"
"1572898808532","3409235.0"
"1572898808572","3417193.0"
"1572898808621","3430473.0"
"1572898808670","3444327.0"
"1572898808718","3454864.0"
"1572898808768","3465478.0"
"1572898808816","3440796.0"
"1572898808885","3414680.0"
"1572898808912","3406744.0"
"1572898808962","3410746.0"
"1572898809012","3420243.0"
"1572898809058","3424121.0"
"1572898809108","3424956.0"
"1572898809160","3427021.0"
"1572898809212","3435083.0"
"1572898809254","3445044.0"
"1572898809308","3455439.0"
"1572898809355","3468078.0"
"1572898809405","3484574.0"
"1572898809451","3493558.0"
"1572898809502","3492549.0"
"1572898809554","3462436.0"
"1572898809595","3436564.0"
"1572898809650","3432553.0"
"1572898809695","3433246.0"
"1572898809747","3440024.0"
"1572898809792","3441987.0"
"1572898809836","3441214.0"
"1572898809892","3443555.0"
"1572898809934","3449931.0"
"1572898809988","3461262.0"
"1572898810036","3470996.0"
"1572898810086","3480112.0"
"1572898810130","3495056.0"
"1572898810176","3501848.0"
"1572898810228","3479365.0"
"1572898810275","3447273.0"
"1572898810324","3433484.0"
"1572898810373","3426785.0"
"1572898810420","3431992.0"
"1572898810468","3436359.0"
"1572898810518","3432521.0"
"1572898810568","3433443.0"
"1572898810616","3435083.0"
"1572898810665","3444500.0"
"1572898810714","3452680.0"
"1572898810759","3462964.0"
"1572898810815","3475228.0"
"1572898810865","3482036.0"
"1572898810910","3482636.0"
"1572898810956","3451522.0"
"1572898811011","3419377.0"
"1572898811062","3409755.0"
"1572898811102","3408524.0"
"1572898811155","3415460.0"
"1572898811203","3415121.0"
"1572898811250","3411456.0"
"1572898811299","3408564.0"
"1572898811345","3414822.0"
"1572898811396","3421212.0"
"1572898811443","3431669.0"
"1572898811492","3442822.0"
"1572898811540","3453106.0"
"1572898811590","3455934.0"
"1572898811638","3427864.0"
"1572898811688","3402156.0"
"1572898811736","3392331.0"
"1572898811790","3393812.0"
"1572898811840","3402071.0"
"1572898811887","3404726.0"
"1572898811936","3402298.0"
"1572898811982","3402307.0"
"1572898812032","3406610.0"
"1572898812076","3414182.0"
"1572898812125","3424058.0"
"1572898812180","3437525.0"
"1572898812229","3447692.0"
"1572898812277","3430678.0"
"1572898812322","3391337.0"
"1572898812367","3366631.0"
"1572898812417","3357354.0"
"1572898812466","3356481.0"
"1572898812514","3359955.0"
"1572898812563","3356842.0"
"1572898812612","3356314.0"
"1572898812660","3352886.0"
"1572898812710","3358955.0"
"1572898812759","3367592.0"
"1572898812812","3379476.0"
"1572898812861","3390242.0"
"1572898812909","3396916.0"
"1572898812953","3377726.0"
"1572898813003","3339056.0"
"1572898813057","3317739.0"
"1572898813102","3306792.0"
"1572898813151","3307014.0"
"1572898813199","3309976.0"
"1572898813252","3309779.0"
"1572898813299","3306430.0"
"1572898813341","3310094.0"
"1572898813391","3316209.0"
"1572898813439","3326212.0"
"1572898813488","3336880.0"
"1572898813540","3348646.0"
"1572898813585","3359223.0"
"1572898813634","3370051.0"
"1572898813683","3354140.0"
"1572898813732","3312554.0"
"1572898813781","3289108.0"
"1572898813836","3281298.0"
"1572898813880","3283600.0"
"1572898813933","3288242.0"
"1572898813982","3287060.0"
"1572898814027","3282913.0"
"1572898814078","3283624.0"
"1572898814121","3290441.0"
"1572898814176","3301347.0"
"1572898814220","3316989.0"
"1572898814273","3330521.0"
"1572898814321","3341996.0"
"1572898814368","3353784.0"
"1572898814415","3360335.0"
"1572898814459","3333233.0"
"1572898814518","3308084.0"
"1572898814561","3301308.0"
"1572898814609","3306272.0"
"1572898814656","3312467.0"
"1572898814704","3320244.0"
"1572898814753","3320726.0"
"1572898814801","3323956.0"
"1572898814853","3335243.0"
"1572898814900","3344936.0"
"1572898814947","3362454.0"
"1572898814996","3372952.0"
"1572898815050","3390092.0"
"1572898815099","3403899.0"
"1572898815149","3416248.0"
"1572898815197","3402109.0"
"1572898815241","3367119.0"
"1572898815294","3347575.0"
"1572898815343","3340450.0"
"1572898815389","3342382.0"
"1572898815435","3349174.0"
"1572898815479","3354195.0"
"1572898815538","3355243.0"
"1572898815580","3359941.0"
"1572898815626","3368183.0"
"1572898815678","3381313.0"
"1572898815725","3395758.0"
"1572898815775","3408414.0"
"1572898815826","3424475.0"
"1572898815877","3438691.0"
"1572898815922","3451119.0"
"1572898815976","3441694.0"
"1572898816023","3408855.0"
"1572898816068","3392148.0"
"1572898816115","3389186.0"
"1572898816163","3390344.0"
"1572898816213","3398729.0"
"1572898816263","3403119.0"
"1572898816310","3404308.0"
"1572898816358","3407872.0"
"1572898816408","3416689.0"
"1572898816455","3427059.0"
"1572898816502","3438401.0"
"1572898816552","3450536.0"
"1572898816603","3462901.0"
"1572898816650","3472674.0"
"1572898816707","3485645.0"
"1572898816755","3497443.0"
"1572898816802","3475817.0"
"1572898816843","3447927.0"
"1572898816898","3439906.0"
"1572898816943","3443815.0"
"1572898816997","3452082.0"
"1572898817047","3457227.0"
"1572898817092","3460309.0"
"1572898817139","3463186.0"
"1572898817185","3466890.0"
"1572898817240","3477441.0"
"1572898817283","3490184.0"
"1572898817331","3501429.0"
"1572898817380","3515404.0"
"1572898817429","3527830.0"
"1572898817476","3540819.0"
"1572898817526","3540685.0"
"1572898817574","3511013.0"
"1572898817623","3483052.0"
"1572898817671","3475472.0"
"1572898817727","3474557.0"
"1572898817773","3481610.0"
"1572898817822","3483312.0"
"1572898817866","3482368.0"
"1572898817920","3483895.0"
"1572898817964","3486244.0"
"1572898818018","3494684.0"
"1572898818066","3506679.0"
"1572898818109","3520282.0"
"1572898818156","3532070.0"
"1572898818205","3539541.0"
"1572898818261","3552418.0"
"1572898818306","3561260.0"
"1572898818351","3539155.0"
"1572898818407","3500367.0"
"1572898818451","3482951.0"
"1572898818500","3475234.0"
"1572898818546","3475644.0"
"1572898818595","3480295.0"
"1572898818645","3475423.0"
"1572898818691","3474344.0"
"1572898818741","3475850.0"
"1572898818790","3480421.0"
"1572898818837","3485606.0"
"1572898818889","3498900.0"
"1572898818935","3509816.0"
"1572898818986","3518333.0"
"1572898819039","3527263.0"
"1572898819086","3537091.0"
"1572898819130","3542875.0"
"1572898819184","3518894.0"
"1572898819231","3481957.0"
"1572898819281","3463145.0"
"1572898819325","3459260.0"
"1572898819379","3463241.0"
"1572898819428","3461908.0"
"1572898819475","3457487.0"
"1572898819522","3453736.0"
"1572898819568","3453003.0"
"1572898819615","3458362.0"
"1572898819667","3466496.0"
"1572898819722","3471571.0"
"1572898819763","3483036.0"
"1572898819817","3492549.0"
"1572898819865","3499759.0"
"1572898819911","3496638.0"
"1572898819956","3465888.0"
"1572898820009","3442641.0"
"1572898820053","3435233.0"
"1572898820102","3436824.0"
"1572898820150","3442720.0"
"1572898820199","3445573.0"
"1572898820252","3440237.0"
"1572898820296","3441269.0"
"1572898820348","3445367.0"
"1572898820399","3454043.0"
"1572898820449","3464454.0"
"1572898820497","3474722.0"
"1572898820544","3486181.0"
"1572898820590","3498254.0"
"1572898820636","3495694.0"
"1572898820688","3459545.0"
"1572898820739","3427675.0"
"1572898820790","3418825.0"
"1572898820836","3414970.0"
"1572898820887","3420212.0"
"1572898820928","3424719.0"
"1572898820984","3419778.0"
"1572898821028","3418083.0"
"1572898821080","3428644.0"
"1572898821124","3434798.0"
"1572898821173","3448976.0"
"1572898821220","3459285.0"
"1572898821270","3473391.0"
"1572898821318","3484070.0"
"1572898821369","3466646.0"
"1572898821415","3433681.0"
"1572898821464","3421543.0"
"1572898821512","3418833.0"
"1572898821561","3424853.0"
"1572898821612","3431031.0"
"1572898821666","3432498.0"
"1572898821711","3434177.0"
"1572898821755","3434680.0"
"1572898821803","3446534.0"
"1572898821851","3457314.0"
"1572898821902","3467101.0"
"1572898821952","3482650.0"
"1572898822000","3493424.0"
"1572898822051","3503567.0"
"1572898822100","3489200.0"
"1572898822151","3461262.0"
"1572898822199","3445800.0"
"1572898822249","3440891.0"
"1572898822289","3447818.0"
"1572898822339","3453312.0"
"1572898822389","3452121.0"
"1572898822436","3451979.0"
"1572898822486","3453303.0"
"1572898822533","3459348.0"
"1572898822582","3468206.0"
"1572898822632","3478664.0"
"1572898822680","3487079.0"
"1572898822731","3496978.0"
"1572898822783","3504788.0"
"1572898822831","3491667.0"
"1572898822872","3464399.0"
"1572898822929","3449433.0"
"1572898822972","3449236.0"
"1572898823022","3454092.0"
"1572898823074","3457850.0"
"1572898823117","3453555.0"
"1572898823174","3453815.0"
"1572898823213","3457227.0"
"1572898823270","3464966.0"
"1572898823311","3476315.0"
"1572898823360","3489192.0"
"1572898823415","3504804.0"
"1572898823461","3517082.0"
"1572898823514","3526586.0"
"1572898823555","3500909.0"
"1572898823603","3470539.0"
"1572898823654","3457527.0"
"1572898823700","3456944.0"
"1572898823751","3462255.0"
"1572898823797","3464218.0"
"1572898823848","3463115.0"
"1572898823894","3463493.0"
"1572898823944","3467385.0"
"1572898823992","3474352.0"
"1572898824042","3484952.0"
"1572898824093","3497333.0"
"1572898824142","3508215.0"
"1572898824190","3519130.0"
"1572898824240","3520485.0"
"1572898824291","3499674.0"
"1572898824332","3473832.0"
"1572898824387","3466739.0"
"1572898824432","3467574.0"
"1572898824483","3476189.0"
"1572898824530","3478883.0"
"1572898824579","3479088.0"
"1572898824624","3480317.0"
"1572898824673","3483794.0"
"1572898824728","3494408.0"
"1572898824772","3502984.0"
"1572898824825","3512535.0"
"1572898824866","3524197.0"
"1572898824916","3532464.0"
"1572898824965","3540337.0"
"1572898825013","3537997.0"
"1572898825062","3510540.0"
"1572898825112","3494219.0"
"1572898825159","3490397.0"
"1572898825209","3495048.0"
"1572898825256","3504314.0"
"1572898825312","3506781.0"
"1572898825353","3504566.0"
"1572898825407","3507019.0"
"1572898825453","3517200.0"
"1572898825506","3524268.0"
"1572898825552","3536286.0"
"1572898825596","3549732.0"
"1572898825652","3562711.0"
"1572898825695","3572829.0"
"1572898825749","3571246.0"
"1572898825794","3544049.0"
"1572898825846","3531574.0"
"1572898825895","3528541.0"
"1572898825941","3536294.0"
"1572898825990","3542182.0"
"1572898826037","3546414.0"
"1572898826083","3547241.0"
"1572898826132","3550606.0"
"1572898826180","3556209.0"
"1572898826230","3563349.0"
"1572898826277","3575627.0"
"1572898826327","3588071.0"
"1572898826375","3597677.0"
"1572898826423","3610081.0"
"1572898826472","3606150.0"
"1572898826527","3580521.0"
"1572898826576","3558251.0"
"1572898826617","3555902.0"
"1572898826674","3557975.0"
"1572898826713","3559637.0"
"1572898826763","3561898.0"
"1572898826813","3560078.0"
"1572898826868","3565342.0"
"1572898826908","3569434.0"
"1572898826955","3576612.0"
"1572898827008","3585021.0"
"1572898827055","3594384.0"
"1572898827104","3600310.0"
"1572898827156","3606456.0"
"1572898827207","3614904.0"
"1572898827255","3607371.0"
"1572898827303","3585375.0"
"1572898827348","3570702.0"
"1572898827396","3566147.0"
"1572898827444","3567707.0"
"1572898827495","3575840.0"
"1572898827541","3573461.0"
"1572898827591","3570734.0"
"1572898827638","3565769.0"
"1572898827688","3566667.0"
"1572898827736","3569566.0"
"1572898827792","3572136.0"
"1572898827836","3578835.0"
"1572898827889","3586163.0"
"1572898827938","3595832.0"
"1572898827985","3604628.0"
"1572898828030","3595991.0"
"1572898828080","3579048.0"
"1572898828126","3570560.0"
"1572898828177","3575564.0"
"1572898828228","3584258.0"
"1572898828276","3591033.0"
"1572898828323","3592531.0"
"1572898828375","3593281.0"
"1572898828415","3597551.0"
"1572898828472","3606692.0"
"1572898828517","3616481.0"
"1572898828562","3625734.0"
"1572898828611","3635386.0"
"1572898828660","3648138.0"
"1572898828709","3656287.0"
"1572898828756","3634740.0"
"1572898828807","3609758.0"
"1572898828855","3595172.0"
"1572898828903","3595005.0"
"1572898828952","3595479.0"
"1572898829004","3596826.0"
"1572898829055","3597590.0"
"1572898829095","3592413.0"
"1572898829148","3595676.0"
"1572898829197","3601854.0"
"1572898829249","3608860.0"
"1572898829298","3617229.0"
"1572898829347","3625055.0"
"1572898829396","3635687.0"
"1572898829436","3634190.0"
"1572898829495","3607844.0"
"1572898829536","3584958.0"
"1572898829589","3577888.0"
"1572898829633","3574028.0"
"1572898829685","3577488.0"
"1572898829735","3578936.0"
"1572898829779","3575533.0"
"1572898829828","3577849.0"
"1572898829877","3607064.0"
"1572898829925","3675420.0"
"1572898829973","3740373.0"
"1572898830022","3795703.0"
"1572898830071","3835966.0"
"1572898830119","3870752.0"
"1572898830169","3888735.0"
"1572898830218","3886057.0"
"1572898830271","3860412.0"
"1572898830320","3850538.0"
"1572898830365","3845959.0"
"1572898830418","3850396.0"
"1572898830457","3856898.0"
"1572898830510","3863714.0"
"1572898830556","3871067.0"
"1572898830606","3886687.0"
"1572898830661","3902748.0"
"1572898830710","3913764.0"
"1572898830758","3926775.0"
"1572898830803","3937621.0"
"1572898830857","3936075.0"
"1572898831138","3929778.0"
"1572898831138","3914670.0"
"1572898831140","3895883.0"
"1572898831141","3851885.0"
"1572898831142","3802985.0"
"1572898831203","3773001.0"
"1572898831204","3753258.0"
"1572898831293","3741580.0"
"1572898831293","3728954.0"
"1572898831334","3712885.0"
"1572898831383","3699584.0"
"1572898831432","3690229.0"
"1572898831480","3684908.0"
"1572898831536","3684618.0"
"1572898831580","3684861.0"
"1572898831626","3681883.0"
"1572898831674","3684270.0"
"1572898831722","3683057.0"
"1572898831771","3685319.0"
"1572898831820","3663268.0"
"1572898832080","3618104.0"
"1572898832080","3586913.0"
"1572898832080","3565588.0"
"1572898832080","3555208.0"
"1572898832080","3546776.0"
"1572898832146","3537058.0"
"1572898832272","3526680.0"
"1572898832272","3516970.0"
"1572898832272","3518728.0"
"1572898832320","3520154.0"
"1572898832361","3523638.0"
"1572898832403","3525672.0"
"1572898832453","3530534.0"
"1572898832501","3533568.0"
"1572898832550","3541804.0"
"1572898832599","3549401.0"
"1572898832648","3551827.0"
"1572898832702","3515623.0"
"1572898832744","3486291.0"
"1572898832793","3475707.0"
"1572898832841","3472083.0"
"1572898832897","3473052.0"
"1572898832942","3474415.0"
"1572898832992","3469821.0"
"1572898833035","3466203.0"
"1572898833084","3471097.0"
"1572898833133","3478308.0"
"1572898833181","3485866.0"
"1572898833237","3496433.0"
"1572898833282","3505859.0"
"1572898833331","3514158.0"
"1572898833381","3523063.0"
"1572898833428","3532330.0"
"1572898833473","3544317.0"
"1572898833523","3552963.0"
"1572898833570","3529776.0"
"1572898833621","3512535.0"
"1572898833668","3508098.0"
"1572898833716","3507388.0"
"1572898833764","3514103.0"
"1572898833813","3518240.0"
"1572898833862","3517033.0"
"1572898833918","3523228.0"
"1572898833965","3528202.0"
"1572898834013","3537846.0"
"1572898834060","3549015.0"
"1572898834104","3561356.0"
"1572898834154","3575304.0"
"1572898834201","3584770.0"
"1572898834260","3594707.0"
"1572898834306","3581813.0"
"1572898834352","3566817.0"
"1572898834402","3552987.0"
"1572898834447","3554562.0"
"1572898834493","3557581.0"
"1572898834541","3562648.0"
"1572898834590","3565279.0"
"1572898834639","3564665.0"
"1572898834688","3567660.0"
"1572898834736","3576927.0"
"1572898834786","3586494.0"
"1572898834834","3597702.0"
"1572898834884","3606977.0"
"1572898834939","3615181.0"
"1572898834984","3626309.0"
"1572898835037","3636530.0"
"1572898835080","3625260.0"
"1572898835127","3605164.0"
"1572898835181","3591216.0"
"1572898835223","3590135.0"
"1572898835279","3591247.0"
"1572898835325","3594833.0"
"1572898835389","3595715.0"
"1572898835423","3592777.0"
"1572898835473","3597409.0"
"1572898835515","3601909.0"
"1572898835567","3610538.0"
"1572898835612","3620130.0"
"1572898835661","3628310.0"
"1572898835710","3638926.0"
"1572898835757","3650629.0"
"1572898835808","3644984.0"
"1572898835855","3622849.0"
"1572898835903","3608009.0"
"1572898835959","3601499.0"
"1572898836008","3598868.0"
"1572898836056","3605495.0"
"1572898836101","3602525.0"
"1572898836152","3600601.0"
"1572898836202","3601548.0"
"1572898836244","3603974.0"
"1572898836299","3611121.0"
"1572898836347","3616371.0"
"1572898836394","3626804.0"
"1572898836444","3634757.0"
"1572898836487","3636522.0"
"1572898836542","3614472.0"
"1572898836584","3597070.0"
"1572898836632","3591342.0"
"1572898836688","3593683.0"
"1572898836730","3598813.0"
"1572898836778","3600759.0"
"1572898836828","3596330.0"
"1572898836876","3597283.0"
"1572898836929","3600656.0"
"1572898836972","3605786.0"
"1572898837021","3615394.0"
"1572898837070","3624699.0"
"1572898837118","3632613.0"
"1572898837173","3621879.0"
"1572898837221","3591940.0"
"1572898837267","3578873.0"
"1572898837320","3575399.0"
"1572898837361","3575352.0"
"1572898837415","3579379.0"
"1572898837464","3576888.0"
"1572898837507","3575044.0"
"1572898837563","3576880.0"
"1572898837606","3580245.0"
"1572898837659","3591499.0"
"1572898837708","3597039.0"
"1572898837753","3607592.0"
"1572898837799","3614589.0"
"1572898837849","3603683.0"
"1572898837895","3577236.0"
"1572898837948","3563609.0"
"1572898837993","3561285.0"
"1572898838042","3562010.0"
"1572898838091","3564288.0"
"1572898838139","3564413.0"
"1572898838189","3564633.0"
"1572898838242","3566319.0"
"1572898838287","3573034.0"
"1572898838337","3582342.0"
"1572898838388","3592643.0"
"1572898838434","3600097.0"
"1572898838485","3610987.0"
"1572898838527","3609404.0"
"1572898838578","3587472.0"
"1572898838627","3571750.0"
"1572898838681","3568723.0"
"1572898838732","3570151.0"
"1572898838772","3577274.0"
"1572898838826","3579284.0"
"1572898838869","3580237.0"
"1572898838923","3582610.0"
"1572898838971","3591775.0"
"1572898839014","3600656.0"
"1572898839064","3611721.0"
"1572898839112","3622761.0"
"1572898839160","3636073.0"
"1572898839211","3632786.0"
"1572898839257","3615219.0"
"1572898839309","3605378.0"
"1572898839355","3602728.0"
"1572898839404","3606952.0"
"1572898839457","3614338.0"
"1572898839508","3617891.0"
"1572898839548","3617560.0"
"1572898839597","3621682.0"
"1572898839648","3630429.0"
"1572898839701","3641762.0"
"1572898839751","3652266.0"
"1572898839796","3664719.0"
"1572898839848","3672608.0"
"1572898839889","3662630.0"
"1572898839945","3642709.0"
"1572898839988","3632479.0"
"1572898840041","3635167.0"
"1572898840091","3634765.0"
"1572898840132","3640557.0"
"1572898840188","3642999.0"
"1572898840233","3646490.0"
"1572898840283","3650738.0"
"1572898840334","3659211.0"
"1572898840381","3668335.0"
"1572898840425","3680054.0"
"1572898840474","3689921.0"
"1572898840521","3696430.0"
"1572898840572","3683980.0"
"1572898840618","3664119.0"
"1572898840672","3654828.0"
"1572898840715","3653243.0"
"1572898840764","3658335.0"
"1572898840812","3661141.0"
"1572898840868","3660802.0"
"1572898840912","3663662.0"
"1572898840957","3669841.0"
"1572898841013","3675680.0"
"1572898841061","3683342.0"
"1572898841105","3693342.0"
"1572898841151","3704232.0"
"1572898841208","3709025.0"
"1572898841252","3695368.0"
"1572898841303","3669495.0"
"1572898841354","3663049.0"
"1572898841400","3661354.0"
"1572898841450","3664483.0"
"1572898841492","3668201.0"
"1572898841549","3667122.0"
"1572898841592","3666635.0"
"1572898841639","3670621.0"
"1572898841693","3675286.0"
"1572898841735","3682986.0"
"1572898841784","3692751.0"
"1572898841833","3702759.0"
"1572898841882","3702223.0"
"1572898841933","3683380.0"
"1572898841979","3666429.0"
"1572898842028","3661031.0"
"1572898842075","3664152.0"
"1572898842126","3667760.0"
"1572898842173","3670944.0"
"1572898842222","3669636.0"
"1572898842278","3671267.0"
"1572898842326","3677454.0"
"1572898842376","3685516.0"
"1572898842420","3693602.0"
"1572898842466","3704634.0"
"1572898842516","3711404.0"
"1572898842569","3695951.0"
"1572898842613","3672655.0"
"1572898842665","3661653.0"
"1572898842712","3656892.0"
"1572898842757","3662701.0"
"1572898842813","3664103.0"
"1572898842858","3663386.0"
"1572898842909","3663410.0"
"1572898842950","3666681.0"
"1572898843006","3672663.0"
"1572898843053","3684319.0"
"1572898843097","3693633.0"
"1572898843151","3701560.0"
"1572898843199","3690181.0"
"1572898843250","3668926.0"
"1572898843294","3655562.0"
"1572898843346","3653977.0"
"1572898843394","3657476.0"
"1572898843441","3659564.0"
"1572898843490","3663063.0"
"1572898843535","3662370.0"
"1572898843583","3666767.0"
"1572898843631","3671842.0"
"1572898843680","3682364.0"
"1572898843730","3694902.0"
"1572898843777","3702861.0"
"1572898843827","3690386.0"
"1572898843875","3670519.0"
"1572898843924","3660306.0"
"1572898843977","3661622.0"
"1572898844027","3665767.0"
"1572898844074","3672970.0"
"1572898844117","3673104.0"
"1572898844170","3676200.0"
"1572898844215","3680331.0"
"1572898844270","3686525.0"
"1572898844318","3696455.0"
"1572898844359","3706644.0"
"1572898844416","3716605.0"
"1572898844464","3704933.0"
"1572898844508","3690402.0"
"1572898844561","3683011.0"
"1572898844603","3685359.0"
"1572898844659","3694713.0"
"1572898844709","3701300.0"
"1572898844750","3703682.0"
"1572898844798","3707613.0"
"1572898844847","3713556.0"
"1572898844896","3720679.0"
"1572898844944","3731200.0"
"1572898844992","3743937.0"
"1572898845040","3754394.0"
"1572898845090","3753912.0"
"1572898845138","3734227.0"
"1572898845190","3724966.0"
"1572898845239","3729751.0"
"1572898845291","3733367.0"
"1572898845335","3739845.0"
"1572898845388","3745434.0"
"1572898845435","3747474.0"
"1572898845478","3752344.0"
"1572898845528","3757852.0"
"1572898845577","3767767.0"
"1572898845624","3780447.0"
"1572898845675","3791479.0"
"1572898845721","3799692.0"
"1572898845771","3784758.0"
"1572898845818","3769272.0"
"1572898845867","3767901.0"
"1572898845916","3769973.0"
"1572898845965","3777326.0"
"1572898846015","3783552.0"
"1572898846061","3783269.0"
"1572898846110","3788233.0"
"1572898846157","3795594.0"
"1572898846210","3799503.0"
"1572898846254","3810472.0"
"1572898846313","3819662.0"
"1572898846355","3830395.0"
"1572898846408","3832523.0"
"1572898846458","3814814.0"
"1572898846503","3801244.0"
"1572898846550","3802095.0"
"1572898846595","3803010.0"
"1572898846652","3811844.0"
"1572898846696","3813065.0"
"1572898846749","3809810.0"
"1572898846791","3814666.0"
"1572898846839","3817455.0"
"1572898846888","3825540.0"
"1572898846937","3834311.0"
"1572898846986","3842901.0"
"1572898847035","3853068.0"
"1572898847082","3851515.0"
"1572898847131","3833728.0"
"1572898847179","3823445.0"
"1572898847233","3824184.0"
"1572898847279","3833500.0"
"1572898847333","3840166.0"
"1572898847378","3840932.0"
"1572898847427","3843390.0"
"1572898847479","3844502.0"
"1572898847520","3851901.0"
"1572898847575","3859372.0"
"1572898847620","3868680.0"
"1572898847672","3874803.0"
"1572898847718","3882581.0"
"1572898847768","3869775.0"
"1572898847817","3849451.0"
"1572898847860","3840601.0"
"1572898847915","3838772.0"
"1572898847958","3844075.0"
"1572898848008","3846062.0"
"1572898848054","3849813.0"
"1572898848103","3846330.0"
"1572898848151","3850483.0"
"1572898848200","3855250.0"
"1572898848250","3863186.0"
"1572898848296","3870791.0"
"1572898848348","3877546.0"
"1572898848395","3883906.0"
"1572898848449","3864535.0"
"1572898848499","3849150.0"
"1572898848539","3845006.0"
"1572898848595","3844390.0"
"1572898848642","3847795.0"
"1572898848693","3852761.0"
"1572898848741","3849213.0"
"1572898848783","3852296.0"
"1572898848838","3857275.0"
"1572898848879","3862832.0"
"1572898848935","3871997.0"
"1572898848979","3877199.0"
"1572898849026","3886774.0"
"1572898849075","3892400.0"
"1572898849124","3878672.0"
"1572898849172","3859742.0"
"1572898849220","3851264.0"
"1572898849271","3854533.0"
"1572898849319","3859474.0"
"1572898849367","3861382.0"
"1572898849415","3861650.0"
"1572898849467","3862406.0"
"1572898849519","3868253.0"
"1572898849559","3872028.0"
"1572898849611","3882162.0"
"1572898849660","3889288.0"
"1572898849713","3900501.0"
"1572898849762","3909581.0"
"1572898849811","3902061.0"
"1572898849858","3889468.0"
"1572898849899","3881360.0"
"1572898849957","3877371.0"
"1572898850001","3886766.0"
"1572898850051","3894103.0"
"1572898850102","3896104.0"
"1572898850151","3897925.0"
"1572898850200","3900290.0"
"1572898850241","3906868.0"
"1572898850291","3914254.0"
"1572898850339","3925538.0"
"1572898850388","3929819.0"
"1572898850435","3940882.0"
"1572898850484","3947755.0"
"1572898850533","3957361.0"
"1572898850582","3943214.0"
"1572898850632","3927580.0"
"1572898850680","3920613.0"
"1572898850732","3920386.0"
"1572898850784","3926058.0"
"1572898850829","3927147.0"
"1572898850879","3929409.0"
"1572898850921","3930063.0"
"1572898850977","3930370.0"
"1572898851022","3936012.0"
"1572898851071","3942048.0"
"1572898851116","3950364.0"
"1572898851170","3959190.0"
"1572898851220","3963335.0"
"1572898851261","3974950.0"
"1572898851317","3981838.0"
"1572898851365","3990381.0"
"1572898851413","3982848.0"
"1572898851464","3960695.0"
"1572898851505","3950898.0"
"1572898851553","3948818.0"
"1572898851602","3949370.0"
"1572898851652","3952089.0"
"1572898851701","3949882.0"
"1572898851748","3946099.0"
"1572898851796","3948369.0"
"1572898851846","3947597.0"
"1572898851894","3953625.0"
"1572898851942","3958716.0"
"1572898851998","3964438.0"
"1572898852043","3971460.0"
"1572898852093","3975377.0"
"1572898852141","3981350.0"
"1572898852192","3985078.0"
"1572898852240","3991137.0"
"1572898852281","3998876.0"
"1572898852338","4007285.0"
"1572898852384","3998112.0"
"1572898852436","3978049.0"
"1572898852476","3964753.0"
"1572898852528","3958361.0"
"1572898852575","3961750.0"
"1572898852625","3966472.0"
"1572898852671","3961610.0"
"1572898852723","3957739.0"
"1572898852769","3953696.0"
"1572898852817","3956242.0"
"1572898852868","3960986.0"
"1572898852914","3963499.0"
"1572898852970","3970088.0"
"1572898853019","3974422.0"
"1572898853064","3981500.0"
"1572898853110","3983376.0"
"1572898853165","3992399.0"
"1572898853211","3997821.0"
"1572898853261","3983099.0"
"1572898853303","3956502.0"
"1572898853352","3944279.0"
"1572898853404","3937635.0"
"1572898853457","3935855.0"
"1572898853506","3934720.0"
"1572898853550","3929921.0"
"1572898853601","3924884.0"
"1572898853650","3921418.0"
"1572898853700","3924128.0"
"1572898853743","3929258.0"
"1572898853790","3930985.0"
"1572898853838","3935390.0"
"1572898853888","3941197.0"
"1572898853936","3945106.0"
"1572898853986","3948732.0"
"1572898854033","3957077.0"
"1572898854084","3962081.0"
"1572898854131","3946296.0"
"1572898854185","3919132.0"
"1572898854232","3903748.0"
"1572898854283","3898500.0"
"1572898854324","3897774.0"
"1572898854379","3893796.0"
"1572898854425","3887892.0"
"1572898854471","3882967.0"
"1572898854519","3880736.0"
"1572898854569","3879296.0"
"1572898854616","3883637.0"
"1572898854665","3884363.0"
"1572898854720","3889901.0"
"1572898854768","3894245.0"
"1572898854818","3897656.0"
"1572898854867","3902061.0"
"1572898854913","3905987.0"
"1572898854960","3911503.0"
"1572898855005","3903741.0"
"1572898855061","3872731.0"
"1572898855107","3851469.0"
"1572898855152","3842736.0"
"1572898855200","3838945.0"
"1572898855249","3838961.0"
"1572898855297","3833216.0"
"1572898855348","3827880.0"
"1572898855394","3823223.0"
"1572898855443","3821190.0"
"1572898855491","3823957.0"
"1572898855541","3826897.0"
"1572898855591","3834296.0"
"1572898855641","3839008.0"
"1572898855686","3840426.0"
"1572898855741","3835794.0"
"1572898855792","3808178.0"
"1572898855839","3784206.0"
"1572898855886","3780022.0"
"1572898855929","3778052.0"
"1572898855981","3781195.0"
"1572898856027","3779311.0"
"1572898856082","3773622.0"
"1572898856123","3766617.0"
"1572898856175","3765640.0"
"1572898856227","3770266.0"
"1572898856269","3776664.0"
"1572898856325","3781794.0"
"1572898856370","3787776.0"
"1572898856421","3794885.0"
"1572898856471","3798991.0"
"1572898856518","3780423.0"
"1572898856566","3748254.0"
"1572898856610","3730033.0"
"1572898856657","3719877.0"
"1572898856710","3716321.0"
"1572898856756","3718221.0"
"1572898856809","3712751.0"
"1572898856854","3704886.0"
"1572898856902","3699961.0"
"1572898856951","3699417.0"
"1572898857000","3704131.0"
"1572898857048","3712499.0"
"1572898857100","3712926.0"
"1572898857149","3719994.0"
"1572898857199","3723769.0"
"1572898857251","3729009.0"
"1572898857296","3709458.0"
"1572898857346","3677470.0"
"1572898857388","3657910.0"
"1572898857444","3651330.0"
"1572898857489","3647555.0"
"1572898857539","3646270.0"
"1572898857590","3641675.0"
"1572898857632","3635655.0"
"1572898857681","3633062.0"
"1572898857728","3631636.0"
"1572898857786","3637577.0"
"1572898857831","3640273.0"
"1572898857875","3646325.0"
"1572898857923","3651464.0"
"1572898857972","3655893.0"
"1572898858021","3661045.0"
"1572898858071","3666169.0"
"1572898858118","3667350.0"
"1572898858171","3638074.0"
"1572898858215","3613314.0"
"1572898858272","3607946.0"
"1572898858311","3607009.0"
"1572898858361","3608797.0"
"1572898858411","3608584.0"
"1572898858465","3605597.0"
"1572898858513","3603139.0"
"1572898858555","3602996.0"
"1572898858605","3609018.0"
"1572898858653","3614297.0"
"1572898858707","3621579.0"
"1572898858751","3629799.0"
"1572898858798","3637026.0"
"1572898858852","3645633.0"
"1572898858898","3644324.0"
"1572898858950","3619317.0"
"1572898858992","3599506.0"
"1572898859048","3594674.0"
"1572898859089","3593549.0"
"1572898859136","3598370.0"
"1572898859222","3598923.0"
"1572898859265","3595172.0"
"1572898859315","3593532.0"
"1572898859380","3597346.0"
"1572898859385","3604628.0"
"1572898859442","3612958.0"
"1572898859478","3620248.0"
"1572898859527","3626670.0"
"1572898859574","3635915.0"
"1572898859624","3644655.0"
"1572898859672","3651527.0"
"1572898859720","3641652.0"
"1572898859771","3612761.0"
"1572898859818","3599221.0"
"1572898859867","3594518.0"
"1572898859913","3595030.0"
"1572898859965","3597228.0"
"1572898860017","3594083.0"
"1572898860062","3592476.0"
"1572898860112","3593918.0"
"1572898860157","3597850.0"
"1572898860208","3606426.0"
"1572898860255","3615118.0"
"1572898860305","3622367.0"
"1572898860352","3630273.0"
"1572898860402","3641597.0"
"1572898860451","3650163.0"
"1572898860498","3657295.0"
"1572898860547","3637806.0"
"1572898860595","3613486.0"
"1572898860645","3603651.0"
"1572898860692","3600869.0"
"1572898860741","3605991.0"
"1572898860792","3608419.0"
"1572898860838","3602714.0"
"1572898860888","3600530.0"
"1572898860935","3602903.0"
"1572898860985","3605172.0"
"1572898861033","3613746.0"
"1572898861082","3620705.0"
"1572898861131","3628877.0"
"1572898861178","3636656.0"
"1572898861226","3643133.0"
"1572898861275","3648839.0"
"1572898861325","3646350.0"
"1572898861373","3623637.0"
"1572898861422","3606347.0"
"1572898861471","3605881.0"
"1572898861518","3607883.0"
"1572898861567","3612856.0"
"1572898861616","3609656.0"
"1572898861664","3607094.0"
"1572898861712","3607001.0"
"1572898861761","3612856.0"
"1572898861819","3618578.0"
"1572898861863","3626741.0"
"1572898861907","3637459.0"
"1572898861955","3648130.0"
"1572898862009","3654404.0"
"1572898862057","3661015.0"
"1572898862103","3638334.0"
"1572898862152","3615205.0"
"1572898862199","3604266.0"
"1572898862247","3598411.0"
"1572898862300","3600546.0"
"1572898862347","3602564.0"
"1572898862393","3597354.0"
"1572898862442","3596086.0"
"1572898862492","3595952.0"
"1572898862539","3602295.0"
"1572898862589","3609333.0"
"1572898862636","3615567.0"
"1572898862687","3625488.0"
"1572898862733","3633456.0"
"1572898862780","3635427.0"
"1572898862837","3615252.0"
"1572898862877","3588181.0"
"1572898862929","3578449.0"
"1572898862976","3572758.0"
"1572898863024","3571829.0"
"1572898863079","3573034.0"
"1572898863123","3570291.0"
"1572898863175","3567179.0"
"1572898863219","3568717.0"
"1572898863267","3573160.0"
"1572898863319","3579174.0"
"1572898863371","3587527.0"
"1572898863418","3594422.0"
"1572898863467","3603374.0"
"1572898863509","3607663.0"
"1572898863557","3599790.0"
"1572898863609","3570734.0"
"1572898863661","3551386.0"
"1572898863711","3546319.0"
"1572898863755","3545043.0"
"1572898863802","3545248.0"
"1572898863852","3540219.0"
"1572898863900","3536075.0"
"1572898863950","3535372.0"
"1572898863997","3539281.0"
"1572898864046","3544892.0"
"1572898864093","3551158.0"
"1572898864144","3558794.0"
"1572898864189","3568071.0"
"1572898864238","3573428.0"
"1572898864289","3564602.0"
"1572898864335","3538273.0"
"1572898864387","3523789.0"
"1572898864433","3520627.0"
"1572898864484","3523890.0"
"1572898864531","3528525.0"
"1572898864580","3527838.0"
"1572898864629","3525483.0"
"1572898864676","3526395.0"
"1572898864727","3533852.0"
"1572898864777","3541087.0"
"1572898864823","3549801.0"
"1572898864870","3559677.0"
"1572898864925","3570860.0"
"1572898864970","3578898.0"
"1572898865018","3568709.0"
"1572898865066","3540866.0"
"1572898865120","3522614.0"
"1572898865165","3516672.0"
"1572898865212","3512943.0"
"1572898865261","3516080.0"
"1572898865311","3510580.0"
"1572898865358","3511454.0"
"1572898865408","3511738.0"
"1572898865456","3518594.0"
"1572898865505","3523206.0"
"1572898865557","3535073.0"
"1572898865600","3544586.0"
"1572898865650","3553214.0"
"1572898865703","3562215.0"
"1572898865752","3571994.0"
"1572898865798","3559094.0"
"1572898865844","3533496.0"
"1572898865890","3518067.0"
"1572898865946","3510974.0"
"1572898865995","3508106.0"
"1572898866037","3508831.0"
"1572898866086","3503329.0"
"1572898866137","3491429.0"
"1572898866185","3488245.0"
"1572898866232","3497986.0"
"1572898866281","3507821.0"
"1572898866330","3507082.0"
"1572898866378","3505544.0"
"1572898866509","3505481.0"
"1572898866509","3510509.0"
"1572898866713","3512573.0"
"1572898866718","3505584.0"
"1572898866719","3496592.0"
"1572898866720","3494558.0"
"1572898866780","3494859.0"
"1572898866780","3516915.0"
"1572898866866","3545262.0"
"1572898866868","3552954.0"
"1572898866913","3565730.0"
"1572898866961","3591712.0"
"1572898867011","3630398.0"
"1572898867061","3670440.0"
"1572898867108","3693561.0"
"1572898867158","3701223.0"
"1572898867203","3701601.0"
"1572898867253","3696542.0"
"1572898867301","3667744.0"
"1572898867351","3635403.0"
"1572898867399","3619405.0"
"1572898867446","3609309.0"
"1572898867495","3609270.0"
"1572898867545","3608624.0"
"1572898867592","3602974.0"
"1572898867641","3600105.0"
"1572898867690","3603045.0"
"1572898867740","3604148.0"
"1572898867787","3612336.0"
"1572898867835","3618003.0"
"1572898867885","3627773.0"
"1572898867933","3635009.0"
"1572898867982","3621745.0"
"1572898868031","3599971.0"
"1572898868078","3592854.0"
"1572898868128","3587827.0"
"1572898868176","3587787.0"
"1572898868225","3591980.0"
"1572898868543","3591805.0"
"1572898868543","3593297.0"
"1572898868543","3596322.0"
"1572898868543","3603013.0"
"1572898868543","3612139.0"
"1572898868543","3622903.0"
"1572898868613","3633204.0"
"1572898868614","3639887.0"
"1572898868731","3647215.0"
"1572898868731","3642581.0"
"1572898868965","3653071.0"
"1572898868965","3661039.0"
"1572898868965","3664820.0"
"1572898868965","3660519.0"
"1572898868965","3666438.0"
"1572898869038","3692285.0"
"1572898869063","3727843.0"
"1572898869241","3754701.0"
"1572898869248","3808203.0"
"1572898869248","3859364.0"
"1572898869279","3905245.0"
"1572898869301","3926548.0"
"1572898869342","3872619.0"
"1572898869391","3745040.0"
"1572898869442","3713603.0"
"1572898869489","3739387.0"
"1572898869540","3838772.0"
"1572898869591","3933980.0"
"1572898869633","3982596.0"
"1572898869681","3973784.0"
"1572898869730","3962207.0"
"1572898869783","3995843.0"
"1572898869829","4042961.0"
"1572898869876","4093177.0"
"1572898869927","4117339.0"
"1572898869977","4106780.0"
"1572898870026","4072766.0"
"1572898870075","4004039.0"
"1572898870123","3967290.0"
"1572898870173","3954123.0"
"1572898870220","3969789.0"
"1572898870271","3972870.0"
"1572898870315","3982886.0"
"1572898870363","3986639.0"
"1572898870410","3987244.0"
"1572898870460","3980617.0"
"1572898870508","3970222.0"
"1572898870556","3964194.0"
"1572898870607","3959409.0"
"1572898870653","3952625.0"
"1572898870701","3951175.0"
"1572898870755","3965494.0"
"1572898870804","3994534.0"
"1572898870852","4046366.0"
"1572898870900","4071954.0"
"1572898870950","4091152.0"
"1572898870996","4095573.0"
"1572898871043","4092405.0"
"1572898871090","4101664.0"
"1572898871139","4120350.0"
"1572898871193","4141990.0"
"1572898871239","4168352.0"
"1572898871291","4183491.0"
"1572898871336","4191024.0"
"1572898871384","4192560.0"
"1572898871430","4186374.0"
"1572898871479","4184145.0"
"1572898871527","4185224.0"
"1572898871575","4183025.0"
"1572898871626","4200868.0"
"1572898871672","4223366.0"
"1572898871723","4255796.0"
"1572898871771","4278162.0"
"1572898871820","4284718.0"
"1572898871868","4265701.0"
"1572898871919","4235952.0"
"1572898871967","4222791.0"
"1572898872017","4208818.0"
"1572898872069","4212333.0"
"1572898872110","4215454.0"
"1572898872157","4208377.0"
"1572898872212","4211419.0"
"1572898872259","4221925.0"
"1572898872305","4226259.0"
"1572898872352","4243045.0"
"1572898872405","4267641.0"
"1572898872455","4283245.0"
"1572898872502","4274173.0"
"1572898872549","4271036.0"
"1572898872595","4268531.0"
"1572898872648","4261091.0"
"1572898872692","4285033.0"
"1572898872742","4332814.0"
"1572898872790","4384796.0"
"1572898872839","4430787.0"
"1572898872889","4466826.0"
"1572898872936","4489900.0"
"1572898872989","4509673.0"
"1572898873037","4525663.0"
"1572898873086","4526594.0"
"1572898873130","4510563.0"
"1572898873182","4492848.0"
"1572898873231","4460001.0"
"1572898873275","4424269.0"
"1572898873328","4381454.0"
"1572898873376","4341371.0"
"1572898873427","4317171.0"
"1572898873475","4309447.0"
"1572898873522","4308502.0"
"1572898873568","4285255.0"
"1572898873615","4227598.0"
"1572898873670","4229711.0"
"1572898873716","4215470.0"
"1572898873767","4207928.0"
"1572898873810","4173143.0"
"1572898873859","4169959.0"
"1572898873910","4169872.0"
"1572898873955","4229158.0"
"1572898874009","4258389.0"
"1572898874052","4247324.0"
"1572898874102","4239081.0"
"1572898874149","4251926.0"
"1572898874199","4260035.0"
"1572898874248","4246371.0"
"1572898874299","4233699.0"
"1572898874350","4213625.0"
"1572898874399","4195437.0"
"1572898874448","4179179.0"
"1572898874494","4165680.0"
"1572898874543","4154678.0"
"1572898874593","4143591.0"
"1572898874636","4136947.0"
"1572898874689","4123999.0"
"1572898874737","4117867.0"
"1572898874787","4111319.0"
"1572898874829","4102901.0"
"1572898874878","4098718.0"
"1572898874929","4078283.0"
"1572898874976","4052947.0"
"1572898875030","4032906.0"
"1572898875073","4023426.0"
"1572898875123","4012676.0"
"1572898875171","3999839.0"
"1572898875219","3991145.0"
"1572898875275","3981279.0"
"1572898875320","3969143.0"
"1572898875366","3966447.0"
"1572898875413","3961341.0"
"1572898875463","3955998.0"
"1572898875511","3953373.0"
"1572898875560","3948676.0"
"1572898875611","3936209.0"
"1572898875656","3921976.0"
"1572898875710","3916682.0"
"1572898875754","3908390.0"
"1572898875807","3904024.0"
"1572898875852","3900068.0"
"1572898875898","3896200.0"
"1572898875951","3891856.0"
"1572898875997","3890060.0"
"1572898876046","3893473.0"
"1572898876093","3895686.0"
"1572898876143","3894363.0"
"1572898876191","3894733.0"
"1572898876240","3896137.0"
"1572898876294","3902764.0"
"1572898876340","3903378.0"
"1572898876389","3894481.0"
"1572898876437","3889249.0"
"1572898876487","3884267.0"
"1572898876530","3883259.0"
"1572898876583","3881155.0"
"1572898876632","3876041.0"
"1572898876676","3873257.0"
"1572898876724","3875370.0"
"1572898876778","3874685.0"
"1572898876824","3877946.0"
"1572898876871","3882841.0"
"1572898876921","3887254.0"
"1572898876971","3891549.0"
"1572898877020","3894505.0"
"1572898877070","3895442.0"
"1572898877114","3874637.0"
"1572898877163","3858899.0"
"1572898877211","3859104.0"
"1572898877260","3856889.0"
"1572898877311","3848576.0"
"1572898877356","3835383.0"
"1572898877406","3832657.0"
"1572898877453","3829221.0"
"1572898877507","3829662.0"
"1572898877554","3834825.0"
"1572898877600","3842342.0"
"1572898877652","3850349.0"
"1572898877700","3857032.0"
"1572898877750","3864683.0"
"1572898877798","3867404.0"
"1572898877848","3870736.0"
"1572898877893","3873848.0"
"1572898877944","3869673.0"
"1572898877997","3864795.0"
"1572898878041","3862462.0"
"1572898878090","3864675.0"
"1572898878135","3866298.0"
"1572898878188","3867136.0"
"1572898878233","3871122.0"
"1572898878283","3878491.0"
"1572898878337","3883960.0"
"1572898878381","3892266.0"
"1572898878430","3912915.0"
"1572898878473","3931322.0"
"1572898878523","3931245.0"
"1572898878573","3932694.0"
"1572898878619","3934208.0"
"1572898878670","3938456.0"
"1572898878716","3935500.0"
"1572898878766","3939661.0"
"1572898878813","3938273.0"
"1572898878863","3948850.0"
"1572898878911","3941837.0"
"1572898878964","3921032.0"
"1572898879013","3896049.0"
"1572898879061","3881415.0"
"1572898879106","3879145.0"
"1572898879159","3925727.0"
"1572898879208","3987323.0"
"1572898879251","4059574.0"
"1572898879300","4135946.0"
"1572898879349","4191449.0"
"1572898879396","4220562.0"
"1572898879446","4211175.0"
"1572898879494","4177643.0"
"1572898879543","4146750.0"
"1572898879593","4122006.0"
"1572898879639","4108497.0"
"1572898879693","4092019.0"
"1572898879741","4074934.0"
"1572898879791","4059361.0"
