time,value,value2,value3
1577523425198,6861104.0,6891725.0,0.0
1577523425251,6854518.0,6864330.0,0.0
1577523425291,6726040.0,6782960.0,0.0
1577523425349,6791387.0,6900616.0,0.0
1577523425394,6826899.0,6968421.0,0.0
1577523425440,6771093.0,6920592.0,0.0
1577523425494,6820434.0,6993221.0,0.0
1577523425554,6806711.0,7081997.0,0.0
1577523425589,6593825.0,6968824.0,0.0
1577523425676,6660209.0,7032445.0,0.0
1577523425703,6367661.0,6859298.0,0.0
1577523425794,6261938.0,6784250.0,0.0
1577523425794,6093570.0,6587672.0,0.0
1577523425888,5935577.0,6422794.0,0.0
1577523425889,5960723.0,6423581.0,0.0
1577523425927,5852783.0,6259472.0,0.0
1577523425978,5693753.0,6066456.0,0.0
1577523426030,5563167.0,5887034.0,0.0
1577523426080,5525023.0,5778312.0,0.0
1577523426126,5521284.0,5782629.0,0.0
1577523426176,5456637.0,5706440.0,0.0
1577523426225,5410335.0,5674634.0,0.0
1577523426275,5402162.0,5673968.0,0.0
1577523426321,5365791.0,5640293.0,0.0
1577523426372,5343910.0,5629328.0,0.0
1577523426420,5310901.0,5606576.0,0.0
1577523426469,5289638.0,5599661.0,0.0
1577523426523,5265149.0,5587106.0,0.0
1577523426569,5202475.0,5538146.0,0.0
1577523426620,5180918.0,5522874.0,0.0
1577523426667,5195111.0,5526749.0,0.0
1577523426715,5205743.0,5565677.0,0.0
1577523426766,5185782.0,5586053.0,0.0
1577523426815,5168190.0,5587640.0,0.0
1577523426865,5169763.0,5590904.0,0.0
1577523426913,5148041.0,5573437.0,0.0
1577523426963,5087748.0,5519002.0,0.0
1577523427011,5059187.0,5505778.0,0.0
1577523427060,5024632.0,5483949.0,0.0
1577523427108,5005720.0,5468810.0,0.0
1577523427163,4968706.0,5433269.0,0.0
1577523427211,4938611.0,5408232.0,0.0
1577523427260,5018797.0,5472032.0,0.0
1577523427310,5109211.0,5523632.0,0.0
1577523427358,5120019.0,5561344.0,0.0
1577523427408,5065503.0,5561981.0,0.0
1577523427456,5035961.0,5542317.0,0.0
1577523427508,4979296.0,5485210.0,0.0
1577523427550,4926355.0,5427642.0,0.0
1577523427604,4877942.0,5378106.0,0.0
1577523427652,4844420.0,5358176.0,0.0
1577523427704,4820605.0,5345309.0,0.0
1577523427751,4787540.0,5304720.0,0.0
1577523427800,4758334.0,5260034.0,0.0
1577523427850,4708967.0,5203773.0,0.0
1577523427897,4740352.0,5238589.0,0.0
1577523427949,4786412.0,5283021.0,0.0
1577523427997,4756277.0,5310152.0,0.0
1577523428049,4724100.0,5307330.0,0.0
1577523428096,4724303.0,5316904.0,0.0
1577523428144,4706951.0,5304112.0,0.0
1577523428193,4667611.0,5263714.0,0.0
1577523428241,4644950.0,5256517.0,0.0
1577523428291,4615032.0,5229314.0,0.0
1577523428336,4556053.0,5163304.0,0.0
1577523428386,4513019.0,5101581.0,0.0
1577523428438,4473503.0,5061200.0,0.0
1577523428493,4583083.0,5166658.0,0.0
1577523428540,4670473.0,5230576.0,0.0
1577523428588,4691951.0,5207112.0,0.0
1577523428634,4620824.0,5104461.0,0.0
1577523428684,4544912.0,5061021.0,0.0
1577523428732,4483542.0,4838058.0,0.0
1577523428782,4613392.0,4935781.0,0.0
1577523428831,4552464.0,4882445.0,0.0
1577523428885,4466110.0,4812264.0,0.0
1577523428927,4480142.0,4858714.0,0.0
1577523428972,4580960.0,4977381.0,0.0
1577523429026,4748698.0,5034872.0,0.0
1577523429071,4704908.0,4953042.0,0.0
1577523429123,4718833.0,4941437.0,0.0
1577523429170,4748307.0,4943202.0,0.0
1577523429224,4816908.0,4943469.0,0.0
1577523429270,4918371.0,4924517.0,0.0
1577523429319,5059388.0,4941970.0,0.0
1577523429368,5195406.0,4958949.0,0.0
1577523429417,5292985.0,4971949.0,0.0
1577523429466,5366692.0,5045469.0,0.0
1577523429514,5419338.0,5087882.0,0.0
1577523429566,5454674.0,5120949.0,0.0
1577523429618,5489229.0,5179317.0,0.0
1577523429664,5501514.0,5220618.0,0.0
1577523429711,5559228.0,5285826.0,0.0
1577523429769,5543262.0,5291837.0,0.0
1577523429815,5629348.0,5399818.0,0.0
1577523429865,5641133.0,5449354.0,0.0
1577523429908,5678741.0,5495808.0,0.0
1577523429958,5665905.0,5510381.0,0.0
1577523430009,5704399.0,5570040.0,0.0
1577523430059,5744854.0,5621224.0,0.0
1577523430105,5542158.0,5393480.0,0.0
1577523430154,5586794.0,5549202.0,0.0
1577523430210,5388425.0,5388642.0,0.0
1577523430255,5409876.0,5460976.0,0.0
1577523430310,5274867.0,5274933.0,0.0
1577523430354,5372459.0,5440258.0,0.0
1577523430404,5240769.0,5238917.0,0.0
1577523430448,5213968.0,5212693.0,0.0
1577523430515,5285970.0,5303546.0,0.0
1577523430553,5316062.0,5292802.0,0.0
1577523430600,5273443.0,5230560.0,0.0
1577523430644,5193807.0,5111226.0,0.0
1577523430698,5106888.0,4974664.0,0.0
1577523430744,5072937.0,4914797.0,0.0
1577523430796,4963127.0,4770192.0,0.0
1577523430844,4793493.0,4558608.0,0.0
1577523430888,4684116.0,4391162.0,0.0
1577523430945,4682114.0,4131259.0,0.0
1577523430992,4714706.0,3458468.0,0.0
1577523431044,4724262.0,4008376.0,0.0
1577523431086,4693658.0,3988390.0,0.0
1577523431135,4745887.0,4059300.0,0.0
1577523431185,4760107.0,4079152.0,0.0
1577523431233,4795321.0,4025551.0,0.0
1577523431287,4857203.0,4098454.0,0.0
1577523431332,5402619.0,4824976.0,0.0
1577523431386,5513544.0,4889935.0,0.0
1577523431434,5710232.0,5062269.0,0.0
1577523431477,5923076.0,5291115.0,0.0
1577523431531,5747489.0,5210611.0,0.0
1577523431577,5628541.0,4678676.0,0.0
1577523431627,5563609.0,4515539.0,0.0
1577523431676,5465319.0,4467350.0,0.0
1577523431728,5479607.0,4469451.0,0.0
1577523431773,5509970.0,4650491.0,0.0
1577523431829,6048342.0,5445670.0,0.0
1577523431876,6323914.0,5711504.0,0.0
1577523431925,5841789.0,5166555.0,0.0
1577523431968,5495385.0,4784723.0,0.0
1577523432028,5436019.0,4605693.0,0.0
1577523432077,5624199.0,4854680.0,0.0
1577523432122,5521205.0,4826575.0,0.0
1577523432166,5362163.0,4680911.0,0.0
1577523432221,5211872.0,4563256.0,0.0
1577523432265,5117372.0,4501948.0,0.0
1577523432318,5035196.0,4447199.0,0.0
1577523432369,4992400.0,4424506.0,0.0
1577523432415,4965049.0,4411841.0,0.0
1577523432465,4988476.0,4489339.0,0.0
1577523432518,5014228.0,4535322.0,0.0
1577523432564,5012050.0,4522280.0,0.0
1577523432611,4920576.0,4473947.0,0.0
1577523432662,4740673.0,4246999.0,0.0
1577523432705,4670620.0,4143851.0,0.0
1577523432760,4605420.0,4043369.0,0.0
1577523432811,4586819.0,4021341.0,0.0
1577523432857,4551752.0,3974983.0,0.0
1577523432908,4442899.0,3835377.0,0.0
1577523432955,4374001.0,3735897.0,0.0
1577523433010,4368210.0,3746281.0,0.0
1577523433047,4388639.0,3781890.0,0.0
1577523433103,4419175.0,3816506.0,0.0
1577523433150,4434270.0,3817356.0,0.0
1577523433202,4509927.0,3895046.0,0.0
1577523433249,4542802.0,3934480.0,0.0
1577523433295,4533083.0,3928151.0,0.0
1577523433352,4483207.0,3837360.0,0.0
1577523433397,4437576.0,3802378.0,0.0
1577523433448,4468960.0,3911749.0,0.0
1577523433497,4417806.0,3943785.0,0.0
1577523433546,4383410.0,3888680.0,0.0
1577523433594,4345790.0,3823559.0,0.0
1577523433643,4340146.0,3813434.0,0.0
1577523433691,4322405.0,3802424.0,0.0
1577523433743,4307892.0,4006595.0,0.0
1577523433786,4345756.0,4037820.0,0.0
1577523433835,4351603.0,4089266.0,0.0
1577523433893,4230605.0,3996249.0,0.0
1577523433937,4212835.0,4001903.0,0.0
1577523433989,4192434.0,3982592.0,0.0
1577523434037,4280673.0,4181743.0,0.0
1577523434085,4347875.0,4339640.0,0.0
1577523434133,4325566.0,4335632.0,0.0
1577523434184,4360801.0,4247596.0,0.0
1577523434231,4375779.0,4280789.0,0.0
1577523434282,4398520.0,4399937.0,0.0
1577523434330,4405532.0,4402576.0,0.0
1577523434379,4339043.0,4336327.0,0.0
1577523434431,4248088.0,4164000.0,0.0
1577523434473,4142598.0,4003791.0,0.0
1577523434530,4202739.0,4073411.0,0.0
1577523434571,4028131.0,3854468.0,0.0
1577523434627,4046740.0,3843303.0,0.0
1577523434675,4182117.0,3952800.0,0.0
1577523434720,4257566.0,4075357.0,0.0
1577523434771,4245122.0,4049379.0,0.0
1577523434819,4225548.0,4026898.0,0.0
1577523434869,4212006.0,4014492.0,0.0
1577523434922,4156873.0,3956055.0,0.0
1577523434973,4202808.0,3935646.0,0.0
1577523435024,4177678.0,3943842.0,0.0
1577523435068,4298607.0,4178545.0,0.0
1577523435118,4340727.0,4289775.0,0.0
1577523435167,4293723.0,4203723.0,0.0
1577523435210,4231058.0,4158134.0,0.0
1577523435264,4191750.0,4113048.0,0.0
1577523435310,4332964.0,4310078.0,0.0
1577523435364,4297423.0,4157797.0,0.0
1577523435411,4309694.0,4176715.0,0.0
1577523435457,4410849.0,4266676.0,0.0
1577523435515,4535718.0,4400503.0,0.0
1577523435559,4440313.0,4279237.0,0.0
1577523435608,4417881.0,4265896.0,0.0
1577523435657,4309625.0,4182225.0,0.0
1577523435708,4226387.0,4086810.0,0.0
1577523435751,4251497.0,4102202.0,0.0
1577523435799,4244167.0,4064965.0,0.0
1577523435849,4271638.0,4180760.0,0.0
1577523435900,4378408.0,4285305.0,0.0
1577523435948,4442152.0,4308981.0,0.0
1577523436004,4443550.0,4285440.0,0.0
1577523436058,4385517.0,4237309.0,0.0
1577523436100,4263393.0,4127053.0,0.0
1577523436149,4114289.0,4009445.0,0.0
1577523436198,4098724.0,4020648.0,0.0
1577523436248,3971707.0,3859803.0,0.0
1577523436296,4006739.0,3907279.0,0.0
1577523436345,4054359.0,3971978.0,0.0
1577523436389,4114753.0,4013212.0,0.0
1577523436444,4145536.0,4032495.0,0.0
1577523436497,4108779.0,4010949.0,0.0
1577523436538,4079268.0,3978114.0,0.0
1577523436591,4101315.0,3938236.0,0.0
1577523436636,4068057.0,3934644.0,0.0
1577523436686,4050517.0,3944295.0,0.0
1577523436733,4069463.0,3979625.0,0.0
1577523436783,4077679.0,3973075.0,0.0
1577523436837,4066178.0,3947830.0,0.0
1577523436886,3959899.0,3864427.0,0.0
1577523436930,3877652.0,3773539.0,0.0
1577523436985,3787119.0,3625929.0,0.0
1577523437034,3766605.0,3570324.0,0.0
1577523437083,3804131.0,3623261.0,0.0
1577523437133,3879501.0,3724598.0,0.0
1577523437174,3927515.0,3782525.0,0.0
1577523437229,4007838.0,3834827.0,0.0
1577523437279,3981793.0,3748612.0,0.0
1577523437329,4136443.0,3996491.0,0.0
1577523437371,4255957.0,4063260.0,0.0
1577523437426,4200901.0,3939941.0,0.0
1577523437475,4284468.0,4044188.0,0.0
1577523437527,4300688.0,4081243.0,0.0
1577523437574,4300263.0,4085152.0,0.0
1577523437623,4289899.0,4077852.0,0.0
1577523437675,4222014.0,3954948.0,0.0
1577523437716,4164433.0,3900017.0,0.0
1577523437770,4052134.0,3800161.0,0.0
1577523437815,4111439.0,3860776.0,0.0
1577523437868,4193850.0,3954080.0,0.0
1577523437913,4245987.0,3995095.0,0.0
1577523437967,4309674.0,4049111.0,0.0
1577523438017,4345476.0,4057866.0,0.0
1577523438070,4379245.0,4076292.0,0.0
1577523438109,4353316.0,4013616.0,0.0
1577523438166,4255591.0,3858436.0,0.0
1577523438215,4333031.0,3985424.0,0.0
1577523438262,4374219.0,4082716.0,0.0
1577523438311,4421772.0,4129960.0,0.0
1577523438361,4422590.0,4123546.0,0.0
1577523438410,4422081.0,4130895.0,0.0
1577523438459,4391883.0,4096991.0,0.0
1577523438505,4319721.0,4032629.0,0.0
1577523438552,4343511.0,4044873.0,0.0
1577523438607,4504539.0,4262363.0,0.0
1577523438653,4456600.0,4178602.0,0.0
1577523438706,4469652.0,4182928.0,0.0
1577523438759,4508103.0,4202402.0,0.0
1577523438803,4498423.0,4189852.0,0.0
1577523438851,4488647.0,4178476.0,0.0
1577523438901,4479264.0,4128044.0,0.0
1577523438950,4452477.0,4105285.0,0.0
1577523439002,4493809.0,4216677.0,0.0
1577523439045,4539398.0,4295988.0,0.0
1577523439094,4603796.0,4331203.0,0.0
1577523439147,4572732.0,4307545.0,0.0
1577523439194,4531691.0,4330711.0,0.0
1577523439245,4448674.0,4209462.0,0.0
1577523439298,4451996.0,4104533.0,0.0
1577523439342,4499059.0,4042839.0,0.0
1577523439391,4586516.0,4149774.0,0.0
1577523439441,4589984.0,4195169.0,0.0
1577523439486,4576597.0,4202654.0,0.0
1577523439540,4562167.0,4208934.0,0.0
1577523439584,4562041.0,4220501.0,0.0
1577523439633,4588568.0,4237964.0,0.0
1577523439688,4507196.0,4147789.0,0.0
1577523439737,4402594.0,4053501.0,0.0
1577523439781,4531336.0,4208193.0,0.0
1577523439836,4476867.0,4207729.0,0.0
1577523439879,4516020.0,4272967.0,0.0
1577523439926,4522800.0,4265088.0,0.0
1577523439983,4446709.0,4190179.0,0.0
1577523440037,4403364.0,4076938.0,0.0
1577523440076,4441199.0,4101026.0,0.0
1577523440122,4529188.0,4191288.0,0.0
1577523440176,4617994.0,4247712.0,0.0
1577523440227,4679119.0,4293349.0,0.0
1577523440274,4745744.0,4328311.0,0.0
1577523440321,4790089.0,4429767.0,0.0
1577523440373,4787768.0,4475324.0,0.0
1577523440416,4804933.0,4482848.0,0.0
1577523440465,4817859.0,4461696.0,0.0
1577523440516,4732710.0,4379420.0,0.0
1577523440564,4754586.0,4379255.0,0.0
1577523440634,4730524.0,4346016.0,0.0
1577523440684,4646928.0,4254878.0,0.0
1577523440713,4660626.0,4230538.0,0.0
1577523440771,4701070.0,4270876.0,0.0
1577523440816,4758196.0,4346392.0,0.0
1577523440861,4742170.0,4329537.0,0.0
1577523440914,4736449.0,4319845.0,0.0
1577523440959,4811028.0,4387866.0,0.0
1577523441015,4833143.0,4466070.0,0.0
1577523441062,5017510.0,4764497.0,0.0
1577523441113,5124703.0,5047426.0,0.0
1577523441159,5078036.0,4928751.0,0.0
1577523441210,5214455.0,5260785.0,0.0
1577523441256,5359512.0,5582376.0,0.0
1577523441302,5127025.0,5274973.0,0.0
1577523441357,4946369.0,4910287.0,0.0
1577523441401,4876988.0,4764082.0,0.0
1577523441449,4876594.0,4600281.0,0.0
1577523441501,4967326.0,4766183.0,0.0
1577523441546,4992812.0,4795666.0,0.0
1577523441600,4981207.0,4747920.0,0.0
1577523441648,5004623.0,4769631.0,0.0
1577523441697,5025523.0,4771537.0,0.0
1577523441746,4951549.0,4644077.0,0.0
1577523441802,4897572.0,4554260.0,0.0
1577523441851,5005045.0,4733559.0,0.0
1577523441898,5059813.0,4827818.0,0.0
1577523441944,5036649.0,4803795.0,0.0
1577523441997,5002849.0,4757946.0,0.0
1577523442044,4984521.0,4729620.0,0.0
1577523442096,4985484.0,4704538.0,0.0
1577523442137,5008359.0,4757581.0,0.0
1577523442193,5017268.0,4745589.0,0.0
1577523442239,4948506.0,4569555.0,0.0
1577523442291,4970650.0,4655713.0,0.0
1577523442336,4946791.0,4668157.0,0.0
1577523442391,4991282.0,4726595.0,0.0
1577523442438,4919302.0,4650040.0,0.0
1577523442483,4730997.0,4445157.0,0.0
1577523442540,4539725.0,4145237.0,0.0
1577523442580,4529389.0,4158904.0,0.0
1577523442635,4594232.0,4258807.0,0.0
1577523442683,4677250.0,4387462.0,0.0
1577523442727,4733578.0,4423940.0,0.0
1577523442776,4802100.0,4497257.0,0.0
1577523442826,4817550.0,4534263.0,0.0
1577523442878,4731652.0,4426577.0,0.0
1577523442924,4699162.0,4384371.0,0.0
1577523442979,4742180.0,4528128.0,0.0
1577523443028,4818369.0,4615846.0,0.0
1577523443077,4959150.0,4775621.0,0.0
1577523443119,4832170.0,4595224.0,0.0
1577523443175,4740898.0,4457545.0,0.0
1577523443223,4581085.0,4236202.0,0.0
1577523443270,4608304.0,4141635.0,0.0
1577523443315,4674688.0,4122670.0,0.0
1577523443372,4742950.0,4211265.0,0.0
1577523443421,4832904.0,4387492.0,0.0
1577523443464,4792303.0,4349435.0,0.0
1577523443520,4822838.0,4395593.0,0.0
1577523443562,4806406.0,4399463.0,0.0
1577523443618,4751705.0,4334130.0,0.0
1577523443660,4644520.0,4176434.0,0.0
1577523443714,4655597.0,4203107.0,0.0
1577523443759,4728675.0,4312362.0,0.0
1577523443814,4740581.0,4316369.0,0.0
1577523443858,4709652.0,4296555.0,0.0
1577523443913,4640861.0,4264905.0,0.0
1577523443960,4509856.0,4112574.0,0.0
1577523444011,4482761.0,4033497.0,0.0
1577523444059,4461070.0,3994459.0,0.0
1577523444106,4441719.0,3991838.0,0.0
1577523444156,4519864.0,4079441.0,0.0
1577523444207,4528851.0,4071629.0,0.0
1577523444252,4571548.0,4103907.0,0.0
1577523444299,4592209.0,4124009.0,0.0
1577523444354,4595909.0,4116766.0,0.0
1577523444401,4747776.0,4287540.0,0.0
1577523444446,4872586.0,4512534.0,0.0
1577523444501,4957214.0,4596486.0,0.0
1577523444551,4896079.0,4460001.0,0.0
1577523444593,4844962.0,4366378.0,0.0
1577523444647,4802157.0,4311206.0,0.0
1577523444697,4756656.0,4263517.0,0.0
1577523444741,4617571.0,4091164.0,0.0
1577523444789,4583675.0,4043060.0,0.0
1577523444838,4584456.0,4023769.0,0.0
1577523444894,4661589.0,4150284.0,0.0
1577523444941,4673454.0,4177755.0,0.0
1577523444992,4680380.0,4173267.0,0.0
1577523445039,4716934.0,4204416.0,0.0
1577523445083,4735236.0,4211803.0,0.0
1577523445140,4737345.0,4201073.0,0.0
1577523445183,4700501.0,4133709.0,0.0
1577523445237,4693317.0,4180412.0,0.0
1577523445282,4677751.0,4172525.0,0.0
1577523445336,4646235.0,4186646.0,0.0
1577523445378,4680082.0,4208028.0,0.0
1577523445434,4641544.0,4195323.0,0.0
1577523445477,4572444.0,4128670.0,0.0
1577523445533,4453556.0,3985895.0,0.0
1577523445583,4339870.0,3807366.0,0.0
1577523445631,4347595.0,3829288.0,0.0
1577523445676,4419709.0,3911064.0,0.0
1577523445724,4504057.0,4031041.0,0.0
1577523445777,4523148.0,4066360.0,0.0
1577523445820,4580593.0,4126051.0,0.0
1577523445867,4598152.0,4127995.0,0.0
1577523445920,4578041.0,4094921.0,0.0
1577523445965,4500841.0,3937273.0,0.0
1577523446018,4457130.0,3969848.0,0.0
1577523446067,4497720.0,4033477.0,0.0
1577523446115,4496554.0,4058414.0,0.0
1577523446163,4497816.0,4052798.0,0.0
1577523446221,4483523.0,4057778.0,0.0
1577523446267,4432424.0,4024972.0,0.0
1577523446311,4368786.0,3951587.0,0.0
1577523446364,4340738.0,3858734.0,0.0
1577523446416,4486402.0,3992320.0,0.0
1577523446459,4545351.0,4073730.0,0.0
1577523446514,4559142.0,4117737.0,0.0
1577523446565,4506138.0,4056960.0,0.0
1577523446605,4537721.0,4094313.0,0.0
1577523446656,4540572.0,4103541.0,0.0
1577523446706,4528176.0,4092166.0,0.0
1577523446755,4594261.0,4151988.0,0.0
1577523446804,4663881.0,4266609.0,0.0
1577523446858,4616387.0,4209915.0,0.0
1577523446902,4573129.0,4144408.0,0.0
1577523446956,4537480.0,4106459.0,0.0
1577523447000,4512591.0,4094949.0,0.0
1577523447046,4472301.0,4054503.0,0.0
1577523447102,4451399.0,4034787.0,0.0
1577523447147,4389081.0,3973479.0,0.0
1577523447197,4394002.0,3973770.0,0.0
1577523447244,4398500.0,3988738.0,0.0
1577523447301,4424460.0,4056998.0,0.0
1577523447342,4417842.0,4066803.0,0.0
1577523447398,4406660.0,4056903.0,0.0
1577523447442,4365722.0,4023365.0,0.0
1577523447496,4358710.0,3984190.0,0.0
1577523447547,4451139.0,4083043.0,0.0
1577523447588,4475633.0,4120742.0,0.0
1577523447644,4406255.0,4009705.0,0.0
1577523447691,4386807.0,4008173.0,0.0
1577523447735,4337434.0,3947589.0,0.0
1577523447784,4275817.0,3898668.0,0.0
1577523447840,4221003.0,3869580.0,0.0
1577523447882,4144804.0,3738335.0,0.0
1577523447936,4215011.0,3798861.0,0.0
1577523447982,4189005.0,3770861.0,0.0
1577523448037,4228699.0,3850536.0,0.0
1577523448083,4262651.0,3883680.0,0.0
1577523448128,4340102.0,3992821.0,0.0
1577523448186,4373881.0,4030876.0,0.0
1577523448232,4340987.0,3956016.0,0.0
1577523448282,4319538.0,3922450.0,0.0
1577523448330,4324989.0,3938911.0,0.0
1577523448381,4273342.0,3903416.0,0.0
1577523448422,4370694.0,4044728.0,0.0
1577523448472,4358046.0,4021120.0,0.0
1577523448523,4361331.0,4037109.0,0.0
1577523448575,4389928.0,4066795.0,0.0
1577523448624,4370673.0,4070060.0,0.0
1577523448674,4308248.0,4018653.0,0.0
1577523448725,4229922.0,3932052.0,0.0
1577523448772,4203973.0,3871112.0,0.0
1577523448815,4255418.0,3971563.0,0.0
1577523448866,4321377.0,4050121.0,0.0
1577523448920,4357044.0,4092550.0,0.0
1577523448963,4429362.0,4196827.0,0.0
1577523449019,4465655.0,4287183.0,0.0
1577523449067,4458518.0,4297018.0,0.0
1577523449108,4368642.0,4074528.0,0.0
1577523449164,4361908.0,4124056.0,0.0
1577523449216,4481538.0,4284034.0,0.0
1577523449265,4493261.0,4278977.0,0.0
1577523449311,4502093.0,4225635.0,0.0
1577523449363,4474660.0,4183870.0,0.0
1577523449404,4407102.0,4130076.0,0.0
1577523449461,4344003.0,4088110.0,0.0
1577523449504,4235152.0,3946298.0,0.0
1577523449558,4225993.0,3925648.0,0.0
1577523449606,4292087.0,4033507.0,0.0
1577523449650,4342625.0,4079634.0,0.0
1577523449705,4387395.0,4119163.0,0.0
1577523449755,4459952.0,4224893.0,0.0
1577523449806,4478957.0,4265077.0,0.0
1577523449850,4458749.0,4234150.0,0.0
1577523449902,4415741.0,4170087.0,0.0
1577523449945,4350967.0,4122621.0,0.0
1577523450000,4415049.0,4215598.0,0.0
1577523450044,4399540.0,4186067.0,0.0
1577523450093,4403124.0,4181347.0,0.0
1577523450144,4371214.0,4172005.0,0.0
1577523450197,4351274.0,4163539.0,0.0
1577523450245,4333667.0,4140094.0,0.0
1577523450289,4271349.0,4046529.0,0.0
1577523450345,4250871.0,4000065.0,0.0
1577523450391,4354204.0,4148242.0,0.0
1577523450443,4395688.0,4184970.0,0.0
1577523450487,4428168.0,4211082.0,0.0
1577523450543,4476472.0,4285440.0,0.0
1577523450587,4476828.0,4283977.0,0.0
1577523450639,4464546.0,4247048.0,0.0
1577523450689,4434456.0,4203308.0,0.0
1577523450730,4416156.0,4237657.0,0.0
1577523450781,4461118.0,4290218.0,0.0
1577523450836,4449241.0,4249437.0,0.0
1577523450887,4428706.0,4221051.0,0.0
1577523450927,4407901.0,4212614.0,0.0
1577523450977,4398307.0,4209897.0,0.0
1577523451025,4346624.0,4171436.0,0.0
1577523451073,4300669.0,4064627.0,0.0
1577523451126,4298069.0,4041317.0,0.0
1577523451181,4356408.0,4117150.0,0.0
1577523451228,4410502.0,4173218.0,0.0
1577523451277,4478793.0,4240556.0,0.0
1577523451325,4519749.0,4300804.0,0.0
1577523451374,4509480.0,4285238.0,0.0
1577523451425,4508383.0,4294436.0,0.0
1577523451469,4461147.0,4157681.0,0.0
1577523451518,4518389.0,4277851.0,0.0
1577523451566,4504529.0,4275366.0,0.0
1577523451615,4527242.0,4305436.0,0.0
1577523451666,4551013.0,4316928.0,0.0
1577523451712,4519035.0,4292232.0,0.0
1577523451764,4465761.0,4251343.0,0.0
1577523451814,4392248.0,4208337.0,0.0
1577523451867,4388937.0,4177909.0,0.0
1577523451912,4465596.0,4253395.0,0.0
1577523451965,4510366.0,4309396.0,0.0
1577523452010,4550820.0,4365897.0,0.0
1577523452065,4575431.0,4387086.0,0.0
1577523452107,4585216.0,4406438.0,0.0
1577523452163,4564575.0,4401198.0,0.0
1577523452207,4519218.0,4335258.0,0.0
1577523452261,4480536.0,4226714.0,0.0
1577523452306,4538819.0,4309790.0,0.0
1577523452353,4498037.0,4252519.0,0.0
1577523452408,4524641.0,4289958.0,0.0
1577523452457,4536094.0,4286799.0,0.0
1577523452504,4514604.0,4265656.0,0.0
1577523452550,4429988.0,4195622.0,0.0
1577523452602,4376029.0,4159983.0,0.0
1577523452651,4359184.0,4140373.0,0.0
1577523452701,4434062.0,4216129.0,0.0
1577523452751,4495553.0,4262265.0,0.0
1577523452802,4559490.0,4334967.0,0.0
1577523452850,4554510.0,4331906.0,0.0
1577523452901,4515366.0,4269982.0,0.0
1577523452950,4480479.0,4259059.0,0.0
1577523452997,4375509.0,4076879.0,0.0
1577523453044,4360974.0,4076214.0,0.0
1577523453095,4423582.0,4149264.0,0.0
1577523453149,4396517.0,4111158.0,0.0
1577523453188,4465877.0,4185923.0,0.0
1577523453244,4480402.0,4204858.0,0.0
1577523453285,4458719.0,4188582.0,0.0
1577523453342,4412602.0,4175366.0,0.0
1577523453387,4373766.0,4104185.0,0.0
1577523453441,4481259.0,4291258.0,0.0
1577523453490,4523668.0,4337125.0,0.0
1577523453536,4540409.0,4345177.0,0.0
1577523453585,4569583.0,4347162.0,0.0
1577523453634,4570922.0,4353393.0,0.0
1577523453687,4550580.0,4314057.0,0.0
1577523453728,4519401.0,4360397.0,0.0
1577523453778,4511754.0,4324171.0,0.0
1577523453830,4557535.0,4377715.0,0.0
1577523453882,4499896.0,4273958.0,0.0
1577523453926,4478321.0,4235672.0,0.0
1577523453979,4479900.0,4227283.0,0.0
1577523454028,4479756.0,4231415.0,0.0
1577523454078,4436047.0,4184710.0,0.0
1577523454125,4336201.0,4118113.0,0.0
1577523454168,4286413.0,4061921.0,0.0
1577523454227,4282947.0,4084922.0,0.0
1577523454269,4328610.0,4127110.0,0.0
1577523454325,4372813.0,4181048.0,0.0
1577523454366,4390371.0,4169837.0,0.0
1577523454422,4460753.0,4257007.0,0.0
1577523454474,4457563.0,4254579.0,0.0
1577523454521,4360330.0,4115927.0,0.0
1577523454569,4316320.0,3912057.0,0.0
1577523454611,4350264.0,4000796.0,0.0
1577523454664,4396921.0,4123479.0,0.0
1577523454715,4443357.0,4177042.0,0.0
1577523454764,4458806.0,4169153.0,0.0
1577523454809,4461281.0,4150332.0,0.0
1577523454865,4443520.0,4118133.0,0.0
1577523454908,4402123.0,4095305.0,0.0
1577523454963,4362776.0,4104571.0,0.0
1577523455014,4412381.0,4145641.0,0.0
1577523455054,4572454.0,4565664.0,0.0
1577523455107,4879916.0,5073393.0,0.0
1577523455158,5222507.0,5580190.0,0.0
1577523455208,5406478.0,5845061.0,0.0
1577523455254,5523931.0,5879379.0,0.0
1577523455304,5612785.0,6020979.0,0.0
1577523455352,5185578.0,5694010.0,0.0
1577523455406,5076215.0,5707794.0,0.0
1577523455448,5219425.0,5815493.0,0.0
1577523455503,5339834.0,5820174.0,0.0
1577523455554,5360717.0,5768456.0,0.0
1577523455602,5229019.0,5629446.0,0.0
1577523455645,4985224.0,5381300.0,0.0
1577523455699,4748932.0,5053496.0,0.0
1577523455743,4671855.0,4853473.0,0.0
1577523455794,4647747.0,4731062.0,0.0
1577523455841,4639859.0,4715221.0,0.0
1577523455887,4674610.0,4748667.0,0.0
1577523455938,4686295.0,4743330.0,0.0
1577523455989,4737412.0,4795615.0,0.0
1577523456036,4749722.0,4801686.0,0.0
1577523456091,4705789.0,4746756.0,0.0
1577523456134,4605714.0,4571022.0,0.0
1577523456188,4618542.0,4715526.0,0.0
1577523456239,4645946.0,4779073.0,0.0
1577523456284,4665760.0,4770706.0,0.0
1577523456335,4663419.0,4738909.0,0.0
1577523456385,4630670.0,4720207.0,0.0
1577523456429,4555810.0,4640729.0,0.0
1577523456479,4541767.0,4520728.0,0.0
1577523456532,4598749.0,4461060.0,0.0
1577523456584,4613457.0,4492743.0,0.0
1577523456631,4633098.0,4537451.0,0.0
1577523456672,4664748.0,4578450.0,0.0
1577523456726,4704440.0,4627738.0,0.0
1577523456772,4737816.0,4671632.0,0.0
1577523456822,4727086.0,4654071.0,0.0
1577523456869,4692719.0,4521305.0,0.0
1577523456921,4633579.0,4510890.0,0.0
1577523456972,4684946.0,4639181.0,0.0
1577523457025,4660471.0,4610371.0,0.0
1577523457071,4652940.0,4575262.0,0.0
1577523457123,4610328.0,4528032.0,0.0
1577523457170,4641458.0,4562293.0,0.0
1577523457214,4634764.0,4532622.0,0.0
1577523457266,4577107.0,4475658.0,0.0
1577523457313,4529881.0,4381673.0,0.0
1577523457363,4506071.0,4379796.0,0.0
1577523457413,4523861.0,4401755.0,0.0
1577523457459,4560973.0,4441748.0,0.0
1577523457513,4589696.0,4477240.0,0.0
1577523457558,4626933.0,4534182.0,0.0
1577523457612,4616647.0,4519383.0,0.0
1577523457663,4596650.0,4461909.0,0.0
1577523457712,4580266.0,4453473.0,0.0
1577523457760,4520691.0,4405057.0,0.0
1577523457809,4411668.0,4264407.0,0.0
1577523457856,4318805.0,4132520.0,0.0
1577523457906,4338330.0,4131842.0,0.0
1577523457954,4348395.0,4143071.0,0.0
1577523458004,4326473.0,4118286.0,0.0
1577523458055,4271311.0,4072118.0,0.0
1577523458105,4230432.0,4044460.0,0.0
1577523458154,4298396.0,4145704.0,0.0
1577523458201,4302913.0,4157521.0,0.0
1577523458249,4305021.0,4175329.0,0.0
1577523458295,4312661.0,4192414.0,0.0
1577523458350,4274056.0,4168431.0,0.0
1577523458391,4257200.0,4151143.0,0.0
1577523458445,4249888.0,4159217.0,0.0
1577523458492,4179846.0,4065741.0,0.0
1577523458546,4116736.0,3999640.0,0.0
1577523458594,4077283.0,3944110.0,0.0
1577523458646,4053455.0,3877940.0,0.0
1577523458695,4055352.0,3855124.0,0.0
1577523458737,4076088.0,3891555.0,0.0
1577523458791,4054977.0,3864508.0,0.0
1577523458841,4034893.0,3868940.0,0.0
1577523458882,3887225.0,3682214.0,0.0
1577523458930,3918222.0,3720297.0,0.0
1577523458979,3919723.0,3720129.0,0.0
1577523459030,3952790.0,3762415.0,0.0
1577523459077,3979857.0,3803337.0,0.0
1577523459129,4007346.0,3865289.0,0.0
1577523459185,4007249.0,3896734.0,0.0
1577523459233,4020782.0,3901980.0,0.0
1577523459283,4008289.0,3885584.0,0.0
1577523459331,3989623.0,3885121.0,0.0
1577523459372,3950094.0,3853224.0,0.0
1577523459431,3874809.0,3772389.0,0.0
1577523459472,3772903.0,3681525.0,0.0
1577523459528,3787572.0,3669337.0,0.0
1577523459579,3770225.0,3653902.0,0.0
1577523459621,3760806.0,3638263.0,0.0
1577523459675,3780870.0,3581748.0,0.0
1577523459725,3810304.0,3619224.0,0.0
1577523459774,3809438.0,3629775.0,0.0
1577523459823,3788314.0,3631473.0,0.0
1577523459872,3817778.0,3723605.0,0.0
1577523459913,3853090.0,3801780.0,0.0
1577523459964,3870187.0,3873696.0,0.0
1577523460013,3979836.0,4023753.0,0.0
1577523460065,4130318.0,4248084.0,0.0
1577523460117,4353731.0,4497761.0,0.0
1577523460163,4464239.0,4674110.0,0.0
1577523460215,4506225.0,4762489.0,0.0
1577523460256,4537153.0,4822564.0,0.0
1577523460307,4596215.0,4919629.0,0.0
1577523460355,4689030.0,5023290.0,0.0
1577523460410,4692835.0,5069927.0,0.0
1577523460452,4646920.0,5074807.0,0.0
1577523460511,4562301.0,5029176.0,0.0
1577523460555,4503913.0,4972732.0,0.0
1577523460609,4469382.0,4966318.0,0.0
1577523460657,4387683.0,4906252.0,0.0
1577523460706,4358028.0,4878114.0,0.0
1577523460748,4365289.0,4866011.0,0.0
1577523460805,4365377.0,4857725.0,0.0
1577523460845,4315048.0,4781612.0,0.0
1577523460894,4220212.0,4602577.0,0.0
1577523460949,4201998.0,4524141.0,0.0
1577523460993,4182485.0,4482314.0,0.0
1577523461050,4161428.0,4472718.0,0.0
1577523461096,4151653.0,4489579.0,0.0
1577523461146,4091028.0,4410571.0,0.0
1577523461196,4053156.0,4345921.0,0.0
1577523461243,4082417.0,4357215.0,0.0
1577523461294,4098080.0,4381435.0,0.0
1577523461339,4171524.0,4573267.0,0.0
1577523461393,4223431.0,4624778.0,0.0
1577523461435,4395140.0,4890311.0,0.0
1577523461491,4521858.0,4970471.0,0.0
1577523461533,4591717.0,5024000.0,0.0
1577523461593,4625718.0,5012108.0,0.0
1577523461638,4591227.0,4922965.0,0.0
1577523461684,4507891.0,4753674.0,0.0
1577523461730,4445842.0,4622055.0,0.0
1577523461778,4401275.0,4492865.0,0.0
1577523461828,4418198.0,4481438.0,0.0
1577523461878,4424488.0,4502009.0,0.0
1577523461926,4449107.0,4546228.0,0.0
1577523461977,4584196.0,4752503.0,0.0
1577523462031,4676605.0,4934574.0,0.0
1577523462075,4797370.0,5060366.0,0.0
1577523462131,4916662.0,5006455.0,0.0
1577523462176,4991252.0,4922099.0,0.0
1577523462227,5161073.0,5081439.0,0.0
1577523462277,5134577.0,5139252.0,0.0
1577523462326,5000009.0,5098898.0,0.0
1577523462376,5141262.0,5314517.0,0.0
1577523462419,5310398.0,5447525.0,0.0
1577523462467,5327496.0,5398034.0,0.0
1577523462515,5374876.0,5553371.0,0.0
1577523462574,5423498.0,5629458.0,0.0
1577523462615,5464771.0,5691229.0,0.0
1577523462670,5563229.0,5841340.0,0.0
1577523462718,5642731.0,5971543.0,0.0
1577523462766,5635035.0,6034964.0,0.0
1577523462816,5499436.0,5873080.0,0.0
1577523462860,5234123.0,5481888.0,0.0
1577523462916,5313846.0,5573871.0,0.0
1577523462959,5604628.0,5989634.0,0.0
1577523463013,5541768.0,6022005.0,0.0
1577523463055,5534218.0,6045389.0,0.0
1577523463110,5526117.0,5903305.0,0.0
1577523463156,5202935.0,5371767.0,0.0
1577523463210,5123701.0,5290392.0,0.0
1577523463258,5451873.0,5687915.0,0.0
1577523463306,5958842.0,6243208.0,0.0
1577523463358,5848220.0,6188582.0,0.0
1577523463408,5775490.0,6154006.0,0.0
1577523463455,5813355.0,6219621.0,0.0
1577523463501,5818353.0,6311196.0,0.0
1577523463554,5777932.0,6216748.0,0.0
1577523463596,5770863.0,6154152.0,0.0
1577523463652,5784580.0,6106278.0,0.0
1577523463697,5830836.0,6144587.0,0.0
1577523463744,5900241.0,6156550.0,0.0
1577523463797,5903622.0,6108777.0,0.0
1577523463847,5961604.0,6165686.0,0.0
1577523463897,6022798.0,6254051.0,0.0
1577523463943,5889306.0,6062293.0,0.0
1577523463995,5597074.0,5808765.0,0.0
1577523464038,5453123.0,5683844.0,0.0
1577523464094,5452568.0,5686389.0,0.0
1577523464139,5345796.0,5548103.0,0.0
1577523464192,5252794.0,5453167.0,0.0
1577523464238,5178292.0,5328802.0,0.0
1577523464291,5189227.0,5305520.0,0.0
1577523464339,5217676.0,5306288.0,0.0
1577523464386,5236943.0,5307985.0,0.0
1577523464436,5261320.0,5347933.0,0.0
1577523464482,5347559.0,5436964.0,0.0
1577523464535,5534183.0,5630114.0,0.0
1577523464577,5715041.0,5821169.0,0.0
1577523464627,5773714.0,6010382.0,0.0
1577523464677,5877591.0,6318874.0,0.0
1577523464732,5711670.0,6037304.0,0.0
1577523464779,5809286.0,6182895.0,0.0
1577523464823,6117721.0,6545639.0,0.0
1577523464879,5584410.0,5890539.0,0.0
1577523464922,5624641.0,5797865.0,0.0
1577523464977,5629423.0,5743106.0,0.0
1577523465029,5592517.0,5728678.0,0.0
1577523465067,5711819.0,5899822.0,0.0
1577523465116,5771950.0,5999630.0,0.0
1577523465167,5719938.0,5944405.0,0.0
1577523465219,5709149.0,5970411.0,0.0
1577523465272,5680961.0,5964068.0,0.0
1577523465321,5634941.0,5904558.0,0.0
1577523465371,5651313.0,5737033.0,0.0
1577523465418,5572447.0,5660643.0,0.0
1577523465459,5390447.0,5473680.0,0.0
1577523465510,5242290.0,5307522.0,0.0
1577523465562,5113559.0,5137338.0,0.0
1577523465615,5066262.0,5105046.0,0.0
1577523465657,5019847.0,5046168.0,0.0
1577523465714,5066658.0,5093195.0,0.0
1577523465762,5223271.0,5220660.0,0.0
1577523465811,5443399.0,5334296.0,0.0
1577523465860,5756832.0,5621847.0,0.0
1577523465909,5848882.0,5691975.0,0.0
1577523465959,6014793.0,5928372.0,0.0
1577523466005,6083313.0,6042800.0,0.0
1577523466055,6119722.0,6065097.0,0.0
1577523466104,6147673.0,6022414.0,0.0
1577523466155,6153667.0,5962418.0,0.0
1577523466198,6021384.0,5853531.0,0.0
1577523466255,6155702.0,6145560.0,0.0
1577523466300,6309286.0,6341963.0,0.0
1577523466353,6356855.0,6469168.0,0.0
1577523466400,6440234.0,6522481.0,0.0
1577523466451,6530226.0,6658472.0,0.0
1577523466500,6514771.0,6775263.0,0.0
1577523466544,6545661.0,6874518.0,0.0
1577523466599,6614103.0,7283314.0,0.0
1577523466645,6592530.0,7187671.0,0.0
1577523466696,6697786.0,7377059.0,0.0
1577523466739,6583212.0,7352560.0,0.0
1577523466788,6559581.0,7106158.0,0.0
1577523466838,6299280.0,6884449.0,0.0
1577523466885,6120671.0,6671274.0,0.0
1577523466936,6051439.0,6576645.0,0.0
1577523466985,5966567.0,6467516.0,0.0
1577523467034,5936231.0,6421940.0,0.0
1577523467081,5949517.0,6414034.0,0.0
1577523467137,5992823.0,6472992.0,0.0
1577523467179,5950614.0,6441482.0,0.0
1577523467235,5955848.0,6458536.0,0.0
1577523467279,5927704.0,6425446.0,0.0
1577523467326,5896159.0,6387832.0,0.0
1577523467381,5815742.0,6302014.0,0.0
1577523467431,5745015.0,6217999.0,0.0
1577523467472,5684636.0,6126413.0,0.0
1577523467526,5614984.0,6039757.0,0.0
1577523467572,5559761.0,5956525.0,0.0
1577523467622,5469100.0,5838486.0,0.0
1577523467672,5424629.0,5767712.0,0.0
1577523467720,5518240.0,5898588.0,0.0
1577523467776,5577705.0,5987674.0,0.0
1577523467822,5699539.0,6087710.0,0.0
1577523467875,5809895.0,6130562.0,0.0
1577523467924,5895196.0,6117810.0,0.0
1577523467971,5702127.0,6097864.0,0.0
1577523468021,5498782.0,5920336.0,0.0
1577523468065,5533754.0,5839309.0,0.0
1577523468115,5496169.0,5836990.0,0.0
1577523468161,5444325.0,5776637.0,0.0
1577523468217,5386038.0,5761440.0,0.0
1577523468260,5331244.0,5727595.0,0.0
1577523468315,5291759.0,5673554.0,0.0
1577523468362,5268161.0,5607183.0,0.0
1577523468413,5216363.0,5530207.0,0.0
1577523468464,5207363.0,5512663.0,0.0
1577523468510,5244700.0,5558266.0,0.0
1577523468561,5251167.0,5572723.0,0.0
1577523468605,5232430.0,5585839.0,0.0
1577523468660,5200896.0,5566187.0,0.0
1577523468701,5191035.0,5557611.0,0.0
1577523468751,5176380.0,5549271.0,0.0
1577523468802,5144439.0,5499994.0,0.0
1577523468855,5092335.0,5455605.0,0.0
1577523468904,5055656.0,5419597.0,0.0
1577523468955,5040097.0,5408800.0,0.0
1577523469004,4987881.0,5384816.0,0.0
1577523469051,4929253.0,5310411.0,0.0
1577523469102,4896507.0,5257502.0,0.0
1577523469145,4883539.0,5206771.0,0.0
1577523469201,4867380.0,5187832.0,0.0
1577523469241,4860200.0,5199565.0,0.0
1577523469298,5010789.0,5475425.0,0.0
1577523469342,5196135.0,5676907.0,0.0
1577523469395,5372413.0,5883545.0,0.0
1577523469445,5397300.0,5955295.0,0.0
1577523469494,5178644.0,5650552.0,0.0
1577523469545,5068409.0,5519493.0,0.0
1577523469586,4978281.0,5422740.0,0.0
1577523469635,4905790.0,5350751.0,0.0
1577523469683,4840064.0,5296988.0,0.0
1577523469740,4816906.0,5255280.0,0.0
1577523469783,4805453.0,5274320.0,0.0
1577523469838,4793059.0,5272980.0,0.0
1577523469884,4780519.0,5288929.0,0.0
1577523469930,4786037.0,5299601.0,0.0
1577523469985,4738649.0,5256372.0,0.0
1577523470034,4710710.0,5239511.0,0.0
1577523470084,4778156.0,5360695.0,0.0
1577523470130,4895071.0,5497228.0,0.0
1577523470181,4990990.0,5737346.0,0.0
1577523470222,4851754.0,5412864.0,0.0
1577523470280,4859194.0,5555782.0,0.0
1577523470323,4628610.0,5138833.0,0.0
1577523470372,4674381.0,5218590.0,0.0
1577523470423,4645863.0,5202527.0,0.0
1577523470470,4824334.0,5443621.0,0.0
1577523470524,4981617.0,5616554.0,0.0
1577523470573,5056944.0,5681558.0,0.0
1577523470621,5028020.0,5658583.0,0.0
1577523470667,5320185.0,6021739.0,0.0
1577523470723,5520853.0,6219828.0,0.0
1577523470766,5684331.0,6367927.0,0.0
1577523470821,5591860.0,6174029.0,0.0
1577523470866,5199290.0,5694659.0,0.0
1577523470921,4980666.0,5472660.0,0.0
1577523470968,4900510.0,5353948.0,0.0
1577523471016,4896237.0,5327452.0,0.0
1577523471065,4852908.0,5261008.0,0.0
1577523471113,4825114.0,5239260.0,0.0
1577523471167,4853733.0,5288972.0,0.0
1577523471212,4932419.0,5435085.0,0.0
1577523471263,5423884.0,5968160.0,0.0
1577523471305,5668467.0,6303801.0,0.0
1577523471362,5720864.0,6391825.0,0.0
1577523471406,5746338.0,6455029.0,0.0
1577523471459,5463503.0,6075906.0,0.0
1577523471508,5281810.0,5814334.0,0.0
1577523471557,5181787.0,5674952.0,0.0
1577523471608,5081029.0,5519731.0,0.0
1577523471656,4977828.0,5366869.0,0.0
1577523471707,4938628.0,5300788.0,0.0
1577523471748,4820750.0,5221842.0,0.0
1577523471803,4857126.0,5308902.0,0.0
1577523471845,4967879.0,5491782.0,0.0
1577523471899,4985100.0,5527998.0,0.0
1577523471946,4890617.0,5363962.0,0.0
1577523471999,4944800.0,5448538.0,0.0
1577523472048,4864304.0,5299029.0,0.0
1577523472092,5008867.0,5525514.0,0.0
1577523472148,5470356.0,5997199.0,0.0
1577523472191,5610552.0,6180608.0,0.0
1577523472246,5621599.0,6060122.0,0.0
1577523472290,5752659.0,6201615.0,0.0
1577523472343,5856312.0,6271495.0,0.0
1577523472386,5950896.0,6365944.0,0.0
1577523472442,5867552.0,6209493.0,0.0
1577523472484,5604729.0,5898726.0,0.0
1577523472532,5469360.0,5785856.0,0.0
1577523472585,5465165.0,5823651.0,0.0
1577523472631,5430735.0,5791525.0,0.0
1577523472680,5440605.0,5861657.0,0.0
1577523472730,5501507.0,5924316.0,0.0
1577523472781,5710439.0,6165340.0,0.0
1577523472832,5880486.0,6236659.0,0.0
1577523472884,5974471.0,6397984.0,0.0
1577523472925,6098793.0,6642266.0,0.0
1577523472982,6168783.0,6638479.0,0.0
1577523473026,6190866.0,6736853.0,0.0
1577523473080,6339498.0,6952149.0,0.0
1577523473124,6423001.0,7025676.0,0.0
1577523473176,6400524.0,7021763.0,0.0
1577523473224,6201439.0,6673315.0,0.0
1577523473270,5920479.0,6389925.0,0.0
1577523473326,5905690.0,6410109.0,0.0
1577523473368,5789895.0,6274203.0,0.0
1577523473423,5845920.0,6368835.0,0.0
1577523473465,5954909.0,6480577.0,0.0
1577523473522,6168389.0,6925708.0,0.0
1577523473565,6225241.0,7013355.0,0.0
1577523473621,6260880.0,7078445.0,0.0
1577523473667,6303553.0,7118853.0,0.0
1577523473709,6220763.0,7025689.0,0.0
1577523473761,6029616.0,6809261.0,0.0
1577523473809,5954096.0,6722173.0,0.0
1577523473861,5683720.0,6379954.0,0.0
1577523473907,5791329.0,6613408.0,0.0
1577523473964,5658392.0,6343371.0,0.0
1577523474005,6068490.0,6764272.0,0.0
1577523474062,6000239.0,6590571.0,0.0
1577523474108,5856424.0,6485729.0,0.0
1577523474160,5882363.0,6543681.0,0.0
1577523474205,5980385.0,6576981.0,0.0
1577523474258,6129830.0,6766298.0,0.0
1577523474301,6184602.0,6800238.0,0.0
1577523474354,6276325.0,6908446.0,0.0
1577523474399,6074199.0,6555665.0,0.0
1577523474452,5878475.0,6351656.0,0.0
1577523474504,5766499.0,6233642.0,0.0
1577523474551,5707906.0,6191851.0,0.0
1577523474603,5716284.0,6240835.0,0.0
1577523474647,5688730.0,6206559.0,0.0
1577523474700,5667900.0,6193611.0,0.0
1577523474747,5666964.0,6204074.0,0.0
1577523474798,5693478.0,6287111.0,0.0
1577523474843,5724007.0,6392957.0,0.0
1577523474894,5788468.0,6541056.0,0.0
1577523474947,5823748.0,6622878.0,0.0
1577523474992,6039962.0,6885679.0,0.0
1577523475043,6169406.0,7091463.0,0.0
1577523475087,6167913.0,6990115.0,0.0
1577523475141,6197707.0,6932567.0,0.0
1577523475192,6248206.0,6995365.0,0.0
1577523475239,6241387.0,6906378.0,0.0
1577523475285,6192042.0,6776242.0,0.0
1577523475338,6153236.0,6754745.0,0.0
1577523475384,6107261.0,6664907.0,0.0
1577523475434,6081347.0,6602960.0,0.0
1577523475484,6083472.0,6553193.0,0.0
1577523475528,6009963.0,6494027.0,0.0
1577523475577,5887780.0,6444917.0,0.0
1577523475631,5825149.0,6443883.0,0.0
1577523475681,5866307.0,6542760.0,0.0
1577523475734,5896781.0,6567818.0,0.0
1577523475779,6020683.0,6706502.0,0.0
1577523475826,6167247.0,6909256.0,0.0
1577523475872,6256449.0,7039616.0,0.0
1577523475924,6312236.0,7137920.0,0.0
1577523475972,6305985.0,7161188.0,0.0
1577523476027,6248521.0,7108615.0,0.0
1577523476072,6047006.0,6803912.0,0.0
1577523476117,5869395.0,6458912.0,0.0
1577523476172,5668004.0,6299653.0,0.0
1577523476222,5488333.0,6112768.0,0.0
1577523476271,5409149.0,6112263.0,0.0
1577523476320,5341080.0,6046323.0,0.0
1577523476365,5336716.0,6025246.0,0.0
1577523476411,5440944.0,6276384.0,0.0
1577523476464,5533641.0,6467363.0,0.0
1577523476514,5632532.0,6687337.0,0.0
1577523476564,5779559.0,6880705.0,0.0
1577523476609,5919575.0,7008341.0,0.0
1577523476666,6045277.0,7161203.0,0.0
1577523476709,6120921.0,7262594.0,0.0
1577523476756,6149528.0,7322864.0,0.0
1577523476813,6177659.0,7365995.0,0.0
1577523476860,6172515.0,7383652.0,0.0
1577523476909,6122662.0,7311104.0,0.0
1577523476959,6111920.0,7330938.0,0.0
1577523477005,5981980.0,7134539.0,0.0
1577523477050,6044836.0,7212619.0,0.0
1577523477104,6047481.0,7159248.0,0.0
1577523477151,6063130.0,7182351.0,0.0
1577523477205,6000036.0,7132275.0,0.0
1577523477255,5948499.0,7061027.0,0.0
1577523477302,5946508.0,7066699.0,0.0
1577523477350,5923996.0,7034390.0,0.0
1577523477401,6029277.0,7114413.0,0.0
1577523477448,6149550.0,7116227.0,0.0
1577523477498,6201575.0,7093014.0,0.0
1577523477545,6260892.0,7110751.0,0.0
1577523477596,6322549.0,7192197.0,0.0
1577523477644,6376913.0,7239060.0,0.0
1577523477693,6448217.0,7321552.0,0.0
1577523477744,6444135.0,7336455.0,0.0
1577523477789,6335699.0,7237509.0,0.0
1577523477843,6127898.0,6875525.0,0.0
1577523477892,6195943.0,7065175.0,0.0
1577523477942,6163978.0,7080764.0,0.0
1577523477989,6343421.0,7285152.0,0.0
1577523478037,6404514.0,7345478.0,0.0
1577523478087,6470954.0,7436252.0,0.0
1577523478135,6491127.0,7458504.0,0.0
1577523478184,6465099.0,7460613.0,0.0
1577523478232,6435699.0,7448322.0,0.0
1577523478284,6381832.0,7385579.0,0.0
1577523478329,6327875.0,7363832.0,0.0
1577523478384,6197650.0,7192184.0,0.0
1577523478434,6188730.0,7187699.0,0.0
1577523478474,6068591.0,7043706.0,0.0
1577523478530,5987734.0,6984764.0,0.0
1577523478572,5876201.0,6859936.0,0.0
1577523478631,5777694.0,6713695.0,0.0
1577523478670,5841149.0,6726294.0,0.0
1577523478724,5863084.0,6664375.0,0.0
1577523478769,5910800.0,6662909.0,0.0
1577523478816,5892709.0,6581561.0,0.0
1577523478871,5880578.0,6529169.0,0.0
1577523478917,5824709.0,6450517.0,0.0
1577523478967,5809432.0,6423100.0,0.0
1577523479016,5693783.0,6269497.0,0.0
1577523479069,5670684.0,6275922.0,0.0
1577523479112,5502750.0,6076215.0,0.0
1577523479171,5434794.0,5999475.0,0.0
1577523479210,5376495.0,5918351.0,0.0
1577523479265,5369112.0,5912415.0,0.0
1577523479310,5363130.0,5922976.0,0.0
1577523479359,5360223.0,5930393.0,0.0
1577523479412,5374707.0,5948423.0,0.0
1577523479466,5349900.0,5921018.0,0.0
1577523479514,5316906.0,5887510.0,0.0
1577523479561,5251019.0,5824281.0,0.0
1577523479610,5229954.0,5794863.0,0.0
1577523479656,5390606.0,6040791.0,0.0
1577523479711,5437214.0,6182339.0,0.0
1577523479753,5507624.0,6267374.0,0.0
1577523479810,5499075.0,6337310.0,0.0
1577523479851,5497356.0,6367969.0,0.0
1577523479905,5370514.0,6215695.0,0.0
1577523479955,5261332.0,6124724.0,0.0
1577523479999,5216861.0,6080097.0,0.0
1577523480045,5192653.0,6108395.0,0.0
1577523480096,5196452.0,6163162.0,0.0
1577523480149,5161841.0,6195749.0,0.0
1577523480199,5057680.0,6086046.0,0.0
1577523480249,5015448.0,6042930.0,0.0
1577523480291,4923782.0,5891142.0,0.0
1577523480349,4848329.0,5784179.0,0.0
1577523480394,4806233.0,5765672.0,0.0
1577523480445,4747174.0,5665091.0,0.0
1577523480495,4671260.0,5502662.0,0.0
1577523480546,4601494.0,5354787.0,0.0
1577523480596,4579649.0,5307883.0,0.0
1577523480642,4552557.0,5217792.0,0.0
1577523480691,4534489.0,5184215.0,0.0
1577523480733,4479150.0,5104808.0,0.0
1577523480784,4526925.0,5119390.0,0.0
1577523480840,4559217.0,5115550.0,0.0
1577523480884,4501879.0,5014174.0,0.0
1577523480936,4543195.0,5014437.0,0.0
1577523480983,4608233.0,5044567.0,0.0
1577523481035,4807328.0,5299476.0,0.0
1577523481079,5048848.0,5631109.0,0.0
1577523481133,5210632.0,5781692.0,0.0
1577523481175,5213639.0,5716602.0,0.0
1577523481232,5128789.0,5606106.0,0.0
1577523481271,5023827.0,5487618.0,0.0
1577523481330,5025229.0,5539230.0,0.0
1577523481372,5001551.0,5532734.0,0.0
1577523481425,4933040.0,5453706.0,0.0
1577523481475,4850115.0,5340694.0,0.0
1577523481526,4837983.0,5371786.0,0.0
1577523481574,4759444.0,5256596.0,0.0
1577523481623,4638594.0,5093943.0,0.0
1577523481673,4535539.0,4907642.0,0.0
1577523481713,4439645.0,4765816.0,0.0
1577523481762,4295830.0,4547809.0,0.0
1577523481811,4258673.0,4517694.0,0.0
1577523481861,4177127.0,4419488.0,0.0
1577523481911,4113298.0,4335989.0,0.0
1577523481961,4070818.0,4079301.0,0.0
1577523482009,4000125.0,3922074.0,0.0
1577523482064,3900454.0,3809706.0,0.0
1577523482106,3834024.0,3734656.0,0.0
1577523482158,3828845.0,3730052.0,0.0
1577523482206,3820716.0,3713137.0,0.0
1577523482253,3802725.0,3688923.0,0.0
1577523482312,3786760.0,3666614.0,0.0
1577523482354,3759160.0,3622635.0,0.0
1577523482410,3757486.0,3613783.0,0.0
1577523482455,3757350.0,3604536.0,0.0
1577523482507,3700193.0,3530630.0,0.0
1577523482549,3676448.0,3509701.0,0.0
1577523482603,3623385.0,3452294.0,0.0
1577523482654,3560764.0,3371875.0,0.0
1577523482700,3558889.0,3385553.0,0.0
1577523482752,3457743.0,3353786.0,0.0
1577523482802,3421559.0,3322762.0,0.0
1577523482851,3416011.0,3314007.0,0.0
1577523482896,3390551.0,3274786.0,0.0
1577523482947,3325612.0,3198760.0,0.0
1577523482998,3283206.0,3138598.0,0.0
1577523483042,3256218.0,3102220.0,0.0
1577523483096,3253142.0,3091884.0,0.0
1577523483143,3241370.0,3078081.0,0.0
1577523483194,3220469.0,2994874.0,0.0
1577523483241,3201952.0,2974553.0,0.0
1577523483293,3197149.0,2961958.0,0.0
1577523483335,3177723.0,2939637.0,0.0
1577523483391,3110280.0,2864256.0,0.0
1577523483436,3022006.0,2779290.0,0.0
1577523483487,2982840.0,2738304.0,0.0
1577523483536,2993737.0,2747680.0,0.0
1577523483581,2993182.0,2745281.0,0.0
1577523483635,2995610.0,2754413.0,0.0
1577523483682,2989056.0,2751128.0,0.0
1577523483732,2983942.0,2747904.0,0.0
1577523483776,2972178.0,2738771.0,0.0
1577523483824,2913473.0,2682174.0,0.0
1577523483873,2882222.0,2656414.0,0.0
1577523483923,2878937.0,2655715.0,0.0
1577523483976,2890361.0,2680429.0,0.0
1577523484023,2888315.0,2684084.0,0.0
1577523484071,2880054.0,2671794.0,0.0
1577523484126,2880540.0,2685941.0,0.0
1577523484176,2892259.0,2716355.0,0.0
1577523484222,2904813.0,2742725.0,0.0
1577523484274,2844036.0,2681752.0,0.0
1577523484314,2817751.0,2655626.0,0.0
1577523484371,2802946.0,2641507.0,0.0
1577523484416,2781342.0,2597601.0,0.0
1577523484462,2758605.0,2556281.0,0.0
1577523484517,2765799.0,2575252.0,0.0
1577523484570,2731589.0,2575571.0,0.0
1577523484618,2727846.0,2574553.0,0.0
1577523484660,2746181.0,2607648.0,0.0
1577523484709,2719169.0,2581849.0,0.0
1577523484759,2688146.0,2547752.0,0.0
1577523484814,2685263.0,2553502.0,0.0
1577523484856,2691273.0,2566826.0,0.0
1577523484910,2689877.0,2566595.0,0.0
1577523484956,2703435.0,2594592.0,0.0
1577523485003,2713849.0,2595842.0,0.0
1577523485055,2730774.0,2621379.0,0.0
1577523485105,2735353.0,2623185.0,0.0
1577523485159,2717230.0,2599594.0,0.0
1577523485203,2671049.0,2551757.0,0.0
1577523485254,2629453.0,2508586.0,0.0
1577523485297,2613528.0,2493027.0,0.0
1577523485355,2613780.0,2500293.0,0.0
1577523485396,2639069.0,2537096.0,0.0
1577523485452,2685017.0,2575733.0,0.0
1577523485500,2980792.0,2953644.0,0.0
1577523485550,3533905.0,3543082.0,0.0
1577523485593,3957946.0,3992338.0,0.0
1577523485650,4213211.0,4249524.0,0.0
1577523485698,4293414.0,4210598.0,0.0
1577523485748,4141277.0,4058987.0,0.0
1577523485789,3889233.0,3782883.0,0.0
1577523485843,3661594.0,3527848.0,0.0
1577523485894,3649393.0,3496508.0,0.0
1577523485941,3812492.0,3669636.0,0.0
1577523485986,3850682.0,3643755.0,0.0
1577523486043,3764616.0,3533742.0,0.0
1577523486090,3703448.0,3486439.0,0.0
1577523486140,3681633.0,3591371.0,0.0
1577523486190,3790110.0,3719456.0,0.0
1577523486237,3835131.0,3721486.0,0.0
1577523486281,3842391.0,3708905.0,0.0
1577523486336,3847700.0,3694677.0,0.0
1577523486377,3853045.0,3635419.0,0.0
1577523486434,3834207.0,3572825.0,0.0
1577523486476,3865705.0,3601180.0,0.0
1577523486532,3813363.0,3532537.0,0.0
1577523486579,3802042.0,3549145.0,0.0
1577523486622,4096946.0,3968717.0,0.0
1577523486681,4524936.0,4473618.0,0.0
1577523486730,4816611.0,4832327.0,0.0
1577523486772,5028754.0,5074521.0,0.0
1577523486820,5315244.0,5401902.0,0.0
1577523486875,5323385.0,5406311.0,0.0
1577523486918,5267653.0,5383765.0,0.0
1577523486967,5312203.0,5502626.0,0.0
1577523487020,5070547.0,5164068.0,0.0
1577523487064,4869845.0,4916941.0,0.0
1577523487123,4664474.0,4617189.0,0.0
1577523487164,4515663.0,4399018.0,0.0
1577523487213,4576381.0,4530972.0,0.0
1577523487260,4984330.0,5271950.0,0.0
1577523487310,5369246.0,5713978.0,0.0
1577523487360,5574912.0,5920186.0,0.0
1577523487410,5676619.0,6029797.0,0.0
1577523487456,5492427.0,5767755.0,0.0
1577523487508,5215945.0,5414192.0,0.0
1577523487558,5179989.0,5329637.0,0.0
1577523487611,5370615.0,5593534.0,0.0
1577523487661,5472209.0,5712247.0,0.0
1577523487708,5596598.0,5864035.0,0.0
1577523487752,5726732.0,5968987.0,0.0
1577523487800,5903441.0,6032985.0,0.0
1577523487856,6001225.0,6084782.0,0.0
1577523487899,6060155.0,6150286.0,0.0
1577523487955,6058313.0,6125704.0,0.0
1577523488000,5999528.0,6009862.0,0.0
1577523488053,5931052.0,5906718.0,0.0
1577523488102,5790720.0,5735834.0,0.0
1577523488153,5639350.0,5574448.0,0.0
1577523488200,5501630.0,5400320.0,0.0
1577523488244,5429977.0,5354400.0,0.0
1577523488299,5500308.0,5561220.0,0.0
1577523488343,5489724.0,5585314.0,0.0
1577523488395,5556888.0,5632430.0,0.0
1577523488441,5687858.0,5798918.0,0.0
1577523488494,5747695.0,5896080.0,0.0
1577523488540,5724200.0,5944846.0,0.0
1577523488592,5741657.0,6047719.0,0.0
1577523488642,5813424.0,6137067.0,0.0
1577523488692,5871079.0,6208518.0,0.0
1577523488740,5835270.0,6170266.0,0.0
1577523488783,5834873.0,6197627.0,0.0
1577523488837,5621973.0,5833947.0,0.0
1577523488880,5567845.0,5728993.0,0.0
1577523488930,5450217.0,5542473.0,0.0
1577523488979,5355564.0,5423678.0,0.0
1577523489035,5269587.0,5302003.0,0.0
1577523489082,5163288.0,5136117.0,0.0
1577523489133,5171543.0,5180497.0,0.0
1577523489183,5151471.0,5141499.0,0.0
1577523489230,5138490.0,5121271.0,0.0
1577523489281,5098351.0,5058980.0,0.0
1577523489326,5072741.0,5026844.0,0.0
1577523489375,5019574.0,4965957.0,0.0
1577523489420,5020785.0,4981424.0,0.0
1577523489470,5011569.0,4971463.0,0.0
1577523489522,5010732.0,4980022.0,0.0
1577523489574,5043342.0,5014826.0,0.0
1577523489623,5045999.0,5011049.0,0.0
1577523489667,5042596.0,5000025.0,0.0
1577523489723,5057623.0,5021960.0,0.0
1577523489764,5081232.0,5048001.0,0.0
1577523489814,5095976.0,5066319.0,0.0
1577523489863,5123825.0,5093603.0,0.0
1577523489919,5141646.0,5130089.0,0.0
1577523489961,5155181.0,5125975.0,0.0
1577523490016,5152794.0,5097549.0,0.0
1577523490062,5174448.0,5086230.0,0.0
1577523490116,5176380.0,5074391.0,0.0
1577523490164,5179796.0,5076370.0,0.0
1577523490211,5258144.0,5150951.0,0.0
1577523490262,5419123.0,5467077.0,0.0
1577523490306,5643105.0,5794291.0,0.0
1577523490360,5861524.0,6032318.0,0.0
1577523490404,6028281.0,6264397.0,0.0
1577523490458,6172312.0,6415766.0,0.0
1577523490503,6284139.0,6512136.0,0.0
1577523490556,6358245.0,6568366.0,0.0
1577523490606,6431357.0,6602073.0,0.0
1577523490654,6423102.0,6577694.0,0.0
1577523490705,6419734.0,6562702.0,0.0
1577523490750,6457092.0,6614997.0,0.0
1577523490802,6472980.0,6658856.0,0.0
1577523490843,6472277.0,6651146.0,0.0
1577523490900,6452480.0,6593206.0,0.0
1577523490946,6446667.0,6572718.0,0.0
1577523490998,6399563.0,6492054.0,0.0
1577523491044,6310574.0,6361413.0,0.0
1577523491087,6343545.0,6477037.0,0.0
1577523491150,6411650.0,6618422.0,0.0
1577523491187,6423092.0,6611931.0,0.0
1577523491243,6418332.0,6625162.0,0.0
1577523491288,6368467.0,6564158.0,0.0
1577523491361,6344179.0,6482647.0,0.0
1577523491385,6481154.0,6541500.0,0.0
1577523491446,6553213.0,6560168.0,0.0
1577523491487,6566511.0,6635156.0,0.0
1577523491532,6567980.0,6684546.0,0.0
1577523491588,6611854.0,6843570.0,0.0
1577523491629,6506550.0,7025096.0,0.0
1577523491682,6344135.0,6654247.0,0.0
1577523491727,6177548.0,6262935.0,0.0
1577523491775,6208211.0,6298721.0,0.0
1577523491831,6438741.0,6728655.0,0.0
1577523491883,6604854.0,7015458.0,0.0
1577523491925,6715223.0,7186836.0,0.0
1577523491981,6761752.0,7163964.0,0.0
1577523492026,6796204.0,7230587.0,0.0
1577523492076,7195748.0,7242593.0,0.0
1577523492128,7330529.0,7253760.0,0.0
1577523492170,7342638.0,7286281.0,0.0
1577523492226,7406679.0,7349590.0,0.0
1577523492266,7432921.0,7403040.0,0.0
1577523492322,7401049.0,7435964.0,0.0
1577523492368,7373552.0,7422726.0,0.0
1577523492418,7153551.0,7102508.0,0.0
1577523492466,7096906.0,6990047.0,0.0
1577523492517,7233436.0,7132725.0,0.0
1577523492567,7253309.0,7102494.0,0.0
1577523492609,7205767.0,7028307.0,0.0
1577523492668,7211466.0,7049755.0,0.0
1577523492708,7225699.0,7105798.0,0.0
1577523492766,7109601.0,6983377.0,0.0
1577523492808,7117294.0,7047424.0,0.0
1577523492859,7036229.0,6948096.0,0.0
1577523492906,6962641.0,6830999.0,0.0
1577523492955,6922096.0,6775333.0,0.0
1577523493006,6828792.0,6694772.0,0.0
1577523493054,6740989.0,6592027.0,0.0
1577523493105,6723834.0,6609084.0,0.0
1577523493152,6364784.0,6235126.0,0.0
1577523493202,6612910.0,6549066.0,0.0
1577523493250,6573816.0,6491922.0,0.0
1577523493300,6339381.0,6284939.0,0.0
1577523493346,6322099.0,6322888.0,0.0
1577523493404,6258344.0,6267817.0,0.0
1577523493445,6234152.0,6226566.0,0.0
1577523493501,6192197.0,6161961.0,0.0
1577523493546,6124523.0,6071340.0,0.0
1577523493598,6061780.0,5984665.0,0.0
1577523493651,6002455.0,5897539.0,0.0
1577523493697,5943528.0,5822121.0,0.0
1577523493743,5860825.0,5723091.0,0.0
1577523493794,5768775.0,5604375.0,0.0
1577523493844,5694635.0,5506746.0,0.0
1577523493887,5653191.0,5452399.0,0.0
1577523493936,5619939.0,5400217.0,0.0
1577523493984,5579975.0,5351738.0,0.0
1577523494036,5532034.0,5286902.0,0.0
1577523494086,5500861.0,5230536.0,0.0
1577523494134,5487697.0,5197107.0,0.0
1577523494191,5427504.0,5129057.0,0.0
1577523494235,5328460.0,5013864.0,0.0
1577523494284,5238817.0,4915937.0,0.0
1577523494335,5245158.0,4913798.0,0.0
1577523494387,5246996.0,4894333.0,0.0
1577523494428,5233433.0,4885771.0,0.0
1577523494476,5176445.0,4829069.0,0.0
1577523494524,5103544.0,4759105.0,0.0
1577523494580,5038791.0,4694292.0,0.0
1577523494626,4965135.0,4629559.0,0.0
1577523494672,4886461.0,4558066.0,0.0
1577523494725,4809000.0,4489862.0,0.0
1577523494770,4746785.0,4402566.0,0.0
1577523494822,4672729.0,4326735.0,0.0
1577523494879,4584256.0,4245113.0,0.0
1577523494922,4520130.0,4185702.0,0.0
1577523494975,4457200.0,4115193.0,0.0
1577523495024,4171998.0,4047741.0,0.0
1577523495065,4026233.0,3819495.0,0.0
1577523495122,3937917.0,3694762.0,0.0
1577523495169,3878085.0,3641232.0,0.0
1577523495219,3846521.0,3608783.0,0.0
1577523495267,3825369.0,3588431.0,0.0
1577523495316,3780618.0,3545075.0,0.0
1577523495368,3748650.0,3518841.0,0.0
1577523495408,3725852.0,3493701.0,0.0
1577523495466,3698968.0,3472853.0,0.0
1577523495507,3680889.0,3455571.0,0.0
1577523495564,3636939.0,3439002.0,0.0
1577523495607,3581669.0,3393375.0,0.0
1577523495661,3545260.0,3362602.0,0.0
1577523495711,3522876.0,3344851.0,0.0
1577523495759,3496234.0,3345993.0,0.0
1577523495821,3603911.0,3504556.0,0.0
1577523495854,3747754.0,3669083.0,0.0
1577523495900,3806075.0,3745995.0,0.0
1577523495953,3748140.0,3540679.0,0.0
1577523496006,3632816.0,3355773.0,0.0
1577523496051,3579320.0,3269441.0,0.0
1577523496096,3518772.0,3200062.0,0.0
1577523496153,3478310.0,3165096.0,0.0
1577523496201,3455829.0,3159669.0,0.0
1577523496249,3445473.0,3167991.0,0.0
1577523496299,3444953.0,3193419.0,0.0
1577523496340,3429745.0,3224870.0,0.0
1577523496390,3449595.0,3276296.0,0.0
1577523496445,3439839.0,3306455.0,0.0
1577523496494,3451763.0,3313777.0,0.0
1577523496546,3437576.0,3276958.0,0.0
1577523496589,3332798.0,3188000.0,0.0
1577523496643,3330757.0,3186330.0,0.0
1577523496690,3322300.0,3174544.0,0.0
1577523496740,3277626.0,3113453.0,0.0
1577523496783,3279485.0,3100206.0,0.0
1577523496837,3314661.0,3144762.0,0.0
1577523496885,3297121.0,3136607.0,0.0
1577523496933,3248046.0,3088983.0,0.0
1577523496983,3229939.0,3093522.0,0.0
1577523497031,3216560.0,3077967.0,0.0
1577523497076,3226857.0,3046131.0,0.0
1577523497129,3246486.0,3029914.0,0.0
1577523497182,3333501.0,3127438.0,0.0
1577523497231,3393200.0,3264357.0,0.0
1577523497278,3405714.0,3119804.0,0.0
1577523497329,3522241.0,3275591.0,0.0
1577523497372,3513803.0,3342612.0,0.0
1577523497421,3445792.0,3252177.0,0.0
1577523497467,3448990.0,3240641.0,0.0
1577523497521,3459325.0,3264014.0,0.0
1577523497568,3435794.0,3236010.0,0.0
1577523497618,3424140.0,3236112.0,0.0
1577523497667,3431084.0,3238745.0,0.0
1577523497723,3456280.0,3290305.0,0.0
1577523497772,3459122.0,3318501.0,0.0
1577523497812,3441206.0,3296101.0,0.0
1577523497867,3414546.0,3264132.0,0.0
1577523497910,3403747.0,3244458.0,0.0
1577523497969,3337085.0,3169635.0,0.0
1577523498008,3371471.0,3202941.0,0.0
1577523498065,3424032.0,3218377.0,0.0
1577523498112,3453064.0,3281462.0,0.0
1577523498158,3490503.0,3326547.0,0.0
1577523498207,3501628.0,3319391.0,0.0
1577523498255,3485553.0,3289667.0,0.0
1577523498306,3433250.0,3243662.0,0.0
1577523498358,3429658.0,3253762.0,0.0
1577523498404,3463178.0,3274298.0,0.0
1577523498455,3493432.0,3306396.0,0.0
1577523498503,3536650.0,3306479.0,0.0
1577523498550,3515556.0,3294811.0,0.0
1577523498605,3558351.0,3351755.0,0.0
1577523498656,3595954.0,3413617.0,0.0
1577523498706,3584579.0,3422149.0,0.0
1577523498754,3596099.0,3384013.0,0.0
1577523498803,3606694.0,3366538.0,0.0
1577523498848,3635378.0,3325196.0,0.0
1577523498893,3682267.0,3293425.0,0.0
1577523498951,3735742.0,3336899.0,0.0
1577523498992,3786638.0,3334255.0,0.0
1577523499046,3825533.0,3351210.0,0.0
1577523499090,3841040.0,3368122.0,0.0
1577523499147,3872160.0,3443265.0,0.0
1577523499192,3902906.0,3568312.0,0.0
1577523499244,3912470.0,3681834.0,0.0
1577523499292,3956884.0,3791506.0,0.0
1577523499342,3991078.0,3872814.0,0.0
1577523499393,4034700.0,3956563.0,0.0
1577523499438,4083746.0,4026016.0,0.0
1577523499491,4128940.0,4075680.0,0.0
1577523499529,4147106.0,4075680.0,0.0
1577523499583,4182552.0,4090839.0,0.0
1577523499631,4178255.0,4096820.0,0.0
1577523499681,4186646.0,4137961.0,0.0
1577523499730,4203020.0,4252850.0,0.0
1577523499777,4207932.0,4351205.0,0.0
1577523499835,4237088.0,4450759.0,0.0
1577523499880,4284873.0,4540657.0,0.0
1577523499924,4346248.0,4629061.0,0.0
1577523499973,4370866.0,4706216.0,0.0
1577523500028,4429862.0,4773674.0,0.0
1577523500072,4524160.0,4856374.0,0.0
1577523500127,4582983.0,4920777.0,0.0
1577523500170,4656060.0,4982647.0,0.0
1577523500227,4742381.0,5013142.0,0.0
1577523500272,4828444.0,5118161.0,0.0
1577523500316,4935791.0,5122176.0,0.0
1577523500373,4979917.0,5053734.0,0.0
1577523500419,5026169.0,5043411.0,0.0
1577523500472,5091850.0,5102049.0,0.0
1577523500512,5144092.0,5150557.0,0.0
1577523500570,5200786.0,5156933.0,0.0
1577523500614,5223818.0,5127434.0,0.0
1577523500665,5180050.0,5049809.0,0.0
1577523500714,5277651.0,5151687.0,0.0
1577523500766,5358201.0,5234681.0,0.0
1577523500814,5398521.0,5229163.0,0.0
1577523500866,5378478.0,5161321.0,0.0
1577523500903,5427504.0,5160811.0,0.0
1577523500956,5554243.0,5183506.0,0.0
1577523501006,5571108.0,5120390.0,0.0
1577523501053,5604723.0,5094981.0,0.0
1577523501104,5639417.0,5088536.0,0.0
1577523501151,5584188.0,5020570.0,0.0
1577523501206,5495661.0,4951868.0,0.0
1577523501253,5497297.0,4959104.0,0.0
1577523501310,5505976.0,5016285.0,0.0
1577523501347,5540161.0,5100127.0,0.0
1577523501404,5543310.0,5185326.0,0.0
1577523501452,5551160.0,5258132.0,0.0
1577523501494,5541201.0,5281763.0,0.0
1577523501552,5546083.0,5369055.0,0.0
1577523501590,5568652.0,5432273.0,0.0
1577523501650,5606842.0,5493331.0,0.0
1577523501691,5640525.0,5551156.0,0.0
1577523501746,5656852.0,5605193.0,0.0
1577523501799,5664625.0,5644133.0,0.0
1577523501835,5664365.0,5692346.0,0.0
1577523501889,5749097.0,5731380.0,0.0
1577523501942,5740121.0,5773872.0,0.0
1577523501992,5725240.0,5781674.0,0.0
1577523502038,5697084.0,5702739.0,0.0
1577523502091,5693342.0,5664668.0,0.0
1577523502132,5732770.0,5715346.0,0.0
1577523502188,5735495.0,5795445.0,0.0
1577523502235,5706414.0,5883268.0,0.0
1577523502286,5454864.0,5571134.0,0.0
1577523502335,5411795.0,5576415.0,0.0
1577523502385,5283764.0,5490787.0,0.0
1577523502433,5224663.0,5454547.0,0.0
1577523502475,5182646.0,5412892.0,0.0
1577523502532,5109908.0,5345208.0,0.0
1577523502572,5011852.0,5260292.0,0.0
1577523502624,4917302.0,5198984.0,0.0
1577523502673,4823734.0,5151550.0,0.0
1577523502729,4810189.0,5120321.0,0.0
1577523502774,4830780.0,5155553.0,0.0
1577523502822,4859511.0,5193059.0,0.0
1577523502873,4911061.0,5219439.0,0.0
1577523502919,4894315.0,5225297.0,0.0
1577523502974,4738683.0,5106086.0,0.0
1577523503014,4573781.0,4960800.0,0.0
1577523503071,4506209.0,4868252.0,0.0
1577523503113,4491408.0,4885315.0,0.0
1577523503171,4504116.0,4936027.0,0.0
1577523503215,4508346.0,5004773.0,0.0
1577523503266,4495660.0,5006289.0,0.0
1577523503319,4568557.0,5099867.0,0.0
1577523503372,4605779.0,5136682.0,0.0
1577523503415,4644721.0,5172796.0,0.0
1577523503461,4702862.0,5209094.0,0.0
1577523503514,4756142.0,5205475.0,0.0
1577523503554,4764905.0,5135020.0,0.0
1577523503613,4796237.0,5139768.0,0.0
1577523503653,4823499.0,5151652.0,0.0
1577523503710,4835516.0,5139555.0,0.0
1577523503755,4834035.0,5137056.0,0.0
1577523503810,4821666.0,5122572.0,0.0
1577523503854,4840064.0,5165289.0,0.0
1577523503904,4856311.0,5174347.0,0.0
1577523503955,4950828.0,5276121.0,0.0
1577523503999,4927422.0,5201619.0,0.0
1577523504053,4922164.0,5173443.0,0.0
1577523504094,4970603.0,5175476.0,0.0
1577523504150,4963242.0,5175523.0,0.0
1577523504195,5006425.0,5213401.0,0.0
1577523504249,5078101.0,5250533.0,0.0
1577523504294,5096226.0,5261446.0,0.0
1577523504345,5131979.0,5304616.0,0.0
1577523504394,5097457.0,5215697.0,0.0
1577523504441,5155588.0,5234466.0,0.0
1577523504494,5200975.0,5268851.0,0.0
1577523504535,5240685.0,5289317.0,0.0
1577523504583,5259138.0,5303395.0,0.0
1577523504635,5293307.0,5339452.0,0.0
1577523504685,5266714.0,5355542.0,0.0
1577523504736,5104073.0,5392822.0,0.0
1577523504782,4899606.0,5389633.0,0.0
1577523504830,4700204.0,5158641.0,0.0
1577523504884,4598103.0,5081821.0,0.0
1577523504928,4533018.0,5032385.0,0.0
1577523504977,4443489.0,4981684.0,0.0
1577523505034,4365628.0,4920490.0,0.0
1577523505076,4366295.0,4907759.0,0.0
1577523505133,4274978.0,4817381.0,0.0
1577523505175,4162811.0,4706322.0,0.0
1577523505231,4089870.0,4647220.0,0.0
1577523505276,4031605.0,4594878.0,0.0
1577523505322,4014384.0,4578519.0,0.0
1577523505383,4019608.0,4664645.0,0.0
1577523505425,4094880.0,4929966.0,0.0
1577523505470,4209749.0,5034116.0,0.0
1577523505520,4224142.0,5018579.0,0.0
1577523505574,4193930.0,4955735.0,0.0
1577523505618,4190403.0,5060043.0,0.0
1577523505671,4211072.0,5229559.0,0.0
1577523505727,4210970.0,5279276.0,0.0
1577523505768,4181333.0,5360711.0,0.0
1577523505828,4167822.0,5342437.0,0.0
1577523505864,4269167.0,5388491.0,0.0
1577523505912,4329049.0,5325149.0,0.0
1577523505960,4426776.0,5260428.0,0.0
1577523506010,4516985.0,5444372.0,0.0
1577523506060,4262688.0,5534488.0,0.0
1577523506109,4015457.0,5044360.0,0.0
1577523506156,4016136.0,4941387.0,0.0
1577523506212,4005282.0,4878925.0,0.0
1577523506256,4014474.0,4842776.0,0.0
1577523506311,3958221.0,4669427.0,0.0
1577523506358,3977398.0,4652003.0,0.0
1577523506403,3979536.0,4647503.0,0.0
1577523506459,3978008.0,4648905.0,0.0
1577523506506,3973113.0,4660912.0,0.0
1577523506555,3947424.0,4658381.0,0.0
1577523506597,3911060.0,4623384.0,0.0
1577523506655,3831401.0,4590006.0,0.0
1577523506696,3759500.0,4541826.0,0.0
1577523506753,3700679.0,4490152.0,0.0
1577523506802,3684941.0,4477828.0,0.0
1577523506850,3665255.0,4461954.0,0.0
1577523506894,3616713.0,4403846.0,0.0
1577523506944,3583266.0,4358030.0,0.0
1577523506989,3496476.0,4330124.0,0.0
1577523507042,3461308.0,4293048.0,0.0
1577523507090,3397057.0,4226685.0,0.0
1577523507137,3330515.0,4155530.0,0.0
1577523507194,3291294.0,4100872.0,0.0
1577523507237,3226825.0,4052636.0,0.0
1577523507292,3173571.0,4066283.0,0.0
1577523507339,3183301.0,4067549.0,0.0
1577523507390,3281798.0,4094913.0,0.0
1577523507440,3438902.0,4180723.0,0.0
1577523507487,3730358.0,4502987.0,0.0
1577523507537,3839668.0,4707419.0,0.0
1577523507584,3899995.0,4828032.0,0.0
1577523507637,3872948.0,4839486.0,0.0
1577523507678,3882361.0,4857713.0,0.0
1577523507730,3865994.0,4844495.0,0.0
1577523507779,3820986.0,4806842.0,0.0
1577523507829,3765843.0,4757497.0,0.0
1577523507882,3778234.0,4675082.0,0.0
1577523507924,3827228.0,4573996.0,0.0
1577523507979,3880699.0,4544166.0,0.0
1577523508023,3846513.0,4662495.0,0.0
1577523508077,3760700.0,4765289.0,0.0
1577523508121,3763076.0,4658730.0,0.0
1577523508175,3822027.0,4529966.0,0.0
1577523508217,3782404.0,4447650.0,0.0
1577523508265,3761172.0,4338582.0,0.0
1577523508320,3639277.0,4159579.0,0.0
1577523508372,3535453.0,4020524.0,0.0
1577523508414,3555779.0,4027477.0,0.0
1577523508468,3608976.0,4097830.0,0.0
1577523508518,3665401.0,4175941.0,0.0
1577523508565,3665954.0,4220050.0,0.0
1577523508617,3599252.0,4056594.0,0.0
1577523508659,3596241.0,4018308.0,0.0
1577523508709,3570637.0,3976041.0,0.0
1577523508759,3546745.0,3937314.0,0.0
1577523508812,3531812.0,3901289.0,0.0
1577523508861,3424615.0,3821123.0,0.0
1577523508911,3321445.0,3792810.0,0.0
1577523508961,3257537.0,3759737.0,0.0
1577523509007,3198596.0,3706254.0,0.0
1577523509055,3137934.0,3661862.0,0.0
1577523509099,3069838.0,3651291.0,0.0
1577523509157,3028061.0,3675861.0,0.0
1577523509204,3063832.0,3734692.0,0.0
1577523509255,3276312.0,3826200.0,0.0
1577523509302,3490572.0,4267166.0,0.0
1577523509354,3542499.0,4259240.0,0.0
1577523509402,3614780.0,4193680.0,0.0
1577523509451,3646004.0,4161920.0,0.0
1577523509500,3675418.0,4169122.0,0.0
1577523509546,3680853.0,4140706.0,0.0
1577523509597,3698446.0,4115730.0,0.0
1577523509640,3723530.0,4088015.0,0.0
1577523509696,3755450.0,4080371.0,0.0
1577523509741,3787991.0,4089022.0,0.0
1577523509787,3746306.0,4059296.0,0.0
1577523509843,3678453.0,4031209.0,0.0
1577523509892,3581669.0,3987370.0,0.0
1577523509942,3548103.0,3952680.0,0.0
1577523509989,3508959.0,3903156.0,0.0
1577523510039,3449549.0,3801199.0,0.0
1577523510080,3424725.0,3755406.0,0.0
1577523510133,3470748.0,3766284.0,0.0
1577523510180,3468180.0,3766871.0,0.0
1577523510235,3489540.0,3843748.0,0.0
1577523510283,3543432.0,3876098.0,0.0
1577523510333,3598766.0,3912370.0,0.0
1577523510384,3661852.0,3961975.0,0.0
1577523510431,3737018.0,4033119.0,0.0
1577523510475,3807798.0,4113785.0,0.0
1577523510524,3828711.0,4137620.0,0.0
1577523510580,3868972.0,4167153.0,0.0
1577523510623,3888426.0,4174041.0,0.0
1577523510672,3907226.0,4179807.0,0.0
1577523510721,3924039.0,4157848.0,0.0
1577523510777,3968684.0,4165877.0,0.0
1577523510822,4002468.0,4193296.0,0.0
1577523510874,4018584.0,4222017.0,0.0
1577523510922,4027140.0,4240221.0,0.0
1577523510967,4032040.0,4267585.0,0.0
1577523511023,4088750.0,4323023.0,0.0
1577523511063,4100209.0,4351110.0,0.0
1577523511121,4103096.0,4378292.0,0.0
1577523511162,4092265.0,4387994.0,0.0
1577523511219,4100595.0,4411026.0,0.0
1577523511262,4126108.0,4441047.0,0.0
1577523511317,4130939.0,4467076.0,0.0
1577523511363,4146937.0,4505112.0,0.0
1577523511415,4174295.0,4544530.0,0.0
1577523511465,4200569.0,4582521.0,0.0
1577523511510,4232523.0,4631525.0,0.0
1577523511563,4295619.0,4687711.0,0.0
1577523511606,4386338.0,4730926.0,0.0
1577523511652,4419835.0,4738106.0,0.0
1577523511702,4395910.0,4745388.0,0.0
1577523511753,4437302.0,4803100.0,0.0
1577523511803,4458183.0,4801980.0,0.0
1577523511850,4535448.0,4844903.0,0.0
1577523511903,4591410.0,4856911.0,0.0
1577523511949,4608625.0,4853676.0,0.0
1577523511997,4653131.0,4870603.0,0.0
1577523512048,4643248.0,4872683.0,0.0
1577523512096,4638634.0,4899368.0,0.0
1577523512144,4631243.0,4908787.0,0.0
1577523512200,4602333.0,4908720.0,0.0
1577523512246,4608869.0,4928371.0,0.0
1577523512300,4611789.0,4921337.0,0.0
1577523512344,4633675.0,4941114.0,0.0
1577523512398,4651536.0,4956785.0,0.0
1577523512443,4646393.0,4944089.0,0.0
1577523512495,4658557.0,4983470.0,0.0
1577523512544,4663507.0,5008924.0,0.0
1577523512586,4667274.0,5016488.0,0.0
1577523512635,4662879.0,5007544.0,0.0
1577523512687,4684757.0,5009127.0,0.0
1577523512741,4687492.0,4989125.0,0.0
1577523512785,4697819.0,5004218.0,0.0
1577523512839,4706972.0,5000986.0,0.0
1577523512890,4706578.0,4987847.0,0.0
1577523512935,4699363.0,4982690.0,0.0
1577523512988,4686854.0,4977298.0,0.0
1577523513032,4683877.0,4962633.0,0.0
1577523513085,4681561.0,4977558.0,0.0
1577523513125,4678129.0,5019800.0,0.0
1577523513183,4671443.0,5035710.0,0.0
1577523513225,4665278.0,5034737.0,0.0
1577523513281,4670051.0,5033843.0,0.0
1577523513325,4644573.0,5038797.0,0.0
1577523513378,4604129.0,5016387.0,0.0
1577523513427,4533971.0,5005870.0,0.0
1577523513470,4516193.0,5028721.0,0.0
1577523513528,4495985.0,5017041.0,0.0
1577523513569,4495792.0,5022762.0,0.0
1577523513628,4419970.0,4917573.0,0.0
1577523513667,4383772.0,4868896.0,0.0
1577523513716,4359568.0,4869122.0,0.0
1577523513765,4301273.0,4814768.0,0.0
1577523513814,4206275.0,4714520.0,0.0
1577523513865,4106024.0,4633132.0,0.0
1577523513914,4007586.0,4542969.0,0.0
1577523513967,3931345.0,4498915.0,0.0
1577523514016,3848854.0,4429966.0,0.0
1577523514068,3804099.0,4389396.0,0.0
1577523514108,3725811.0,4328823.0,0.0
1577523514156,3676247.0,4289938.0,0.0
1577523514205,3642347.0,4274606.0,0.0
1577523514255,3728999.0,4341012.0,0.0
1577523514303,3733412.0,4313004.0,0.0
1577523514353,3662557.0,4226629.0,0.0
1577523514404,3599303.0,4169858.0,0.0
1577523514460,3557408.0,4164892.0,0.0
1577523514506,3586232.0,4264598.0,0.0
1577523514556,3593228.0,4257430.0,0.0
1577523514604,3500763.0,4175668.0,0.0
1577523514650,3592490.0,4279998.0,0.0
1577523514703,3623840.0,4295795.0,0.0
1577523514752,3649017.0,4471168.0,0.0
1577523514804,3585913.0,4390538.0,0.0
1577523514845,3540016.0,4424821.0,0.0
1577523514902,3481191.0,4373148.0,0.0
1577523514948,3463994.0,4367878.0,0.0
1577523514999,3455337.0,4366770.0,0.0
1577523515050,3450160.0,4378451.0,0.0
1577523515091,3415623.0,4341782.0,0.0
1577523515144,3405580.0,4331808.0,0.0
1577523515195,3408952.0,4334862.0,0.0
1577523515245,3417945.0,4379377.0,0.0
1577523515293,3379809.0,4318488.0,0.0
1577523515344,3314903.0,4205667.0,0.0
1577523515384,3278736.0,4134115.0,0.0
1577523515435,3204400.0,4053495.0,0.0
1577523515493,3172311.0,4001076.0,0.0
1577523515538,3125223.0,3984442.0,0.0
1577523515585,3140626.0,3960868.0,0.0
1577523515635,3117244.0,4049594.0,0.0
1577523515684,3087463.0,4078224.0,0.0
1577523515735,2957817.0,3906050.0,0.0
1577523515785,2846620.0,3693941.0,0.0
1577523515831,2795975.0,3649820.0,0.0
1577523515883,2764271.0,3635675.0,0.0
1577523515924,2746252.0,3631288.0,0.0
1577523515978,2717779.0,3532080.0,0.0
1577523516028,2682705.0,3510152.0,0.0
1577523516080,2674356.0,3532785.0,0.0
1577523516127,2654039.0,3493918.0,0.0
1577523516175,2594736.0,3468684.0,0.0
1577523516224,2533022.0,3389909.0,0.0
1577523516271,2491546.0,3330346.0,0.0
1577523516325,2449217.0,3296463.0,0.0
1577523516366,2447717.0,3292259.0,0.0
1577523516422,2448526.0,3300037.0,0.0
1577523516470,2434724.0,3287972.0,0.0
1577523516520,2433546.0,3296186.0,0.0
1577523516567,2407619.0,3286714.0,0.0
1577523516618,2378079.0,3199618.0,0.0
1577523516666,2403342.0,3161549.0,0.0
1577523516707,2383136.0,3119166.0,0.0
1577523516763,2367798.0,3108219.0,0.0
1577523516812,2379621.0,3135685.0,0.0
1577523516864,2387025.0,3188453.0,0.0
1577523516904,2374160.0,3199762.0,0.0
1577523516961,2348893.0,3159385.0,0.0
1577523517005,2332944.0,3111692.0,0.0
1577523517051,2407775.0,3295876.0,0.0
1577523517104,2472966.0,3274660.0,0.0
1577523517150,2410581.0,3202883.0,0.0
1577523517203,2389601.0,3100056.0,0.0
1577523517250,2441977.0,3091978.0,0.0
1577523517299,2478277.0,3197194.0,0.0
1577523517351,2464505.0,3207950.0,0.0
1577523517404,2524501.0,3260598.0,0.0
1577523517451,2569740.0,3301404.0,0.0
1577523517502,2589196.0,3281690.0,0.0
1577523517553,2634945.0,3292672.0,0.0
1577523517600,2617478.0,3296253.0,0.0
1577523517646,2611478.0,3207663.0,0.0
1577523517696,2642551.0,3249416.0,0.0
1577523517742,2654933.0,3261362.0,0.0
1577523517789,2680673.0,3257429.0,0.0
1577523517839,2681187.0,3195936.0,0.0
1577523517887,2724484.0,3194609.0,0.0
1577523517943,2797574.0,3208368.0,0.0
1577523517989,2872230.0,3286479.0,0.0
1577523518034,2883667.0,3264424.0,0.0
1577523518089,2903596.0,3228042.0,0.0
1577523518140,2974478.0,3292787.0,0.0
1577523518190,2993196.0,3243133.0,0.0
1577523518236,3023498.0,3253997.0,0.0
1577523518284,3063450.0,3281178.0,0.0
1577523518329,3113728.0,3307587.0,0.0
1577523518386,3171738.0,3321027.0,0.0
1577523518426,3201271.0,3374624.0,0.0
1577523518475,3205916.0,3413256.0,0.0
1577523518534,3231075.0,3420596.0,0.0
1577523518581,3278057.0,3458968.0,0.0
1577523518629,3307227.0,3468692.0,0.0
1577523518680,3335308.0,3477751.0,0.0
1577523518721,3376668.0,3498942.0,0.0
1577523518768,3450823.0,3608043.0,0.0
1577523518822,3476776.0,3641382.0,0.0
1577523518869,3478371.0,3618858.0,0.0
1577523518922,3419936.0,3484212.0,0.0
1577523518973,3414154.0,3496157.0,0.0
1577523519022,3505533.0,3600032.0,0.0
1577523519071,3575606.0,3668638.0,0.0
1577523519120,3672669.0,3782849.0,0.0
1577523519169,3680363.0,3775382.0,0.0
1577523519216,3804326.0,3864718.0,0.0
1577523519264,3856042.0,3899239.0,0.0
1577523519314,3801910.0,3981974.0,0.0
1577523519363,3752313.0,4032518.0,0.0
1577523519410,3750286.0,3994439.0,0.0
1577523519457,3770733.0,3948249.0,0.0
1577523519510,3842541.0,3707808.0,0.0
1577523519561,4323606.0,3776642.0,0.0
1577523519604,4970325.0,3673370.0,0.0
1577523519656,5427553.0,4109228.0,0.0
1577523519711,5424440.0,3874659.0,0.0
1577523519756,5733369.0,3578288.0,0.0
1577523519809,5883131.0,3329936.0,0.0
1577523519848,5786502.0,3261263.0,0.0
1577523519903,5481809.0,3286036.0,0.0
1577523519952,5481041.0,3368425.0,0.0
1577523520005,5743524.0,3460839.0,0.0
1577523520050,6074912.0,3567079.0,0.0
1577523520095,6776338.0,3671767.0,0.0
1577523520152,6704062.0,3688882.0,0.0
1577523520198,6538063.0,3703336.0,0.0
1577523520248,6537520.0,3846682.0,0.0
1577523520297,6390822.0,3814970.0,0.0
1577523520343,6163695.0,3724980.0,0.0
1577523520390,6012509.0,3747397.0,0.0
1577523520443,5938832.0,3814777.0,0.0
1577523520492,5819507.0,3802849.0,0.0
1577523520541,5740889.0,3851950.0,0.0
1577523520594,5630870.0,3830558.0,0.0
1577523520640,5594112.0,3856790.0,0.0
1577523520693,5570649.0,3858578.0,0.0
1577523520740,5546101.0,3863224.0,0.0
1577523520783,5491330.0,3850264.0,0.0
1577523520830,5374086.0,3817528.0,0.0
1577523520886,5297357.0,3837370.0,0.0
1577523520935,5294608.0,3859299.0,0.0
1577523520987,5283212.0,3868519.0,0.0
1577523521032,5257669.0,3863594.0,0.0
1577523521082,5239271.0,3866680.0,0.0
1577523521133,5218897.0,3861471.0,0.0
1577523521181,5191283.0,3849114.0,0.0
1577523521231,5161287.0,3837186.0,0.0
1577523521271,5101653.0,3792420.0,0.0
1577523521329,5029762.0,3742195.0,0.0
1577523521371,4982001.0,3731380.0,0.0
1577523521425,4932408.0,3731852.0,0.0
1577523521477,4894281.0,3735868.0,0.0
1577523521525,4851900.0,3763252.0,0.0
1577523521574,4746882.0,3755877.0,0.0
1577523521620,4706096.0,3712253.0,0.0
1577523521672,4812779.0,3763175.0,0.0
1577523521713,4760133.0,3708714.0,0.0
1577523521770,4638106.0,3695341.0,0.0
1577523521815,4569890.0,3622548.0,0.0
1577523521868,4613152.0,3685861.0,0.0
1577523521910,4620050.0,3701877.0,0.0
1577523521958,4582781.0,3671584.0,0.0
1577523522009,4581006.0,3683764.0,0.0
1577523522057,4589147.0,3694569.0,0.0
1577523522107,4596077.0,3690049.0,0.0
1577523522157,4588525.0,3674965.0,0.0
1577523522205,4587654.0,3685694.0,0.0
1577523522254,4582544.0,3694392.0,0.0
1577523522302,4584013.0,3691582.0,0.0
1577523522351,4581018.0,3681046.0,0.0
1577523522409,4622888.0,3717337.0,0.0
1577523522453,4618703.0,3691148.0,0.0
1577523522506,4641917.0,3718294.0,0.0
1577523522554,4644370.0,3706658.0,0.0
1577523522604,4610257.0,3665911.0,0.0
1577523522646,4560258.0,3683161.0,0.0
1577523522700,4449594.0,3729452.0,0.0
1577523522751,4421971.0,3770987.0,0.0
1577523522793,4398939.0,3687271.0,0.0
1577523522850,4483787.0,3756172.0,0.0
1577523522892,4441510.0,3711433.0,0.0
1577523522944,4417042.0,3803645.0,0.0
1577523522994,4445761.0,3913216.0,0.0
1577523523044,4475849.0,3906194.0,0.0
1577523523095,4396101.0,3786439.0,0.0
1577523523144,4426097.0,3785567.0,0.0
1577523523194,4411003.0,3735308.0,0.0
1577523523236,4255406.0,3682322.0,0.0
1577523523290,4257871.0,3689486.0,0.0
1577523523332,4353111.0,3753226.0,0.0
1577523523390,4376143.0,3698690.0,0.0
1577523523435,4453936.0,3832655.0,0.0
1577523523485,4360618.0,3655527.0,0.0
1577523523535,4384353.0,3696717.0,0.0
1577523523583,4292098.0,3673898.0,0.0
1577523523627,4327003.0,3726659.0,0.0
1577523523677,4301561.0,3686735.0,0.0
1577523523725,4353643.0,3716977.0,0.0
1577523523773,4276798.0,3599705.0,0.0
1577523523822,4223418.0,3522383.0,0.0
1577523523872,4302726.0,3646273.0,0.0
1577523523923,4260947.0,3687808.0,0.0
1577523523975,4309534.0,3706508.0,0.0
1577523524026,4352839.0,3730560.0,0.0
1577523524075,4340640.0,3680526.0,0.0
1577523524122,4278948.0,3653546.0,0.0
1577523524174,4248588.0,3578120.0,0.0
1577523524220,4265764.0,3645173.0,0.0
1577523524272,4200295.0,3643312.0,0.0
1577523524313,4180983.0,3629663.0,0.0
1577523524370,4283912.0,3712463.0,0.0
1577523524413,4283052.0,3671474.0,0.0
1577523524469,4333980.0,3681869.0,0.0
1577523524514,4326743.0,3750416.0,0.0
1577523524560,4311818.0,3751531.0,0.0
1577523524614,4244291.0,3621853.0,0.0
1577523524657,4256954.0,3684469.0,0.0
1577523524714,4271644.0,3696802.0,0.0
1577523524757,4311976.0,3731817.0,0.0
1577523524809,4335823.0,3744694.0,0.0
1577523524853,4352467.0,3729377.0,0.0
1577523524910,4363457.0,3707095.0,0.0
1577523524955,4348928.0,3778143.0,0.0
1577523525008,4305611.0,3818821.0,0.0
1577523525056,4303303.0,3822169.0,0.0
1577523525100,4331209.0,3846371.0,0.0
1577523525155,4340380.0,3842706.0,0.0
1577523525198,4355315.0,3829510.0,0.0
1577523525254,4365062.0,3807101.0,0.0
1577523525294,4373012.0,3788007.0,0.0
1577523525353,4364509.0,3751472.0,0.0
1577523525395,4405577.0,3792010.0,0.0
1577523525448,4352410.0,3734326.0,0.0
1577523525496,4417810.0,3806086.0,0.0
1577523525546,4425656.0,3793208.0,0.0
1577523525597,4452421.0,3821824.0,0.0
1577523525645,4434555.0,3820783.0,0.0
1577523525696,4375385.0,3779929.0,0.0
1577523525736,4308662.0,3716567.0,0.0
1577523525785,4308912.0,3731927.0,0.0
1577523525835,4377465.0,3807638.0,0.0
1577523525892,4354275.0,3828711.0,0.0
1577523525942,4326528.0,3847998.0,0.0
1577523525988,4302738.0,3822882.0,0.0
1577523526038,4224855.0,3732329.0,0.0
1577523526084,4175351.0,3670225.0,0.0
1577523526129,4133969.0,3626181.0,0.0
1577523526187,4123056.0,3615343.0,0.0
1577523526234,4119720.0,3618271.0,0.0
1577523526275,4130903.0,3616123.0,0.0
1577523526332,4118759.0,3539858.0,0.0
1577523526377,4100782.0,3518163.0,0.0
1577523526431,4324866.0,3660509.0,0.0
1577523526475,4338050.0,3680089.0,0.0
1577523526528,4341861.0,3665568.0,0.0
1577523526578,4337519.0,3651584.0,0.0
1577523526624,4335607.0,3640704.0,0.0
1577523526676,4344935.0,3649653.0,0.0
1577523526720,4338253.0,3645744.0,0.0
1577523526774,4324209.0,3643152.0,0.0
1577523526820,4315753.0,3644353.0,0.0
1577523526873,4311127.0,3623639.0,0.0
1577523526915,4346711.0,3635023.0,0.0
1577523526962,4365255.0,3647859.0,0.0
1577523527014,4315776.0,3612700.0,0.0
1577523527061,4266193.0,3571065.0,0.0
1577523527109,4227094.0,3524874.0,0.0
1577523527160,4196033.0,3493725.0,0.0
1577523527208,4133605.0,3443189.0,0.0
1577523527259,4064418.0,3401486.0,0.0
1577523527306,4029966.0,3369892.0,0.0
1577523527356,4016633.0,3351395.0,0.0
1577523527405,3997988.0,3323895.0,0.0
1577523527454,3991623.0,3313005.0,0.0
1577523527503,3988480.0,3304423.0,0.0
1577523527555,3989678.0,3295841.0,0.0
1577523527601,3993002.0,3297125.0,0.0
1577523527650,3966850.0,3278435.0,0.0
1577523527699,3937257.0,3255783.0,0.0
1577523527747,3943885.0,3260062.0,0.0
1577523527798,3941034.0,3253008.0,0.0
1577523527846,3952036.0,3256740.0,0.0
1577523527895,3951008.0,3248359.0,0.0
1577523527944,3944957.0,3237688.0,0.0
1577523527995,3941215.0,3226018.0,0.0
1577523528043,3914926.0,3202864.0,0.0
1577523528096,3874210.0,3170675.0,0.0
1577523528141,3843974.0,3139041.0,0.0
1577523528190,3847864.0,3130006.0,0.0
1577523528241,3867924.0,3128194.0,0.0
1577523528288,3883912.0,3135912.0,0.0
1577523528338,3891860.0,3145492.0,0.0
1577523528386,3893512.0,3161179.0,0.0
1577523528436,3895568.0,3166573.0,0.0
1577523528485,3896531.0,3181606.0,0.0
1577523528537,3886772.0,3176842.0,0.0
1577523528583,3867776.0,3158026.0,0.0
1577523528637,3855485.0,3147052.0,0.0
1577523528681,3846416.0,3138521.0,0.0
1577523528730,3853947.0,3141556.0,0.0
1577523528780,3844540.0,3134014.0,0.0
1577523528828,3826787.0,3131398.0,0.0
1577523528879,3802680.0,3119250.0,0.0
1577523528926,3755507.0,3103874.0,0.0
1577523528979,3710120.0,3077304.0,0.0
1577523529025,3708651.0,3077841.0,0.0
1577523529079,3752647.0,3094150.0,0.0
1577523529123,3730722.0,3077825.0,0.0
1577523529172,3711874.0,3065752.0,0.0
1577523529221,3684815.0,3053118.0,0.0
1577523529270,3662947.0,3034662.0,0.0
1577523529320,3606322.0,3016466.0,0.0
1577523529368,3559330.0,2995309.0,0.0
1577523529419,3428884.0,2960922.0,0.0
1577523529466,3401248.0,2945302.0,0.0
1577523529517,3421220.0,2946795.0,0.0
1577523529564,3467721.0,2965587.0,0.0
1577523529616,3530802.0,3008296.0,0.0
1577523529662,3624149.0,3064604.0,0.0
1577523529711,3697174.0,3080685.0,0.0
1577523529760,3791638.0,3129376.0,0.0
1577523529809,3822108.0,3149551.0,0.0
1577523529860,3855630.0,3187933.0,0.0
1577523529907,3943688.0,3238712.0,0.0
1577523529959,4008496.0,3304557.0,0.0
1577523530006,4033808.0,3347779.0,0.0
1577523530056,4057847.0,3394180.0,0.0
1577523530104,4065076.0,3408323.0,0.0
1577523530157,4046492.0,3433524.0,0.0
1577523530203,4027306.0,3439431.0,0.0
1577523530251,4014910.0,3462643.0,0.0
1577523530301,4002045.0,3482258.0,0.0
1577523530349,3984128.0,3497390.0,0.0
1577523530400,3962430.0,3513851.0,0.0
1577523530447,3954464.0,3542223.0,0.0
1577523530499,3952453.0,3568146.0,0.0
1577523530545,3939163.0,3603774.0,0.0
1577523530598,3951169.0,3643170.0,0.0
1577523530644,3969617.0,3701877.0,0.0
1577523530693,3984916.0,3749627.0,0.0
1577523530742,3995284.0,3803042.0,0.0
1577523530791,4016991.0,3852151.0,0.0
1577523530841,4055584.0,3927728.0,0.0
1577523530889,4068839.0,3974944.0,0.0
1577523530941,4064991.0,3999666.0,0.0
1577523530987,4067045.0,4021032.0,0.0
1577523531040,4073122.0,4051561.0,0.0
1577523531085,4085111.0,4074028.0,0.0
1577523531140,4068526.0,4083230.0,0.0
1577523531184,4062486.0,4081913.0,0.0
1577523531233,4047721.0,4083281.0,0.0
1577523531281,4040484.0,4087474.0,0.0
1577523531331,4032343.0,4107459.0,0.0
1577523531383,4030862.0,4125696.0,0.0
1577523531429,4026433.0,4129355.0,0.0
1577523531482,4017338.0,4137358.0,0.0
1577523531527,4004725.0,4138766.0,0.0
1577523531582,3990907.0,4145377.0,0.0
1577523531625,3999055.0,4172239.0,0.0
1577523531675,4010168.0,4214814.0,0.0
1577523531723,4044436.0,4270502.0,0.0
1577523531773,4067825.0,4323159.0,0.0
1577523531822,4113015.0,4382051.0,0.0
1577523531871,4157295.0,4448804.0,0.0
1577523531921,4200665.0,4522217.0,0.0
1577523531969,4235956.0,4593298.0,0.0
1577523532020,4269539.0,4658064.0,0.0
1577523532067,4290620.0,4728506.0,0.0
1577523532120,4329415.0,4801509.0,0.0
1577523532165,4352343.0,4861702.0,0.0
1577523532214,4374570.0,4925374.0,0.0
1577523532263,4388380.0,4983050.0,0.0
1577523532313,4415565.0,5044325.0,0.0
1577523532362,4436118.0,5202897.0,0.0
1577523532410,4459550.0,5272074.0,0.0
1577523532462,4472856.0,5338118.0,0.0
1577523532509,4499756.0,5418185.0,0.0
1577523532561,4508936.0,5482849.0,0.0
1577523532606,4536937.0,5561512.0,0.0
1577523532660,4546446.0,5624888.0,0.0
1577523532705,4569236.0,5703925.0,0.0
1577523532754,4599403.0,5785734.0,0.0
1577523532802,4666709.0,5865075.0,0.0
1577523532852,4612969.0,5876890.0,0.0
1577523532902,4621968.0,5860043.0,0.0
1577523532950,4510220.0,5711943.0,0.0
1577523533001,4426487.0,5588425.0,0.0
1577523533048,4381635.0,5484478.0,0.0
1577523533101,4331607.0,5356775.0,0.0
1577523533146,4296638.0,5252004.0,0.0
1577523533196,4281571.0,5150951.0,0.0
1577523533244,4249307.0,5056345.0,0.0
1577523533293,4227279.0,4950781.0,0.0
1577523533342,4209629.0,4881785.0,0.0
1577523533392,4189543.0,4775556.0,0.0
1577523533443,4072334.0,4630938.0,0.0
1577523533490,4001846.0,4511252.0,0.0
1577523533544,3951368.0,4416735.0,0.0
1577523533588,3926974.0,4343682.0,0.0
1577523533643,3916182.0,4276719.0,0.0
1577523533685,3976317.0,4257576.0,0.0
1577523533736,4110484.0,4289202.0,0.0
1577523533784,4157173.0,4281502.0,0.0
1577523533833,4203830.0,4288841.0,0.0
1577523533883,4204229.0,4274537.0,0.0
1577523533931,4200102.0,4259805.0,0.0
1577523533984,4174815.0,4230779.0,0.0
1577523534033,4085518.0,4136569.0,0.0
1577523534086,4112365.0,4123611.0,0.0
1577523534131,4136039.0,4141340.0,0.0
1577523534183,4169961.0,4173181.0,0.0
1577523534229,4229776.0,4208516.0,0.0
1577523534286,4253580.0,4210167.0,0.0
1577523534325,4312372.0,4236377.0,0.0
1577523534382,4360033.0,4268511.0,0.0
1577523534429,4346942.0,4247763.0,0.0
1577523534473,4369716.0,4238468.0,0.0
1577523534526,4404244.0,4230926.0,0.0
1577523534577,4307821.0,4102206.0,0.0
1577523534624,4301466.0,4051653.0,0.0
1577523534669,4304579.0,4035742.0,0.0
1577523534724,4301509.0,4036727.0,0.0
1577523534769,4315008.0,4049334.0,0.0
1577523534818,4327610.0,4085493.0,0.0
1577523534864,4346215.0,4145840.0,0.0
1577523534922,4275842.0,4123306.0,0.0
1577523534966,4224861.0,4062112.0,0.0
1577523535020,4173515.0,3996157.0,0.0
1577523535065,4104762.0,3912801.0,0.0
1577523535118,4000243.0,3791780.0,0.0
1577523535166,3924392.0,3702907.0,0.0
1577523535215,3887540.0,3649763.0,0.0
1577523535263,3872924.0,3614711.0,0.0
1577523535309,3875681.0,3607521.0,0.0
1577523535364,3890045.0,3525636.0,0.0
1577523535405,3912793.0,3523425.0,0.0
1577523535462,3901167.0,3488680.0,0.0
1577523535504,3876618.0,3443161.0,0.0
1577523535560,3833256.0,3389779.0,0.0
1577523535606,3646358.0,3261966.0,0.0
1577523535658,3653441.0,3197454.0,0.0
1577523535704,3710904.0,3281436.0,0.0
1577523535752,3760499.0,3396912.0,0.0
1577523535804,3814930.0,3468076.0,0.0
1577523535853,3902980.0,3444071.0,0.0
1577523535901,3868954.0,3376924.0,0.0
1577523535949,3871313.0,3401439.0,0.0
1577523536002,3814393.0,3417242.0,0.0
1577523536043,3825473.0,3359386.0,0.0
1577523536099,3874519.0,3482032.0,0.0
1577523536150,3745277.0,3415777.0,0.0
1577523536197,3675918.0,3384257.0,0.0
1577523536243,3684752.0,3378241.0,0.0
1577523536293,3627989.0,3359993.0,0.0
1577523536345,3652591.0,3365550.0,0.0
1577523536388,3616650.0,3356204.0,0.0
1577523536443,3622180.0,3374262.0,0.0
1577523536490,3594085.0,3372328.0,0.0
1577523536541,3609723.0,3395779.0,0.0
1577523536590,3597283.0,3396965.0,0.0
1577523536638,3593183.0,3396610.0,0.0
1577523536687,3556158.0,3388011.0,0.0
1577523536737,3595237.0,3412725.0,0.0
1577523536782,3608068.0,3338286.0,0.0
1577523536833,3627546.0,3321417.0,0.0
1577523536886,3697529.0,3375831.0,0.0
1577523536926,3771648.0,3414294.0,0.0
1577523536984,3791638.0,3413670.0,0.0
1577523537029,3780654.0,3381396.0,0.0
1577523537073,3762389.0,3374218.0,0.0
1577523537129,3826373.0,3453001.0,0.0
1577523537172,3819255.0,3446030.0,0.0
1577523537228,3877095.0,3490596.0,0.0
1577523537271,3846599.0,3439114.0,0.0
1577523537323,3798625.0,3393271.0,0.0
1577523537373,3754353.0,3342482.0,0.0
1577523537424,3724090.0,3324434.0,0.0
1577523537467,3735785.0,3329773.0,0.0
1577523537520,3740206.0,3330432.0,0.0
1577523537564,3730714.0,3328430.0,0.0
1577523537622,3737388.0,3337697.0,0.0
1577523537670,3766784.0,3358258.0,0.0
1577523537720,3781573.0,3363175.0,0.0
1577523537770,3792530.0,3379358.0,0.0
1577523537811,3846519.0,3420259.0,0.0
1577523537864,3855370.0,3416807.0,0.0
1577523537913,3903136.0,3448970.0,0.0
1577523537964,3949687.0,3486774.0,0.0
1577523538011,3965169.0,3499499.0,0.0
1577523538065,3991149.0,3530300.0,0.0
1577523538109,4003181.0,3609291.0,0.0
1577523538154,3949263.0,3595247.0,0.0
1577523538211,3907844.0,3506895.0,0.0
1577523538259,4041350.0,3620532.0,0.0
1577523538307,4047368.0,3533698.0,0.0
1577523538356,4013090.0,3433427.0,0.0
1577523538403,3888026.0,3332512.0,0.0
1577523538453,3861248.0,3340428.0,0.0
1577523538506,3790709.0,3302788.0,0.0
1577523538548,3698171.0,3172098.0,0.0
1577523538601,3859982.0,3105028.0,0.0
1577523538652,3815564.0,3115715.0,0.0
1577523538704,3702601.0,3192452.0,0.0
1577523538749,3485169.0,3297361.0,0.0
1577523538799,3224517.0,3239844.0,0.0
1577523538843,3178825.0,3257051.0,0.0
1577523538890,3217174.0,3368576.0,0.0
1577523538939,3239480.0,3543251.0,0.0
1577523538987,3219325.0,3543198.0,0.0
1577523539038,3139563.0,3542054.0,0.0
1577523539088,3138255.0,3656691.0,0.0
1577523539137,3082947.0,3664849.0,0.0
1577523539187,3143923.0,3688244.0,0.0
1577523539232,3014680.0,3521536.0,0.0
1577523539282,3004468.0,3633875.0,0.0
1577523539330,3099800.0,4165115.0,0.0
1577523539381,3259097.0,4965963.0,0.0
1577523539428,3246622.0,6420551.0,0.0
1577523539479,2966318.0,6491339.0,0.0
1577523539526,3232597.0,6355179.0,0.0
1577523539577,2975402.0,6071782.0,0.0
1577523539626,1725901.0,5617888.0,0.0
1577523539675,2747266.0,3363856.0,0.0
1577523539726,2771401.0,3272454.0,0.0
1577523539772,2827660.0,3302932.0,0.0
1577523539821,2750971.0,3148765.0,0.0
1577523539870,2799274.0,3159726.0,0.0
1577523539920,2842370.0,3148149.0,0.0
1577523539971,2946346.0,3225150.0,0.0
1577523540019,2562328.0,3203728.0,0.0
1577523540071,2573744.0,3121302.0,0.0
1577523540119,2606917.0,3122647.0,0.0
1577523540168,2626921.0,3181958.0,0.0
1577523540216,2663377.0,3216107.0,0.0
1577523540273,2696330.0,3227989.0,0.0
1577523540321,2721064.0,3280491.0,0.0
1577523540368,2742792.0,3268886.0,0.0
1577523540419,2759950.0,3236347.0,0.0
1577523540467,2760476.0,3158172.0,0.0
1577523540514,2705706.0,3031641.0,0.0
1577523540562,2690019.0,3001971.0,0.0
1577523540609,2686023.0,2981902.0,0.0
1577523540658,2685066.0,2954788.0,0.0
1577523540712,2693790.0,2946192.0,0.0
1577523540755,2732389.0,2976849.0,0.0
1577523540802,2762817.0,3009393.0,0.0
1577523540852,2835197.0,3073548.0,0.0
1577523540911,2892241.0,3107445.0,0.0
1577523540956,2896579.0,3099219.0,0.0
1577523541006,2908172.0,3092994.0,0.0
1577523541050,2904141.0,3084722.0,0.0
1577523541103,2923255.0,3085153.0,0.0
1577523541151,2919533.0,3070872.0,0.0
1577523541205,2933016.0,3076884.0,0.0
1577523541253,2930852.0,3060010.0,0.0
1577523541300,2938209.0,3064832.0,0.0
1577523541351,2941338.0,3069988.0,0.0
1577523541392,2931803.0,3067121.0,0.0
1577523541450,2936204.0,3067091.0,0.0
1577523541494,2944491.0,3050654.0,0.0
1577523541543,2957118.0,3027740.0,0.0
1577523541595,2974461.0,3016356.0,0.0
1577523541641,2971237.0,3012819.0,0.0
1577523541693,2952212.0,3010308.0,0.0
1577523541743,2937313.0,3013124.0,0.0
1577523541785,2945840.0,3036507.0,0.0
1577523541838,2965969.0,3101456.0,0.0
1577523541891,2992495.0,3162327.0,0.0
1577523541937,3008455.0,3175805.0,0.0
1577523541989,3032476.0,3206834.0,0.0
1577523542030,3053186.0,3247024.0,0.0
1577523542086,3080429.0,3283212.0,0.0
1577523542133,3099619.0,3308659.0,0.0
1577523542183,3132080.0,3370227.0,0.0
1577523542234,3129274.0,3443478.0,0.0
1577523542281,3112480.0,3470947.0,0.0
1577523542331,3086214.0,3469356.0,0.0
1577523542373,3075065.0,3476542.0,0.0
1577523542429,3155726.0,3446686.0,0.0
1577523542470,3202243.0,3432161.0,0.0
1577523542529,3217751.0,3428979.0,0.0
1577523542570,3195776.0,3346273.0,0.0
1577523542626,3284327.0,3329948.0,0.0
1577523542676,3553247.0,3291749.0,0.0
1577523542722,3654964.0,3298503.0,0.0
1577523542772,4037443.0,3248430.0,0.0
1577523542815,4283778.0,3257295.0,0.0
1577523542871,4105778.0,3273923.0,0.0
1577523542912,4866387.0,3284697.0,0.0
1577523542970,4773103.0,3361586.0,0.0
1577523543010,4710448.0,3387162.0,0.0
1577523543061,4701287.0,3373980.0,0.0
1577523543112,6941123.0,3658794.0,0.0
1577523543161,9681883.0,5455335.0,0.0
1577523543215,9676281.0,4890886.0,0.0
1577523543263,1.188632E7,4699457.0,0.0
1577523543313,6716648.0,2817958.0,0.0
1577523543355,5424580.0,2740733.0,0.0
1577523543411,6618277.0,3041568.0,0.0
1577523543452,1.2732425E7,7077812.0,0.0
1577523543510,3153588.0,2260240.0,0.0
1577523543551,3389112.0,2005044.0,0.0
1577523543604,4377754.0,2106097.0,0.0
1577523543653,4652009.0,2368735.0,0.0
1577523543708,4510837.0,2473088.0,0.0
1577523543747,5553026.0,2559065.0,0.0
1577523543802,5815434.0,2409238.0,0.0
1577523543852,6211431.0,2464384.0,0.0
1577523543895,5504999.0,2186317.0,0.0
1577523543942,5112450.0,1970978.0,0.0
1577523543993,5205411.0,1971783.0,0.0
1577523544043,4707435.0,2100254.0,0.0
1577523544093,4391254.0,2199507.0,0.0
1577523544141,4288757.0,2373835.0,0.0
1577523544189,4268271.0,2512369.0,0.0
1577523544243,4429078.0,2933302.0,0.0
1577523544285,4978586.0,3464679.0,0.0
1577523544338,6229572.0,4312614.0,0.0
1577523544392,5781252.0,4891127.0,0.0
1577523544433,5520509.0,4900116.0,0.0
1577523544492,5355280.0,5006803.0,0.0
1577523544533,5179100.0,4958161.0,0.0
1577523544587,5059507.0,4978206.0,0.0
1577523544635,4952274.0,4959504.0,0.0
1577523544684,4833967.0,4555272.0,0.0
1577523544734,4743190.0,4412808.0,0.0
1577523544785,4744856.0,4466411.0,0.0
1577523544828,4752978.0,4520183.0,0.0
1577523544875,4726300.0,4486853.0,0.0
1577523544924,4713971.0,4440531.0,0.0
1577523544972,4620494.0,4411810.0,0.0
1577523545021,4581314.0,4415201.0,0.0
1577523545072,4535506.0,4422367.0,0.0
1577523545122,4486067.0,4442309.0,0.0
1577523545170,4356636.0,4402176.0,0.0
1577523545225,4266134.0,4360858.0,0.0
1577523545274,4207572.0,4334165.0,0.0
1577523545317,4163579.0,4333228.0,0.0
1577523545372,4192326.0,4378209.0,0.0
1577523545414,4261896.0,4435630.0,0.0
1577523545471,4278280.0,4458339.0,0.0
1577523545513,4281451.0,4473953.0,0.0
1577523545569,4253301.0,4463187.0,0.0
1577523545615,4254887.0,4454314.0,0.0
1577523545667,4225129.0,4442237.0,0.0
1577523545706,4200437.0,4433446.0,0.0
1577523545758,4184536.0,4448207.0,0.0
1577523545809,4172393.0,4475026.0,0.0
1577523545854,4171059.0,4466850.0,0.0
1577523545912,4163247.0,4545887.0,0.0
1577523545954,4154273.0,4617228.0,0.0
1577523546010,4114266.0,4692406.0,0.0
1577523546059,4088014.0,4775982.0,0.0
1577523546109,4086761.0,4882555.0,0.0
1577523546150,4077316.0,4954686.0,0.0
1577523546207,4068539.0,5043588.0,0.0
1577523546254,4036242.0,5100302.0,0.0
1577523546301,4011321.0,5162664.0,0.0
1577523546352,3996385.0,5209778.0,0.0
1577523546393,3996868.0,5247498.0,0.0
1577523546451,4001463.0,5293622.0,0.0
1577523546495,3986365.0,5321159.0,0.0
1577523546549,3961628.0,5372099.0,0.0
1577523546597,3931825.0,5421127.0,0.0
1577523546649,3917223.0,5467719.0,0.0
1577523546697,3909192.0,5487223.0,0.0
1577523546743,3927896.0,5491228.0,0.0
1577523546786,3952576.0,5492154.0,0.0
1577523546844,3964283.0,5478578.0,0.0
1577523546894,3973716.0,5457160.0,0.0
1577523546942,3959009.0,5422031.0,0.0
1577523546991,3920611.0,5374293.0,0.0
1577523547037,3931389.0,5349900.0,0.0
1577523547083,4090254.0,5458887.0,0.0
1577523547139,4081682.0,5433890.0,0.0
1577523547185,4041849.0,5367210.0,0.0
1577523547236,4038241.0,5346685.0,0.0
1577523547285,4054889.0,5317288.0,0.0
1577523547334,4068572.0,5264339.0,0.0
1577523547378,4055165.0,5195225.0,0.0
1577523547426,4022030.0,5165525.0,0.0
1577523547476,3980001.0,5100802.0,0.0
1577523547522,3999774.0,5097774.0,0.0
1577523547577,4027912.0,5086216.0,0.0
1577523547623,4063518.0,5069031.0,0.0
1577523547673,4085888.0,5060303.0,0.0
1577523547720,4119023.0,5049723.0,0.0
1577523547769,4233149.0,5080817.0,0.0
1577523547820,4252519.0,5114199.0,0.0
1577523547870,4298041.0,5105503.0,0.0
1577523547915,4231126.0,5090470.0,0.0
1577523547972,4206424.0,5011827.0,0.0
1577523548016,4263539.0,5000468.0,0.0
1577523548071,4341206.0,4974785.0,0.0
1577523548118,4466557.0,4975648.0,0.0
1577523548170,4551878.0,4973224.0,0.0
1577523548219,4632786.0,5004411.0,0.0
1577523548269,4693555.0,5037990.0,0.0
1577523548316,4789435.0,5093467.0,0.0
1577523548364,4900998.0,5165868.0,0.0
1577523548414,5001162.0,5243014.0,0.0
1577523548463,5123020.0,5317485.0,0.0
1577523548513,5211272.0,5383562.0,0.0
1577523548557,5273889.0,5439018.0,0.0
1577523548611,5295925.0,5470673.0,0.0
1577523548658,5342825.0,5496689.0,0.0
1577523548703,5379443.0,5528667.0,0.0
1577523548759,5371284.0,5546987.0,0.0
1577523548810,5361129.0,5557680.0,0.0
1577523548856,5356717.0,5558263.0,0.0
1577523548900,5379489.0,5571860.0,0.0
1577523548956,5377201.0,5573024.0,0.0
1577523549007,5377835.0,5573845.0,0.0
1577523549054,5376765.0,5592393.0,0.0
1577523549097,5374525.0,5606093.0,0.0
1577523549152,5369182.0,5600871.0,0.0
1577523549199,5360313.0,5590428.0,0.0
1577523549251,5433787.0,5607249.0,0.0
1577523549300,5352097.0,5519315.0,0.0
1577523549349,5336644.0,5505761.0,0.0
1577523549398,5320995.0,5496795.0,0.0
1577523549446,5385244.0,5558523.0,0.0
1577523549493,5333450.0,5539009.0,0.0
1577523549538,5338403.0,5542430.0,0.0
1577523549594,5310988.0,5521489.0,0.0
1577523549638,5280701.0,5507248.0,0.0
1577523549693,5268455.0,5492291.0,0.0
1577523549741,5250944.0,5479151.0,0.0
1577523549784,5263847.0,5498126.0,0.0
1577523549840,5235513.0,5493581.0,0.0
1577523549888,5217934.0,5500300.0,0.0
1577523549931,5203080.0,5476790.0,0.0
1577523549982,5184340.0,5474937.0,0.0
1577523550027,5167496.0,5453769.0,0.0
1577523550082,5109716.0,5411305.0,0.0
1577523550129,5066756.0,5395651.0,0.0
1577523550178,5070307.0,5400112.0,0.0
1577523550227,5052349.0,5390449.0,0.0
1577523550281,5036275.0,5389846.0,0.0
1577523550331,5046753.0,5418463.0,0.0
1577523550379,5080200.0,5455402.0,0.0
1577523550428,5066962.0,5446956.0,0.0
1577523550472,5040043.0,5408788.0,0.0
1577523550522,5057094.0,5419857.0,0.0
1577523550577,5045972.0,5422738.0,0.0
1577523550619,5021499.0,5420273.0,0.0
1577523550676,5018409.0,5425881.0,0.0
1577523550719,5013836.0,5442868.0,0.0
1577523550767,5029530.0,5463464.0,0.0
1577523550817,5038986.0,5486069.0,0.0
1577523550871,5068376.0,5512803.0,0.0
1577523550921,5079659.0,5524839.0,0.0
1577523550969,5105624.0,5549129.0,0.0
1577523551020,5099926.0,5563475.0,0.0
1577523551067,5062643.0,5539799.0,0.0
1577523551118,5031770.0,5492612.0,0.0
1577523551160,5023475.0,5490407.0,0.0
1577523551216,5028773.0,5500060.0,0.0
1577523551259,5034390.0,5518951.0,0.0
1577523551316,5033666.0,5535242.0,0.0
1577523551362,5043191.0,5545301.0,0.0
1577523551413,5078073.0,5564932.0,0.0
1577523551462,5092826.0,5600008.0,0.0
1577523551509,5081073.0,5623206.0,0.0
1577523551553,5070226.0,5630561.0,0.0
1577523551603,5070133.0,5635169.0,0.0
1577523551658,5065057.0,5621093.0,0.0
1577523551700,5041721.0,5583760.0,0.0
1577523551757,5060046.0,5577518.0,0.0
1577523551801,5063079.0,5563079.0,0.0
1577523551855,5072053.0,5546798.0,0.0
1577523551902,5052533.0,5539019.0,0.0
1577523551953,4992924.0,5565899.0,0.0
1577523552004,4958042.0,5590085.0,0.0
1577523552051,4919048.0,5657305.0,0.0
1577523552094,4896827.0,5740099.0,0.0
1577523552145,4918864.0,5766824.0,0.0
1577523552199,4927894.0,5752968.0,0.0
1577523552241,4917691.0,5666137.0,0.0
1577523552296,4996453.0,5757409.0,0.0
1577523552341,5054497.0,5752925.0,0.0
1577523552395,4926860.0,5673699.0,0.0
1577523552442,4855900.0,5660489.0,0.0
1577523552494,4791582.0,5648495.0,0.0
1577523552540,4764963.0,5653310.0,0.0
1577523552586,4763928.0,5629478.0,0.0
1577523552641,4750909.0,5614260.0,0.0
1577523552684,4724806.0,5594526.0,0.0
1577523552740,4690855.0,5573284.0,0.0
1577523552784,4660442.0,5556016.0,0.0
1577523552838,4646263.0,5560228.0,0.0
1577523552883,4696117.0,5609037.0,0.0
1577523552929,4702895.0,5618255.0,0.0
1577523552983,4779588.0,5679400.0,0.0
1577523553033,4845836.0,5712158.0,0.0
1577523553077,4910338.0,5736291.0,0.0
1577523553126,4973221.0,5756442.0,0.0
1577523553175,5016443.0,5770869.0,0.0
1577523553222,5049891.0,5790728.0,0.0
1577523553272,5088495.0,5815747.0,0.0
1577523553324,5122330.0,5831694.0,0.0
1577523553373,5142839.0,5852269.0,0.0
1577523553433,5158924.0,5868966.0,0.0
1577523553478,5244936.0,5895233.0,0.0
1577523553526,5226161.0,5914768.0,0.0
1577523553564,5258401.0,5928281.0,0.0
1577523553629,5275670.0,5947952.0,0.0
1577523553719,5292915.0,5971057.0,0.0
1577523553719,5303083.0,5986151.0,0.0
1577523554004,5319779.0,6001286.0,0.0
1577523554015,5328187.0,6020343.0,0.0
1577523554015,5336024.0,6035687.0,0.0
1577523554015,5350604.0,6046006.0,0.0
1577523554016,5352776.0,6058416.0,0.0
1577523554056,5368090.0,6065751.0,0.0
1577523554076,5381477.0,6075727.0,0.0
1577523554162,5394471.0,6083945.0,0.0
1577523554172,5400720.0,6095108.0,0.0
1577523554205,5418093.0,6105790.0,0.0
1577523554256,5430191.0,6120218.0,0.0
1577523554302,5439601.0,6131504.0,0.0
1577523554354,5452676.0,6315526.0,0.0
1577523554404,5472117.0,6325819.0,0.0
1577523554452,5483939.0,6337953.0,0.0
1577523554504,5500634.0,6345803.0,0.0
1577523554548,5512433.0,6358256.0,0.0
1577523554604,5524463.0,6364371.0,0.0
1577523554648,5541869.0,6369566.0,0.0
1577523554698,5557093.0,6384600.0,0.0
1577523554745,5566135.0,6393308.0,0.0
1577523554796,5580003.0,6406340.0,0.0
1577523554848,5595835.0,6413192.0,0.0
1577523554894,5612438.0,6425498.0,0.0
1577523554945,5627524.0,6428188.0,0.0
1577523554992,5643402.0,6439205.0,0.0
1577523555045,5657315.0,6447951.0,0.0
1577523555089,5675596.0,6458524.0,0.0
1577523555144,5686338.0,6469248.0,0.0
1577523555188,5696943.0,6480289.0,0.0
1577523555236,5710775.0,6488935.0,0.0
1577523555289,5728493.0,6500307.0,0.0
1577523555336,5732641.0,6503856.0,0.0
1577523555385,5745222.0,6522833.0,0.0
1577523555435,5753942.0,6530006.0,0.0
1577523555484,5751760.0,6539941.0,0.0
1577523555537,5754149.0,6545553.0,0.0
1577523555585,5757813.0,6548429.0,0.0
1577523555636,5763111.0,6554286.0,0.0
1577523555683,5776346.0,6560414.0,0.0
1577523555734,5779069.0,6572881.0,0.0
1577523555778,5779092.0,6571038.0,0.0
1577523555827,5780667.0,6580839.0,0.0
1577523555878,5790616.0,6591759.0,0.0
1577523555926,5803610.0,6593675.0,0.0
1577523555978,5815675.0,6600368.0,0.0
1577523556028,5829347.0,6608143.0,0.0
1577523556076,5835943.0,6618840.0,0.0
1577523556127,5840883.0,6621762.0,0.0
1577523556170,5840561.0,6623911.0,0.0
1577523556226,5831989.0,6625434.0,0.0
1577523556269,5836217.0,6626540.0,0.0
1577523556322,5835127.0,6623900.0,0.0
1577523556368,5831818.0,6625889.0,0.0
1577523556421,5859381.0,6654457.0,0.0
1577523556467,5893516.0,6661199.0,0.0
1577523556515,5933270.0,6647346.0,0.0
1577523556567,5943254.0,6604936.0,0.0
1577523556613,5923825.0,6567662.0,0.0
1577523556669,5902490.0,6545849.0,0.0
1577523556711,5881670.0,6522500.0,0.0
1577523556765,5869342.0,6514359.0,0.0
1577523556808,5863265.0,6522193.0,0.0
1577523556858,5867458.0,6533568.0,0.0
1577523556911,5857463.0,6525497.0,0.0
1577523556968,5848569.0,6519185.0,0.0
1577523557004,5836058.0,6513006.0,0.0
1577523557057,5819730.0,6502505.0,0.0
1577523557106,5800004.0,6482917.0,0.0
1577523557161,5786584.0,6473065.0,0.0
1577523557211,5777633.0,6472366.0,0.0
1577523557253,5768303.0,6473533.0,0.0
1577523557300,5762685.0,6471421.0,0.0
1577523557359,5751770.0,6462185.0,0.0
1577523557400,5734777.0,6449092.0,0.0
1577523557448,5722173.0,6444892.0,0.0
1577523557500,5718003.0,6442337.0,0.0
1577523557546,5708938.0,6446870.0,0.0
1577523557597,5696576.0,6434637.0,0.0
1577523557644,5686305.0,6433063.0,0.0
1577523557694,5675974.0,6426593.0,0.0
1577523557743,5667014.0,6424419.0,0.0
1577523557792,5655626.0,6422011.0,0.0
1577523557848,5644217.0,6417736.0,0.0
1577523557891,5637760.0,6419087.0,0.0
1577523557939,5624030.0,6415267.0,0.0
1577523557988,5622457.0,6420045.0,0.0
1577523558038,5620112.0,6420709.0,0.0
1577523558089,5614185.0,6420733.0,0.0
1577523558139,5608163.0,6423410.0,0.0
1577523558187,5599075.0,6420352.0,0.0
1577523558235,5590998.0,6420316.0,0.0
1577523558286,5583428.0,6415318.0,0.0
1577523558335,5578326.0,6414556.0,0.0
1577523558390,5570685.0,6413819.0,0.0
1577523558436,5564930.0,6410650.0,0.0
1577523558480,5557689.0,6412259.0,0.0
1577523558534,5550360.0,6411043.0,0.0
1577523558578,5543132.0,6407677.0,0.0
1577523558631,5539767.0,6409533.0,0.0
1577523558678,5534872.0,6408267.0,0.0
1577523558727,5533493.0,6404336.0,0.0
1577523558775,5518914.0,6400381.0,0.0
1577523558828,5514985.0,6402189.0,0.0
1577523558873,5505907.0,6399130.0,0.0
1577523558926,5501415.0,6395764.0,0.0
1577523558971,5493429.0,6389278.0,0.0
1577523559027,5475208.0,6381616.0,0.0
1577523559077,5464970.0,6381100.0,0.0
1577523559119,5453687.0,6382647.0,0.0
1577523559167,5450987.0,6381075.0,0.0
1577523559221,5436855.0,6377244.0,0.0
1577523559279,5432282.0,6381444.0,0.0
1577523559323,5420564.0,6378827.0,0.0
1577523559374,5414152.0,6378361.0,0.0
1577523559413,5405869.0,6377059.0,0.0
1577523559467,5405731.0,6384538.0,0.0
1577523559512,5401928.0,6381113.0,0.0
1577523559569,5393746.0,6377059.0,0.0
1577523559610,5383384.0,6372945.0,0.0
1577523559659,5370952.0,6375719.0,0.0
1577523559707,5367345.0,6370403.0,0.0
1577523559764,5361519.0,6370120.0,0.0
1577523559809,5357807.0,6372797.0,0.0
1577523559856,5355396.0,6370476.0,0.0
1577523559911,5345480.0,6365649.0,0.0
1577523559964,5340021.0,6365060.0,0.0
1577523560008,5333760.0,6364446.0,0.0
1577523560054,5331187.0,6360331.0,0.0
1577523560102,5322925.0,6359435.0,0.0
1577523560155,5313917.0,6356217.0,0.0
1577523560209,5308081.0,6347828.0,0.0
1577523560249,5306392.0,6351377.0,0.0
1577523560300,5298822.0,6344463.0,0.0
1577523560350,5299074.0,6346403.0,0.0
1577523560404,5290950.0,6347202.0,0.0
1577523560448,5287987.0,6341773.0,0.0
1577523560498,5281942.0,6343715.0,0.0
1577523560548,5281207.0,6341835.0,0.0
1577523560594,5271971.0,6339478.0,0.0
1577523560652,5272706.0,6336712.0,0.0
1577523560693,5267144.0,6338996.0,0.0
1577523560742,5263457.0,6339195.0,0.0
1577523560792,5260331.0,6335816.0,0.0
1577523560844,5258574.0,6333643.0,0.0
1577523560890,5249635.0,6330535.0,0.0
1577523560944,5249393.0,6330315.0,0.0
1577523560988,5245636.0,6326384.0,0.0
1577523561039,5242718.0,6331652.0,0.0
1577523561092,5233928.0,6325929.0,0.0
1577523561142,5232332.0,6322946.0,0.0
1577523561194,5226828.0,6320600.0,0.0
1577523561246,5222049.0,6318770.0,0.0
1577523561282,5217325.0,6314937.0,0.0
1577523561341,5212754.0,6309067.0,0.0
1577523561386,5207099.0,6302755.0,0.0
1577523561432,5201401.0,6295101.0,0.0
1577523561481,5204814.0,6304130.0,0.0
1577523561540,5205043.0,6305432.0,0.0
1577523561587,5202758.0,6299217.0,0.0
1577523561634,5199058.0,6296589.0,0.0
1577523561680,5196506.0,6296933.0,0.0
1577523561734,5191750.0,6298577.0,0.0
1577523561776,5192094.0,6297867.0,0.0
1577523561830,5185581.0,6289734.0,0.0
1577523561875,5170541.0,6279774.0,0.0
1577523561926,5173700.0,6275365.0,0.0
1577523561972,5156294.0,6254007.0,0.0
1577523562022,5149675.0,6236555.0,0.0
1577523562071,5153364.0,6231556.0,0.0
1577523562120,5158395.0,6234564.0,0.0
1577523562170,5159890.0,6234553.0,0.0
1577523562219,5167324.0,6237219.0,0.0
1577523562283,5164705.0,6233496.0,0.0
1577523562318,5169507.0,6230795.0,0.0
1577523562372,5163912.0,6223154.0,0.0
1577523562415,5161717.0,6224236.0,0.0
1577523562465,5159349.0,6215099.0,0.0
1577523562519,5154134.0,6207607.0,0.0
1577523562569,5157811.0,6208688.0,0.0
1577523562610,5159822.0,6204451.0,0.0
1577523562660,5163693.0,6213047.0,0.0
1577523562717,5155858.0,6206291.0,0.0
1577523562767,5144483.0,6188777.0,0.0
1577523562816,5137026.0,6174936.0,0.0
1577523562859,5136222.0,6159388.0,0.0
1577523562905,5138531.0,6157545.0,0.0
1577523562964,5144976.0,6157078.0,0.0
1577523563012,5146068.0,6149340.0,0.0
1577523563055,5150090.0,6145522.0,0.0
1577523563103,5151882.0,6146074.0,0.0
1577523563157,5156983.0,6138350.0,0.0
1577523563209,5157041.0,6138816.0,0.0
1577523563249,5160509.0,6135009.0,0.0
1577523563300,5167013.0,6132404.0,0.0
1577523563354,5171379.0,6128315.0,0.0
1577523563397,5174918.0,6128205.0,0.0
1577523563446,5180261.0,6125539.0,0.0
1577523563496,5179169.0,6120406.0,0.0
1577523563545,5189487.0,6121191.0,0.0
1577523563593,5191244.0,6115762.0,0.0
1577523563644,5192313.0,6113257.0,0.0
1577523563693,5185374.0,6104267.0,0.0
1577523563740,5188843.0,6108749.0,0.0
1577523563795,5224140.0,6136286.0,0.0
1577523563844,5175516.0,6095017.0,0.0
1577523563899,5112507.0,6026167.0,0.0
1577523563944,5196622.0,6075835.0,0.0
1577523563987,5183616.0,6078450.0,0.0
1577523564037,5160361.0,6075219.0,0.0
1577523564089,5147332.0,6086397.0,0.0
1577523564136,5116484.0,6085364.0,0.0
1577523564191,5074190.0,6063172.0,0.0
1577523564237,5032472.0,6038989.0,0.0
1577523564403,4990810.0,6018860.0,0.0
1577523564404,4953746.0,6009132.0,0.0
1577523564405,4920691.0,6012890.0,0.0
1577523564446,4950885.0,6083855.0,0.0
1577523564484,4925561.0,6068367.0,0.0
1577523564526,4937994.0,6178290.0,0.0
1577523564577,4972382.0,6151834.0,0.0
1577523564626,4977001.0,6056613.0,0.0
1577523564674,4979540.0,6123758.0,0.0
1577523564722,4844067.0,6109241.0,0.0
1577523564776,4882109.0,6132528.0,0.0
1577523564822,4911236.0,6119214.0,0.0
1577523564874,4861991.0,6067237.0,0.0
1577523564921,4809013.0,6042661.0,0.0
1577523564973,4742305.0,6018257.0,0.0
1577523565020,4678044.0,5992011.0,0.0
1577523565067,4673507.0,6042771.0,0.0
1577523565117,4674644.0,6066204.0,0.0
1577523565166,4642979.0,6075846.0,0.0
1577523565214,4589712.0,6038558.0,0.0
1577523565267,4640210.0,6067813.0,0.0
1577523565312,4571065.0,6029064.0,0.0
1577523565361,4533863.0,6037084.0,0.0
1577523565411,4559956.0,6094735.0,0.0
1577523565460,4545822.0,6073661.0,0.0
1577523565512,4497315.0,6002683.0,0.0
1577523565558,4503622.0,6017496.0,0.0
1577523565612,4540665.0,6086790.0,0.0
1577523565658,4593366.0,6150397.0,0.0
1577523565705,4675309.0,6198578.0,0.0
1577523565758,4746555.0,6231962.0,0.0
1577523565810,4821433.0,6259312.0,0.0
1577523565854,4888175.0,6289661.0,0.0
1577523565903,4947001.0,6321655.0,0.0
1577523565955,4973968.0,6332499.0,0.0
1577523566004,5008699.0,6346023.0,0.0
1577523566050,5014055.0,6353822.0,0.0
1577523566100,5023659.0,6363820.0,0.0
1577523566154,5036894.0,6381665.0,0.0
1577523566203,5062540.0,6388186.0,0.0
1577523566256,5084071.0,6401107.0,0.0
1577523566297,5099926.0,6404250.0,0.0
1577523566349,5121882.0,6410785.0,0.0
1577523566396,5111991.0,6406168.0,0.0
1577523566448,5109291.0,6395138.0,0.0
1577523566492,5103190.0,6397556.0,0.0
1577523566543,5061357.0,6377048.0,0.0
1577523566592,5026130.0,6363868.0,0.0
1577523566641,4957514.0,6341821.0,0.0
1577523566696,4973875.0,6396464.0,0.0
1577523566741,4933731.0,6398380.0,0.0
1577523566787,4925355.0,6417946.0,0.0
1577523566837,4886371.0,6403403.0,0.0
1577523566889,4914279.0,6427096.0,0.0
1577523566940,4871298.0,6370796.0,0.0
1577523566984,4836071.0,6365122.0,0.0
1577523567033,5103087.0,6479417.0,0.0
1577523567081,4956998.0,6358084.0,0.0
1577523567134,4981896.0,6378226.0,0.0
1577523567185,5068376.0,6419555.0,0.0
1577523567233,4913808.0,6303576.0,0.0
1577523567281,4874824.0,6307813.0,0.0
1577523567326,4772211.0,6204720.0,0.0
1577523567378,4732620.0,6177185.0,0.0
1577523567430,4685225.0,6126066.0,0.0
1577523567475,4679320.0,6113613.0,0.0
1577523567524,4682985.0,6078633.0,0.0
1577523567576,4706481.0,6086408.0,0.0
1577523567628,4722875.0,6093704.0,0.0
1577523567680,4752311.0,6078561.0,0.0
1577523567720,4764870.0,6086249.0,0.0
1577523567770,4766007.0,6098297.0,0.0
1577523567820,4766926.0,6100570.0,0.0
1577523567873,4759597.0,6084910.0,0.0
1577523567919,4747625.0,6045018.0,0.0
1577523567966,4734183.0,6011244.0,0.0
1577523568014,4719165.0,6015505.0,0.0
1577523568065,4702183.0,6013369.0,0.0
1577523568115,4656260.0,6011919.0,0.0
1577523568164,4614658.0,5997230.0,0.0
1577523568215,4610095.0,6004254.0,0.0
1577523568259,4611061.0,5995917.0,0.0
1577523568319,4634268.0,6018932.0,0.0
1577523568363,4605477.0,5972605.0,0.0
1577523568407,4601410.0,5997980.0,0.0
1577523568458,4566228.0,5971795.0,0.0
1577523568504,4565252.0,5986778.0,0.0
1577523568556,4555371.0,5990046.0,0.0
1577523568604,4550189.0,5997095.0,0.0
1577523568654,4557956.0,6011895.0,0.0
1577523568702,4549419.0,6025516.0,0.0
1577523568752,4549419.0,6039763.0,0.0
1577523568804,4550959.0,6062459.0,0.0
1577523568848,4564952.0,6084235.0,0.0
1577523568900,4557427.0,6083350.0,0.0
1577523568947,4572480.0,6095779.0,0.0
1577523569003,4587520.0,6102499.0,0.0
1577523569050,4601410.0,6100497.0,0.0
1577523569094,4622734.0,6110887.0,0.0
1577523569145,4630720.0,6112445.0,0.0
1577523569198,4618690.0,6101676.0,0.0
1577523569259,4618438.0,6103333.0,0.0
1577523569296,4614668.0,6081041.0,0.0
1577523569341,4612312.0,6055201.0,0.0
1577523569388,4579912.0,6010692.0,0.0
1577523569438,4566666.0,6014216.0,0.0
1577523569486,4561507.0,6016538.0,0.0
1577523569540,4548948.0,6013431.0,0.0
1577523569586,4530518.0,6053371.0,0.0
1577523569640,4514801.0,6068133.0,0.0
1577523569683,4501749.0,6123734.0,0.0
1577523569745,4485262.0,6136052.0,0.0
1577523569785,4485619.0,6162802.0,0.0
1577523569832,4478909.0,6142181.0,0.0
1577523569881,4477852.0,6134027.0,0.0
1577523569932,4479966.0,6119779.0,0.0
1577523569980,4475875.0,6073917.0,0.0
1577523570032,4467431.0,6071057.0,0.0
1577523570079,4455355.0,6060224.0,0.0
1577523570125,4478713.0,6094786.0,0.0
1577523570179,4466074.0,6062004.0,0.0
1577523570229,4464247.0,6077320.0,0.0
1577523570283,4532013.0,6179676.0,0.0
1577523570323,4453747.0,6063011.0,0.0
1577523570371,4473038.0,6165885.0,0.0
1577523570426,4462420.0,6179848.0,0.0
1577523570471,4407490.0,6084027.0,0.0
1577523570518,4387338.0,6092034.0,0.0
1577523570568,4387844.0,6129838.0,0.0
1577523570619,4379387.0,6170048.0,0.0
1577523570667,4394242.0,6250862.0,0.0
1577523570716,4400412.0,6332254.0,0.0
1577523570765,4418221.0,6406155.0,0.0
1577523570813,4462720.0,6465021.0,0.0
1577523570867,4501578.0,6469014.0,0.0
1577523570917,4528233.0,6455578.0,0.0
1577523570961,4560485.0,6432549.0,0.0
1577523571010,4552441.0,6356007.0,0.0
1577523571058,4548880.0,6309890.0,0.0
1577523571110,4531233.0,6258379.0,0.0
1577523571156,4544823.0,6266743.0,0.0
1577523571206,4566251.0,6270918.0,0.0
1577523571261,4652572.0,6300100.0,0.0
1577523571314,4684341.0,6301440.0,0.0
1577523571358,4704136.0,6308157.0,0.0
1577523571407,4677539.0,6268365.0,0.0
1577523571452,4628294.0,6215185.0,0.0
1577523571501,4574684.0,6163305.0,0.0
1577523571548,4535172.0,6117164.0,0.0
1577523571601,4496258.0,6069669.0,0.0
1577523571653,4452162.0,6043939.0,0.0
1577523571701,4590839.0,6192143.0,0.0
1577523571746,4639795.0,6222358.0,0.0
1577523571800,4654158.0,6202866.0,0.0
1577523571849,4716488.0,6159571.0,0.0
1577523571898,4451563.0,5946910.0,0.0
1577523571943,4421644.0,5963160.0,0.0
1577523571991,4407225.0,5967790.0,0.0
1577523572043,4376710.0,5953999.0,0.0
1577523572095,4363842.0,5948250.0,0.0
1577523572143,4495419.0,6074054.0,0.0
1577523572187,4614909.0,6181225.0,0.0
1577523572241,4648689.0,6213219.0,0.0
1577523572284,4613462.0,6194169.0,0.0
1577523572336,4598329.0,6169950.0,0.0
1577523572384,4575213.0,6140486.0,0.0
1577523572433,4539470.0,6065246.0,0.0
1577523572480,4441385.0,5924312.0,0.0
1577523572536,4388762.0,5844087.0,0.0
1577523572583,4372321.0,5814267.0,0.0
1577523572635,4368450.0,5812561.0,0.0
1577523572684,4376353.0,5813334.0,0.0
1577523572726,4367393.0,5809465.0,0.0
1577523572783,4370322.0,5792664.0,0.0
1577523572826,4376720.0,5795389.0,0.0
1577523572875,4391737.0,5795747.0,0.0
1577523572924,4407902.0,5803102.0,0.0
1577523572971,4434857.0,5800008.0,0.0
1577523573023,4464982.0,5804552.0,0.0
1577523573075,4486342.0,5805303.0,0.0
1577523573122,4516560.0,5811394.0,0.0
1577523573169,4515732.0,5807856.0,0.0
1577523573221,4481746.0,5779632.0,0.0
1577523573274,4482217.0,5772583.0,0.0
1577523573322,4473864.0,5777090.0,0.0
1577523573366,4473624.0,5777655.0,0.0
1577523573415,4478633.0,5787727.0,0.0
1577523573464,4474946.0,5801101.0,0.0
1577523573518,4477347.0,5801518.0,0.0
1577523573560,4473015.0,5814907.0,0.0
1577523573612,4472968.0,5824990.0,0.0
1577523573661,4476393.0,5845316.0,0.0
1577523573710,4469522.0,5850683.0,0.0
1577523573761,4471566.0,5851800.0,0.0
1577523573807,4500750.0,5876499.0,0.0
1577523573858,4516122.0,5871869.0,0.0
1577523573903,4551936.0,5897734.0,0.0
1577523573956,4580395.0,5914500.0,0.0
1577523574004,4607591.0,5916883.0,0.0
1577523574053,4637912.0,5923674.0,0.0
1577523574101,4676205.0,5932025.0,0.0
1577523574149,4710238.0,5941863.0,0.0
1577523574203,4704964.0,5920247.0,0.0
1577523574250,4717534.0,5926316.0,0.0
1577523574303,4740397.0,5919326.0,0.0
1577523574347,4766732.0,5936337.0,0.0
1577523574398,4773844.0,5936300.0,0.0
1577523574451,4791527.0,5930809.0,0.0
1577523574500,4811943.0,5949356.0,0.0
1577523574542,4838724.0,5959501.0,0.0
1577523574592,4808439.0,5956515.0,0.0
1577523574643,4802968.0,5994897.0,0.0
1577523574699,4745833.0,5934704.0,0.0
1577523574747,4650630.0,5794396.0,0.0
1577523574798,4623170.0,5785785.0,0.0
1577523574842,4592000.0,5762562.0,0.0
1577523574892,4727496.0,5920161.0,0.0
1577523574942,4765479.0,5945180.0,0.0
1577523574987,4777164.0,5825211.0,0.0
1577523575039,4892713.0,5841485.0,0.0
1577523575083,4754093.0,5742737.0,0.0
1577523575138,4735021.0,5890021.0,0.0
1577523575182,4758137.0,5839150.0,0.0
1577523575239,4771866.0,5879779.0,0.0
1577523575291,4697990.0,5796557.0,0.0
1577523575329,4625067.0,5739802.0,0.0
1577523575387,4582073.0,5692087.0,0.0
1577523575431,4553405.0,5663262.0,0.0
1577523575476,4558829.0,5663176.0,0.0
1577523575528,4522752.0,5633502.0,0.0
1577523575575,4488984.0,5608668.0,0.0
1577523575622,4442659.0,5577633.0,0.0
1577523575673,4397586.0,5571614.0,0.0
1577523575723,4378134.0,5579438.0,0.0
1577523575772,4444521.0,5648670.0,0.0
1577523575828,4423471.0,5621651.0,0.0
1577523575869,4464534.0,5657895.0,0.0
1577523575923,4558381.0,5719342.0,0.0
1577523575972,4573076.0,5728209.0,0.0
1577523576023,4550660.0,5709369.0,0.0
1577523576069,4503025.0,5676329.0,0.0
1577523576120,4498014.0,5679571.0,0.0
1577523576163,4489399.0,5682078.0,0.0
1577523576218,4599019.0,5815900.0,0.0
1577523576266,4649079.0,5853495.0,0.0
1577523576318,4678044.0,5841447.0,0.0
1577523576369,4688809.0,5819266.0,0.0
1577523576414,4741237.0,5822558.0,0.0
1577523576464,4866368.0,5821870.0,0.0
1577523576510,4998876.0,5841606.0,0.0
1577523576563,5110141.0,5858348.0,0.0
1577523576609,5202171.0,5896125.0,0.0
1577523576659,5266019.0,5911148.0,0.0
1577523576703,5326936.0,5921204.0,0.0
1577523576760,5381373.0,5945167.0,0.0
1577523576806,5405260.0,5953827.0,0.0
1577523576856,5421332.0,5958543.0,0.0
1577523576908,5407029.0,5973353.0,0.0
1577523576953,5387026.0,5978242.0,0.0
1577523577004,5359508.0,5998188.0,0.0
1577523577046,5313424.0,6009229.0,0.0
1577523577102,5262825.0,5966611.0,0.0
1577523577146,5205733.0,5881584.0,0.0
1577523577199,5193577.0,5897379.0,0.0
1577523577244,5106107.0,5812758.0,0.0
1577523577310,5060494.0,5801875.0,0.0
1577523577349,5065366.0,5861208.0,0.0
1577523577396,5017926.0,5892528.0,0.0
1577523577450,4933260.0,5856640.0,0.0
1577523577494,4862565.0,5819511.0,0.0
1577523577543,4812034.0,5794138.0,0.0
1577523577592,4774028.0,5781623.0,0.0
1577523577643,4771247.0,5757292.0,0.0
1577523577689,4728128.0,5676563.0,0.0
1577523577753,4735514.0,5700660.0,0.0
1577523577784,4732814.0,5705229.0,0.0
1577523577834,4662373.0,5633736.0,0.0
1577523577907,4607545.0,5607624.0,0.0
1577523577990,4477460.0,5502764.0,0.0
1577523578037,4453345.0,5486539.0,0.0
1577523578083,4421243.0,5467378.0,0.0
1577523578127,4400309.0,5463633.0,0.0
1577523578186,4407995.0,5477031.0,0.0
1577523578230,4410029.0,5492274.0,0.0
1577523578283,4392175.0,5479304.0,0.0
1577523578328,4336072.0,5434893.0,0.0
1577523578381,4247085.0,5365709.0,0.0
1577523578429,4188742.0,5318744.0,0.0
1577523578478,4141968.0,5270415.0,0.0
1577523578525,4090025.0,5215479.0,0.0
1577523578570,4061772.0,5191675.0,0.0
1577523578619,4045743.0,5179246.0,0.0
1577523578665,4076075.0,5205259.0,0.0
1577523578716,4113750.0,5245850.0,0.0
1577523578766,4120840.0,5237400.0,0.0
1577523578814,4078030.0,5202251.0,0.0
1577523578863,3993719.0,5111364.0,0.0
1577523578920,3914004.0,5031373.0,0.0
1577523578970,3863372.0,4990916.0,0.0
1577523579018,3819206.0,4961035.0,0.0
1577523579065,3782658.0,4927971.0,0.0
1577523579117,3746109.0,4896948.0,0.0
1577523579161,3718478.0,4872765.0,0.0
1577523579212,3693039.0,4855582.0,0.0
1577523579261,3674025.0,4838978.0,0.0
1577523579309,3543243.0,4791704.0,0.0
1577523579363,3485689.0,4724265.0,0.0
1577523579406,3444098.0,4673774.0,0.0
1577523579454,3417961.0,4640957.0,0.0
1577523579506,3395006.0,4617019.0,0.0
1577523579553,3369226.0,4590503.0,0.0
1577523579603,3348195.0,4563102.0,0.0
1577523579651,3331636.0,4549506.0,0.0
1577523579710,3316224.0,4532164.0,0.0
1577523579755,3295654.0,4507515.0,0.0
1577523579801,3250592.0,4456889.0,0.0
1577523579853,3212363.0,4404740.0,0.0
1577523579903,3189737.0,4374108.0,0.0
1577523579950,3178825.0,4356866.0,0.0
1577523580002,3155366.0,4339793.0,0.0
1577523580054,3123386.0,4322059.0,0.0
1577523580092,3109569.0,4309384.0,0.0
1577523580147,3105495.0,4305686.0,0.0
1577523580198,3097329.0,4296070.0,0.0
