time,value,value2,value3
1578128943130,7030638.0,6826230.0,0.0
1578128943180,6994515.0,6788845.0,0.0
1578128943228,6956499.0,6728637.0,0.0
1578128943278,6865676.0,6618740.0,0.0
1578128943331,6851414.0,6587645.0,0.0
1578128943375,6856332.0,6580721.0,0.0
1578128943432,6833454.0,6569045.0,0.0
1578128943474,6829565.0,6553796.0,0.0
1578128943529,6802577.0,6509987.0,0.0
1578128943574,6792317.0,6472628.0,0.0
1578128943623,6789934.0,6453805.0,0.0
1578128943673,6827209.0,6485925.0,0.0
1578128943722,6819510.0,6477231.0,0.0
1578128943772,6815236.0,6461745.0,0.0
1578128943829,6785181.0,6428752.0,0.0
1578128943872,6747672.0,6389243.0,0.0
1578128943924,6735438.0,6385749.0,0.0
1578128943970,6739015.0,6391710.0,0.0
1578128944017,6740233.0,6398755.0,0.0
1578128944068,6718631.0,6354498.0,0.0
1578128944118,6687219.0,6324354.0,0.0
1578128944169,6669122.0,6323325.0,0.0
1578128944218,6649053.0,6320687.0,0.0
1578128944268,6629572.0,6300769.0,0.0
1578128944321,6639271.0,6301757.0,0.0
1578128944369,6652177.0,6308961.0,0.0
1578128944415,6654806.0,6316809.0,0.0
1578128944465,6673491.0,6327322.0,0.0
1578128944518,6643424.0,6306322.0,0.0
1578128944569,6622025.0,6276126.0,0.0
1578128944617,6586668.0,6250481.0,0.0
1578128944670,6578584.0,6243607.0,0.0
1578128944716,6602530.0,6253845.0,0.0
1578128944769,6612792.0,6259873.0,0.0
1578128944815,6583310.0,6250863.0,0.0
1578128944871,6560051.0,6248410.0,0.0
1578128944914,6550146.0,6250085.0,0.0
1578128944964,6559859.0,6264663.0,0.0
1578128945013,6574038.0,6278724.0,0.0
1578128945062,6618284.0,6317309.0,0.0
1578128945111,6633902.0,6340764.0,0.0
1578128945162,6626902.0,6340487.0,0.0
1578128945212,6582161.0,6305438.0,0.0
1578128945260,6573654.0,6291363.0,0.0
1578128945307,6573408.0,6284555.0,0.0
1578128945361,6589777.0,6287312.0,0.0
1578128945408,6594518.0,6294461.0,0.0
1578128945452,6578614.0,6310978.0,0.0
1578128945506,6551968.0,6316783.0,0.0
1578128945550,6518830.0,6221579.0,0.0
1578128945605,6491473.0,6220126.0,0.0
1578128945652,6457117.0,6213373.0,0.0
1578128945705,6531790.0,6296888.0,0.0
1578128945754,6581201.0,6353837.0,0.0
1578128945809,6625656.0,6392779.0,0.0
1578128945850,6610313.0,6368151.0,0.0
1578128945903,6586188.0,6345078.0,0.0
1578128945953,6574461.0,6308077.0,0.0
1578128946002,6558296.0,6284567.0,0.0
1578128946052,6543310.0,6265955.0,0.0
1578128946102,6524802.0,6255506.0,0.0
1578128946150,6526653.0,6303182.0,0.0
1578128946200,6534092.0,6288632.0,0.0
1578128946251,6528268.0,6274728.0,0.0
1578128946305,6559364.0,6308114.0,0.0
1578128946352,6549188.0,6292259.0,0.0
1578128946397,6574380.0,6314763.0,0.0
1578128946452,6580627.0,6323946.0,0.0
1578128946496,6537639.0,6257142.0,0.0
1578128946541,6492049.0,6219915.0,0.0
1578128946588,6466596.0,6198625.0,0.0
1578128946641,6483377.0,6235074.0,0.0
1578128946689,6501624.0,6229835.0,0.0
1578128946740,6479335.0,6214812.0,0.0
1578128946791,6482624.0,6228306.0,0.0
1578128946844,6483542.0,6223796.0,0.0
1578128946889,6498185.0,6243991.0,0.0
1578128946941,6501639.0,6245693.0,0.0
1578128946989,6446978.0,6188508.0,0.0
1578128947033,6416827.0,6182070.0,0.0
1578128947090,6430144.0,6193071.0,0.0
1578128947138,6425964.0,6197833.0,0.0
1578128947192,6400910.0,6174471.0,0.0
1578128947237,6415992.0,6192490.0,0.0
1578128947284,6462665.0,6233808.0,0.0
1578128947339,6467542.0,6240218.0,0.0
1578128947388,6456403.0,6238833.0,0.0
1578128947429,6449609.0,6221143.0,0.0
1578128947485,6428514.0,6189944.0,0.0
1578128947533,6433732.0,6193545.0,0.0
1578128947584,6438828.0,6203520.0,0.0
1578128947629,6443692.0,6218742.0,0.0
1578128947683,6455335.0,6235984.0,0.0
1578128947730,6456487.0,6237975.0,0.0
1578128947787,6468049.0,6241550.0,0.0
1578128947833,6468445.0,6248978.0,0.0
1578128947874,6462020.0,6250349.0,0.0
1578128947930,6454747.0,6251629.0,0.0
1578128947979,6468499.0,6259517.0,0.0
1578128948034,6427554.0,6188982.0,0.0
1578128948073,6492625.0,6283301.0,0.0
1578128948129,6462131.0,6243688.0,0.0
1578128948172,6511502.0,6328298.0,0.0
1578128948227,6517240.0,6333245.0,0.0
1578128948271,6561078.0,6373916.0,0.0
1578128948327,6549489.0,6335132.0,0.0
1578128948370,6539133.0,6319514.0,0.0
1578128948424,6520844.0,6292814.0,0.0
1578128948472,6516913.0,6293565.0,0.0
1578128948516,6527433.0,6310781.0,0.0
1578128948578,6526542.0,6306268.0,0.0
1578128948623,6488583.0,6283749.0,0.0
1578128948676,6486747.0,6327943.0,0.0
1578128948720,6493132.0,6309539.0,0.0
1578128948775,6518185.0,6331029.0,0.0
1578128948823,6554983.0,6364311.0,0.0
1578128948877,6572283.0,6366727.0,0.0
1578128948919,6591148.0,6384613.0,0.0
1578128948969,6590914.0,6398122.0,0.0
1578128949013,6586833.0,6392846.0,0.0
1578128949068,6572024.0,6383902.0,0.0
1578128949117,6506953.0,6343179.0,0.0
1578128949162,6512460.0,6349681.0,0.0
1578128949209,6573927.0,6397079.0,0.0
1578128949259,6589804.0,6437380.0,0.0
1578128949314,6596996.0,6452247.0,0.0
1578128949359,6604339.0,6472431.0,0.0
1578128949408,6629326.0,6517705.0,0.0
1578128949458,6644642.0,6545353.0,0.0
1578128949509,6691000.0,6593199.0,0.0
1578128949562,6694739.0,6590364.0,0.0
1578128949614,6686313.0,6557240.0,0.0
1578128949661,6693767.0,6542848.0,0.0
1578128949715,6706670.0,6551409.0,0.0
1578128949760,6729536.0,6567594.0,0.0
1578128949812,6757851.0,6590786.0,0.0
1578128949864,6782331.0,6629741.0,0.0
1578128949910,6805796.0,6680225.0,0.0
1578128949958,6813469.0,6712993.0,0.0
1578128950007,6817646.0,6742952.0,0.0
1578128950055,6828470.0,6772619.0,0.0
1578128950106,6844920.0,6805307.0,0.0
1578128950152,6849265.0,6801813.0,0.0
1578128950205,6856416.0,6809187.0,0.0
1578128950249,6855771.0,6809543.0,0.0
1578128950308,6865799.0,6822352.0,0.0
1578128950353,6885691.0,6821387.0,0.0
1578128950403,6887896.0,6830371.0,0.0
1578128950455,6887113.0,6824410.0,0.0
1578128950502,6877292.0,6823815.0,0.0
1578128950556,6872935.0,6812432.0,0.0
1578128950600,6891017.0,6826256.0,0.0
1578128950651,6888100.0,6823037.0,0.0
1578128950699,6932472.0,6838881.0,0.0
1578128950750,6974048.0,6866095.0,0.0
1578128950808,7037393.0,6903018.0,0.0
1578128950850,7060667.0,6918030.0,0.0
1578128950893,7025213.0,6878942.0,0.0
1578128950947,7036187.0,6907358.0,0.0
1578128950995,7043707.0,6907188.0,0.0
1578128951046,7020898.0,6888651.0,0.0
1578128951096,6990705.0,6861373.0,0.0
1578128951145,6995884.0,6873865.0,0.0
1578128951190,7003623.0,6883060.0,0.0
1578128951243,6988871.0,6886001.0,0.0
1578128951296,6987911.0,6892240.0,0.0
1578128951341,6997228.0,6894748.0,0.0
1578128951396,6995158.0,6889009.0,0.0
1578128951435,6990926.0,6868112.0,0.0
1578128951492,6992610.0,6879523.0,0.0
1578128951535,7019844.0,6910445.0,0.0
1578128951591,7020214.0,6914970.0,0.0
1578128951632,7011281.0,6919850.0,0.0
1578128951685,7008433.0,6912530.0,0.0
1578128951732,7014269.0,6914244.0,0.0
1578128951789,7030749.0,6920960.0,0.0
1578128951832,7024844.0,6911620.0,0.0
1578128951888,7069092.0,6934440.0,0.0
1578128951932,7083613.0,6961194.0,0.0
1578128951985,7075202.0,6992035.0,0.0
1578128952032,7093366.0,7020847.0,0.0
1578128952079,7125312.0,7030660.0,0.0
1578128952135,7151847.0,7029129.0,0.0
1578128952183,7131736.0,7024948.0,0.0
1578128952235,7143451.0,7023023.0,0.0
1578128952283,7138545.0,7017692.0,0.0
1578128952333,7135697.0,7014658.0,0.0
1578128952382,7097927.0,7002576.0,0.0
1578128952431,7087502.0,7000201.0,0.0
1578128952479,7086518.0,7006850.0,0.0
1578128952529,7067241.0,6975969.0,0.0
1578128952578,7057024.0,6946576.0,0.0
1578128952628,7046872.0,6920298.0,0.0
1578128952675,7044145.0,6921988.0,0.0
1578128952726,7047694.0,6923294.0,0.0
1578128952773,7048420.0,6903559.0,0.0
1578128952825,7059502.0,6891963.0,0.0
1578128952878,7060256.0,6891396.0,0.0
1578128952923,7059022.0,6883256.0,0.0
1578128952976,7023913.0,6848538.0,0.0
1578128953022,6958473.0,6812984.0,0.0
1578128953073,6939884.0,6800955.0,0.0
1578128953122,6949060.0,6813091.0,0.0
1578128953172,6967104.0,6831836.0,0.0
1578128953220,6970294.0,6832879.0,0.0
1578128953270,6994240.0,6832154.0,0.0
1578128953319,6996103.0,6824699.0,0.0
1578128953374,6986720.0,6821349.0,0.0
1578128953419,6971116.0,6810282.0,0.0
1578128953469,6982062.0,6823104.0,0.0
1578128953516,6986774.0,6833313.0,0.0
1578128953567,7018269.0,6868297.0,0.0
1578128953611,7032406.0,6883930.0,0.0
1578128953665,7037309.0,6890408.0,0.0
1578128953713,7022281.0,6876333.0,0.0
1578128953765,7008967.0,6867427.0,0.0
1578128953812,6996787.0,6860608.0,0.0
1578128953857,6985033.0,6825901.0,0.0
1578128953911,7015200.0,6827548.0,0.0
1578128953956,7016625.0,6827640.0,0.0
1578128954012,7059817.0,6856253.0,0.0
1578128954061,7122436.0,6882730.0,0.0
1578128954112,7106464.0,6880130.0,0.0
1578128954161,7074626.0,6868655.0,0.0
1578128954209,7089612.0,6880737.0,0.0
1578128954258,7112873.0,6900880.0,0.0
1578128954309,7131559.0,6906462.0,0.0
1578128954356,7137216.0,6911684.0,0.0
1578128954409,7111601.0,6881080.0,0.0
1578128954452,7110818.0,6879800.0,0.0
1578128954502,7105326.0,6871279.0,0.0
1578128954555,7098683.0,6867323.0,0.0
1578128954606,7104681.0,6869869.0,0.0
1578128954659,7104105.0,6883548.0,0.0
1578128954705,7127010.0,6895419.0,0.0
1578128954758,7148846.0,6908890.0,0.0
1578128954805,7156657.0,6905393.0,0.0
1578128954853,7140819.0,6901435.0,0.0
1578128954903,7146532.0,6907991.0,0.0
1578128954952,7167273.0,6926459.0,0.0
1578128955001,7159766.0,6917449.0,0.0
1578128955044,7167532.0,6925537.0,0.0
1578128955096,7166560.0,6924112.0,0.0
1578128955146,7168396.0,6922595.0,0.0
1578128955192,7165764.0,6920960.0,0.0
1578128955245,7151901.0,6915339.0,0.0
1578128955302,7186286.0,6967248.0,0.0
1578128955348,7212123.0,7028747.0,0.0
1578128955398,7219547.0,7065460.0,0.0
1578128955447,7204699.0,7085499.0,0.0
1578128955499,7196561.0,7120547.0,0.0
1578128955545,7196834.0,7140546.0,0.0
1578128955598,7199670.0,7176718.0,0.0
1578128955644,7221905.0,7229181.0,0.0
1578128955693,7246508.0,7265339.0,0.0
1578128955743,7254151.0,7262570.0,0.0
1578128955800,7272768.0,7314557.0,0.0
1578128955838,7246385.0,7297592.0,0.0
1578128955892,7250124.0,7326087.0,0.0
1578128955941,7250001.0,7340453.0,0.0
1578128955991,7282057.0,7393917.0,0.0
1578128956034,7293193.0,7403522.0,0.0
1578128956085,7308194.0,7415973.0,0.0
1578128956139,7315372.0,7418560.0,0.0
1578128956192,7330072.0,7421409.0,0.0
1578128956237,7333043.0,7419681.0,0.0
1578128956290,7340947.0,7420842.0,0.0
1578128956341,7355852.0,7424986.0,0.0
1578128956387,7358907.0,7409668.0,0.0
1578128956435,7354084.0,7388337.0,0.0
1578128956485,7350592.0,7372759.0,0.0
1578128956535,7357388.0,7397347.0,0.0
1578128956576,7369304.0,7398153.0,0.0
1578128956633,7368854.0,7397124.0,0.0
1578128956683,7375278.0,7391860.0,0.0
1578128956732,7391320.0,7405143.0,0.0
1578128956784,7410429.0,7412295.0,0.0
1578128956835,7408649.0,7426685.0,0.0
1578128956876,7423059.0,7440431.0,0.0
1578128956930,7414294.0,7456116.0,0.0
1578128956976,7432142.0,7450154.0,0.0
1578128957029,7419155.0,7443742.0,0.0
1578128957079,7442978.0,7444389.0,0.0
1578128957129,7411401.0,7409775.0,0.0
1578128957180,7387443.0,7388259.0,0.0
1578128957227,7338360.0,7341442.0,0.0
1578128957280,7311894.0,7314306.0,0.0
1578128957328,7293988.0,7268162.0,0.0
1578128957377,7268344.0,7178960.0,0.0
1578128957424,7244753.0,7128990.0,0.0
1578128957474,7240275.0,7102331.0,0.0
1578128957523,7228260.0,7070392.0,0.0
1578128957573,7179766.0,6991758.0,0.0
1578128957622,7126080.0,6922991.0,0.0
1578128957672,7081092.0,6886741.0,0.0
1578128957722,7031694.0,6837034.0,0.0
1578128957772,6976952.0,6776128.0,0.0
1578128957819,6922690.0,6714062.0,0.0
1578128957871,6867017.0,6660544.0,0.0
1578128957917,6822345.0,6626536.0,0.0
1578128957969,6784728.0,6576696.0,0.0
1578128958015,6673053.0,6437762.0,0.0
1578128958068,6576270.0,6328746.0,0.0
1578128958121,6507680.0,6262762.0,0.0
1578128958161,6457171.0,6216459.0,0.0
1578128958215,6403116.0,6168746.0,0.0
1578128958262,6339881.0,6106074.0,0.0
1578128958317,6284989.0,6054373.0,0.0
1578128958360,6231453.0,6011015.0,0.0
1578128958409,6195795.0,5978733.0,0.0
1578128958458,6100669.0,5863966.0,0.0
1578128958513,5985639.0,5734226.0,0.0
1578128958556,5902306.0,5655329.0,0.0
1578128958612,5848320.0,5608789.0,0.0
1578128958655,5811017.0,5572973.0,0.0
1578128958710,5763987.0,5532764.0,0.0
1578128958756,5715192.0,5495525.0,0.0
1578128958809,5674466.0,5455080.0,0.0
1578128958865,5630820.0,5425609.0,0.0
1578128958909,5573408.0,5355048.0,0.0
1578128958960,5461801.0,5226944.0,0.0
1578128959006,5392635.0,5158821.0,0.0
1578128959055,5344854.0,5118336.0,0.0
1578128959106,5303249.0,5080410.0,0.0
1578128959155,5253947.0,5040914.0,0.0
1578128959205,5214754.0,5008213.0,0.0
1578128959247,5168521.0,4971975.0,0.0
1578128959303,5132219.0,4946754.0,0.0
1578128959351,5108504.0,4934708.0,0.0
1578128959397,5054668.0,4873922.0,0.0
1578128959449,4953282.0,4754247.0,0.0
1578128959499,4882144.0,4689528.0,0.0
1578128959548,4829211.0,4641050.0,0.0
1578128959599,4796167.0,4615182.0,0.0
1578128959651,4759825.0,4571439.0,0.0
1578128959702,4732290.0,4543497.0,0.0
1578128959751,4709425.0,4530624.0,0.0
1578128959803,4703945.0,4527364.0,0.0
1578128959848,4706124.0,4535874.0,0.0
1578128959898,4690604.0,4520611.0,0.0
1578128959948,4618793.0,4430300.0,0.0
1578128959996,4569654.0,4376308.0,0.0
1578128960046,4543409.0,4354870.0,0.0
1578128960090,4531778.0,4349278.0,0.0
1578128960140,4519997.0,4332288.0,0.0
1578128960190,4507241.0,4315574.0,0.0
1578128960239,4483049.0,4288478.0,0.0
1578128960294,4471310.0,4282066.0,0.0
1578128960338,4468460.0,4285496.0,0.0
1578128960392,4469831.0,4293278.0,0.0
1578128960439,4441336.0,4250616.0,0.0
1578128960491,4366102.0,4159886.0,0.0
1578128960540,4334033.0,4130706.0,0.0
1578128960591,4107705.0,3920739.0,0.0
1578128960642,4043841.0,3901356.0,0.0
1578128960688,4031156.0,3884537.0,0.0
1578128960732,4018866.0,3871766.0,0.0
1578128960793,4013954.0,3859774.0,0.0
1578128960838,4017700.0,3861556.0,0.0
1578128960880,4033353.0,3872883.0,0.0
1578128960935,4045836.0,3891907.0,0.0
1578128960984,4023836.0,3850461.0,0.0
1578128961034,3973672.0,3794661.0,0.0
1578128961078,3960592.0,3780994.0,0.0
1578128961134,3951106.0,3771392.0,0.0
1578128961179,3955275.0,3773114.0,0.0
1578128961232,3959734.0,3770977.0,0.0
1578128961284,3971352.0,3774744.0,0.0
1578128961337,3985645.0,3782381.0,0.0
1578128961384,4009648.0,3804160.0,0.0
1578128961430,4028025.0,3829607.0,0.0
1578128961478,4055543.0,3857212.0,0.0
1578128961529,4037465.0,3822835.0,0.0
1578128961577,4005794.0,3783836.0,0.0
1578128961622,3995507.0,3783074.0,0.0
1578128961676,4003281.0,3784809.0,0.0
1578128961722,4011314.0,3798631.0,0.0
1578128961776,4016381.0,3797936.0,0.0
1578128961830,4021081.0,3796126.0,0.0
1578128961877,4024500.0,3798456.0,0.0
1578128961918,4037109.0,3801067.0,0.0
1578128961969,4054369.0,3815582.0,0.0
1578128962017,4073238.0,3837303.0,0.0
1578128962069,4064213.0,3813300.0,0.0
1578128962116,4045921.0,3780571.0,0.0
1578128962172,4042473.0,3780870.0,0.0
1578128962222,4053357.0,3791272.0,0.0
1578128962271,4065562.0,3796685.0,0.0
1578128962322,4070146.0,3800055.0,0.0
1578128962372,4084209.0,3798765.0,0.0
1578128962419,4102365.0,3811634.0,0.0
1578128962470,4120242.0,3825755.0,0.0
1578128962517,4142482.0,3847860.0,0.0
1578128962568,4164819.0,3861613.0,0.0
1578128962616,4136299.0,3816941.0,0.0
1578128962666,4119318.0,3794499.0,0.0
1578128962716,4115976.0,3801876.0,0.0
1578128962763,4123257.0,3808918.0,0.0
1578128962816,4128670.0,3822797.0,0.0
1578128962866,4134546.0,3819310.0,0.0
1578128962913,4130529.0,3807762.0,0.0
1578128962962,4136683.0,3811537.0,0.0
1578128963013,4141511.0,3813627.0,0.0
1578128963063,4164579.0,3832890.0,0.0
1578128963112,4163750.0,3825446.0,0.0
1578128963159,4134286.0,3780589.0,0.0
1578128963209,4135344.0,3783344.0,0.0
1578128963258,4136423.0,3788787.0,0.0
1578128963309,4147173.0,3804044.0,0.0
1578128963360,4157643.0,3815688.0,0.0
1578128963408,4164935.0,3815525.0,0.0
1578128963450,4170898.0,3828008.0,0.0
1578128963499,4191106.0,3838728.0,0.0
1578128963550,4209202.0,3855248.0,0.0
1578128963603,4226984.0,3876620.0,0.0
1578128963651,4233648.0,3866989.0,0.0
1578128963701,4214434.0,3841954.0,0.0
1578128963746,4213028.0,3846674.0,0.0
1578128963810,4223305.0,3858840.0,0.0
1578128963857,4237714.0,3882302.0,0.0
1578128963902,4245382.0,3894093.0,0.0
1578128963951,4251054.0,3899371.0,0.0
1578128964000,4257720.0,3912606.0,0.0
1578128964050,4267948.0,3921428.0,0.0
1578128964093,4282483.0,3934297.0,0.0
1578128964149,4294119.0,3944882.0,0.0
1578128964197,4270250.0,3910150.0,0.0
1578128964248,4270145.0,3915014.0,0.0
1578128964301,4311600.0,3971370.0,0.0
1578128964340,4353316.0,4051923.0,0.0
1578128964396,4413893.0,4167314.0,0.0
1578128964443,4504261.0,4266936.0,0.0
1578128964488,4618042.0,4407314.0,0.0
1578128964543,4768637.0,4544782.0,0.0
1578128964589,4927652.0,4693191.0,0.0
1578128964642,5070012.0,4805057.0,0.0
1578128964688,5150923.0,4860074.0,0.0
1578128964737,5233546.0,4937776.0,0.0
1578128964791,5283043.0,4992784.0,0.0
1578128964836,5315340.0,5018270.0,0.0
1578128964885,5358222.0,5067741.0,0.0
1578128964934,5394322.0,5110603.0,0.0
1578128964983,5425231.0,5168924.0,0.0
1578128965033,5456593.0,5221438.0,0.0
1578128965083,5487589.0,5273258.0,0.0
1578128965131,5515715.0,5315754.0,0.0
1578128965185,5537202.0,5338995.0,0.0
1578128965231,5553326.0,5337754.0,0.0
1578128965284,5568276.0,5334682.0,0.0
1578128965330,5587732.0,5343928.0,0.0
1578128965383,5589514.0,5344284.0,0.0
1578128965429,5585247.0,5326677.0,0.0
1578128965478,5589794.0,5317420.0,0.0
1578128965532,5591460.0,5308606.0,0.0
1578128965582,5576616.0,5304023.0,0.0
1578128965631,5561553.0,5302462.0,0.0
1578128965679,5562150.0,5306709.0,0.0
1578128965726,5571945.0,5317150.0,0.0
1578128965779,5570029.0,5326175.0,0.0
1578128965833,5578323.0,5342453.0,0.0
1578128965878,5591517.0,5369250.0,0.0
1578128965922,5632386.0,5417593.0,0.0
1578128965976,5673226.0,5468316.0,0.0
1578128966025,5700782.0,5521436.0,0.0
1578128966075,5696245.0,5586499.0,0.0
1578128966126,5760768.0,5638426.0,0.0
1578128966174,5743128.0,5679006.0,0.0
1578128966224,5743886.0,5709923.0,0.0
1578128966273,5749290.0,5728581.0,0.0
1578128966323,5765290.0,5824188.0,0.0
1578128966371,5778824.0,5860540.0,0.0
1578128966421,5797130.0,5900003.0,0.0
1578128966471,5814239.0,5940142.0,0.0
1578128966519,5841375.0,5976269.0,0.0
1578128966570,5865415.0,5990312.0,0.0
1578128966618,5884716.0,6010315.0,0.0
1578128966669,5900533.0,6028462.0,0.0
1578128966717,5911795.0,6044032.0,0.0
1578128966765,5908177.0,6053497.0,0.0
1578128966812,5915290.0,6065810.0,0.0
1578128966862,5920786.0,6076993.0,0.0
1578128966910,5929977.0,6080938.0,0.0
1578128966964,5937034.0,6087474.0,0.0
1578128967010,5942121.0,6086446.0,0.0
1578128967064,5942505.0,6079888.0,0.0
1578128967113,5936355.0,6077525.0,0.0
1578128967162,5935530.0,6071938.0,0.0
1578128967212,5939384.0,6066657.0,0.0
1578128967261,5936286.0,6055972.0,0.0
1578128967313,5930329.0,6043863.0,0.0
1578128967360,5923476.0,6033314.0,0.0
1578128967406,5925908.0,6025624.0,0.0
1578128967458,5931582.0,6019959.0,0.0
1578128967511,5940764.0,6020965.0,0.0
1578128967557,5947278.0,6023102.0,0.0
1578128967604,5954050.0,6025772.0,0.0
1578128967656,5962780.0,6025488.0,0.0
1578128967706,5972278.0,6033359.0,0.0
1578128967755,5993455.0,6046667.0,0.0
1578128967809,6015719.0,6060383.0,0.0
1578128967856,6039600.0,6077332.0,0.0
1578128967904,6054763.0,6085280.0,0.0
1578128967953,6042246.0,6075048.0,0.0
1578128968002,6024504.0,6058516.0,0.0
1578128968047,6012531.0,6045513.0,0.0
1578128968097,6008641.0,6043298.0,0.0
1578128968149,6011704.0,6041862.0,0.0
1578128968197,6005497.0,6037881.0,0.0
1578128968246,6001247.0,6028633.0,0.0
1578128968304,5995345.0,6030612.0,0.0
1578128968349,5993411.0,6029379.0,0.0
1578128968392,5987214.0,6020356.0,0.0
1578128968446,5984331.0,6016410.0,0.0
1578128968493,5988187.0,6015754.0,0.0
1578128968546,5990528.0,6021203.0,0.0
1578128968592,5985926.0,6019531.0,0.0
1578128968644,5990505.0,6020209.0,0.0
1578128968695,5990109.0,6014939.0,0.0
1578128968745,5997661.0,6019011.0,0.0
1578128968795,6009839.0,6025918.0,0.0
1578128968837,6044292.0,6059930.0,0.0
1578128968887,6058471.0,6066013.0,0.0
1578128968936,6064656.0,6066127.0,0.0
1578128968986,6073805.0,6072289.0,0.0
1578128969034,6082793.0,6074877.0,0.0
1578128969088,6084138.0,6084601.0,0.0
1578128969140,6087801.0,6085191.0,0.0
1578128969191,6114803.0,6101575.0,0.0
1578128969238,6164215.0,6130238.0,0.0
1578128969291,6201699.0,6158313.0,0.0
1578128969340,6223735.0,6176235.0,0.0
1578128969393,6225863.0,6194960.0,0.0
1578128969436,6218038.0,6210598.0,0.0
1578128969480,6205407.0,6218660.0,0.0
1578128969530,6197130.0,6228305.0,0.0
1578128969586,6194259.0,6236050.0,0.0
1578128969634,6195774.0,6235111.0,0.0
1578128969683,6188458.0,6222787.0,0.0
1578128969729,6191307.0,6220706.0,0.0
1578128969785,6190504.0,6217642.0,0.0
1578128969831,6189622.0,6206130.0,0.0
1578128969881,6185541.0,6194994.0,0.0
1578128969926,6180431.0,6191861.0,0.0
1578128969980,6177830.0,6188312.0,0.0
1578128970029,6170717.0,6184003.0,0.0
1578128970079,6169858.0,6170422.0,0.0
1578128970126,6173850.0,6170808.0,0.0
1578128970171,6178588.0,6171633.0,0.0
1578128970227,6177468.0,6167856.0,0.0
1578128970273,6155883.0,6166702.0,0.0
1578128970324,6143366.0,6152998.0,0.0
1578128970372,6148238.0,6148691.0,0.0
1578128970425,6152557.0,6151393.0,0.0
1578128970475,6159737.0,6155452.0,0.0
1578128970524,6165109.0,6158799.0,0.0
1578128970568,6164805.0,6161241.0,0.0
1578128970623,6175229.0,6168490.0,0.0
1578128970671,6177129.0,6171068.0,0.0
1578128970721,6180431.0,6176688.0,0.0
1578128970766,6179525.0,6178383.0,0.0
1578128970823,6181075.0,6174041.0,0.0
1578128970875,6180238.0,6176800.0,0.0
1578128970944,6184443.0,6177184.0,0.0
1578128970994,6184614.0,6175760.0,0.0
1578128971017,6193174.0,6179458.0,0.0
1578128971069,6199267.0,6186660.0,0.0
1578128971119,6223748.0,6216206.0,0.0
1578128971170,6235767.0,6232307.0,0.0
1578128971213,6270185.0,6282601.0,0.0
1578128971269,6315154.0,6344531.0,0.0
1578128971315,6368682.0,6407680.0,0.0
1578128971368,6416239.0,6446340.0,0.0
1578128971409,6442213.0,6473025.0,0.0
1578128971457,6470615.0,6498409.0,0.0
1578128971509,6486186.0,6504842.0,0.0
1578128971559,6478984.0,6492777.0,0.0
1578128971608,6485632.0,6492247.0,0.0
1578128971665,6503484.0,6499640.0,0.0
1578128971709,6516861.0,6514125.0,0.0
1578128971762,6527061.0,6517632.0,0.0
1578128971816,6480453.0,6494305.0,0.0
1578128971859,6456358.0,6490437.0,0.0
1578128971908,6441161.0,6503383.0,0.0
1578128971957,6452616.0,6518355.0,0.0
1578128972010,6473894.0,6523613.0,0.0
1578128972052,6491648.0,6527514.0,0.0
1578128972100,6488527.0,6532941.0,0.0
1578128972153,6487385.0,6529379.0,0.0
1578128972208,6471509.0,6525116.0,0.0
1578128972254,6461186.0,6509218.0,0.0
1578128972307,6443003.0,6499313.0,0.0
1578128972352,6425081.0,6474302.0,0.0
1578128972407,6404571.0,6457748.0,0.0
1578128972452,6395434.0,6450862.0,0.0
1578128972504,6390188.0,6435677.0,0.0
1578128972553,6374391.0,6422922.0,0.0
1578128972601,6367845.0,6416727.0,0.0
1578128972653,6367166.0,6420390.0,0.0
1578128972699,6364363.0,6417292.0,0.0
1578128972749,6363776.0,6418535.0,0.0
1578128972800,6363119.0,6422922.0,0.0
1578128972852,6415030.0,6455318.0,0.0
1578128972892,6424291.0,6481854.0,0.0
1578128972950,6410699.0,6509206.0,0.0
1578128972991,6416702.0,6547673.0,0.0
1578128973048,6424856.0,6590403.0,0.0
1578128973091,6451496.0,6619700.0,0.0
1578128973148,6490741.0,6638549.0,0.0
1578128973193,6515110.0,6641682.0,0.0
1578128973247,6517892.0,6640572.0,0.0
1578128973292,6511038.0,6972173.0,0.0
1578128973345,6484037.0,6925391.0,0.0
1578128973393,6469032.0,6907945.0,0.0
1578128973443,6452616.0,6889382.0,0.0
1578128973493,6440675.0,6869438.0,0.0
1578128973541,6436378.0,6862084.0,0.0
1578128973586,6439080.0,6856829.0,0.0
1578128973631,6442268.0,6845326.0,0.0
1578128973686,6431754.0,6839250.0,0.0
1578128973732,6427400.0,6829316.0,0.0
1578128973784,6425161.0,6830567.0,0.0
1578128973833,6422865.0,6823996.0,0.0
1578128973888,6428101.0,6835272.0,0.0
1578128973931,6437406.0,6846265.0,0.0
1578128973987,6469111.0,6878589.0,0.0
1578128974028,6503576.0,6924234.0,0.0
1578128974085,6543863.0,6945485.0,0.0
1578128974131,6575987.0,6977485.0,0.0
1578128974184,6602863.0,6995308.0,0.0
1578128974233,6588854.0,6981718.0,0.0
1578128974283,6576156.0,6967996.0,0.0
1578128974331,6544123.0,6964166.0,0.0
1578128974380,6530464.0,6958898.0,0.0
1578128974427,6515675.0,6956652.0,0.0
1578128974478,6514667.0,6952795.0,0.0
1578128974531,6515606.0,6951114.0,0.0
1578128974576,6506731.0,6948414.0,0.0
1578128974630,6503147.0,6942311.0,0.0
1578128974673,6496973.0,6933979.0,0.0
1578128974728,6491908.0,6923858.0,0.0
1578128974769,6480091.0,6913347.0,0.0
1578128974829,6480396.0,6906493.0,0.0
1578128974869,6477954.0,6903805.0,0.0
1578128974925,6473862.0,6896036.0,0.0
1578128974976,6462904.0,6889034.0,0.0
1578128975024,6460846.0,6882972.0,0.0
1578128975073,6456504.0,6883376.0,0.0
1578128975123,6466285.0,6882487.0,0.0
1578128975170,6460789.0,6878268.0,0.0
1578128975213,6461242.0,6876304.0,0.0
1578128975266,6465515.0,6875621.0,0.0
1578128975313,6466885.0,6876116.0,0.0
1578128975366,6469644.0,6881185.0,0.0
1578128975412,6476609.0,6884277.0,0.0
1578128975463,6492336.0,6899047.0,0.0
1578128975512,6542100.0,6944154.0,0.0
1578128975568,6584738.0,6982675.0,0.0
1578128975609,6622358.0,7015549.0,0.0
1578128975667,6641546.0,7031235.0,0.0
1578128975714,6656369.0,7046436.0,0.0
1578128975765,6664748.0,7054473.0,0.0
1578128975818,7030949.0,7052766.0,0.0
1578128975855,7059748.0,7052000.0,0.0
1578128975906,7053339.0,7048909.0,0.0
1578128975954,7058065.0,7053746.0,0.0
1578128976005,7057789.0,7061595.0,0.0
1578128976055,7075052.0,7076098.0,0.0
1578128976104,7091310.0,7085345.0,0.0
1578128976155,7093420.0,7084391.0,0.0
1578128976206,7089969.0,7077175.0,0.0
1578128976254,7086653.0,7081032.0,0.0
1578128976310,7085572.0,7082645.0,0.0
1578128976352,7081243.0,7079890.0,0.0
1578128976408,7087517.0,7087053.0,0.0
1578128976452,7093831.0,7095588.0,0.0
1578128976506,7097312.0,7102309.0,0.0
1578128976556,7100859.0,7104405.0,0.0
1578128976606,7097257.0,7111622.0,0.0
1578128976653,7094176.0,7112993.0,0.0
1578128976703,7087844.0,7106233.0,0.0
1578128976751,7091655.0,7104538.0,0.0
1578128976803,7099655.0,7107482.0,0.0
1578128976844,7102518.0,7104673.0,0.0
1578128976893,7098530.0,7097819.0,0.0
1578128976943,7102242.0,7099606.0,0.0
1578128976991,7100942.0,7094834.0,0.0
1578128977046,7103394.0,7091878.0,0.0
1578128977094,7097764.0,7089808.0,0.0
1578128977145,7101422.0,7093062.0,0.0
1578128977193,7099955.0,7090103.0,0.0
1578128977248,7102779.0,7091610.0,0.0
1578128977292,7090284.0,7079928.0,0.0
1578128977346,7090023.0,7076946.0,0.0
1578128977399,7090941.0,7077926.0,0.0
1578128977445,7092846.0,7075091.0,0.0
1578128977493,7098476.0,7087388.0,0.0
1578128977545,7103736.0,7089876.0,0.0
1578128977593,7107751.0,7094216.0,0.0
1578128977643,7115832.0,7095817.0,0.0
1578128977689,7116765.0,7097793.0,0.0
1578128977740,7116723.0,7099674.0,0.0
1578128977791,7115586.0,7098370.0,0.0
1578128977833,7118491.0,7117024.0,0.0
1578128977892,7126656.0,7104417.0,0.0
1578128977933,7119367.0,7076033.0,0.0
1578128977991,7085750.0,7030656.0,0.0
1578128978039,6936814.0,6938360.0,0.0
1578128978088,6948253.0,6920928.0,0.0
1578128978137,6985102.0,6956828.0,0.0
1578128978187,6976937.0,6991545.0,0.0
1578128978237,6987596.0,6997525.0,0.0
1578128978285,6971746.0,6957821.0,0.0
1578128978333,6902141.0,6914704.0,0.0
1578128978385,6851428.0,6857044.0,0.0
1578128978432,6821949.0,6776926.0,0.0
1578128978483,6770946.0,6670128.0,0.0
1578128978530,6728206.0,6598141.0,0.0
1578128978580,6694013.0,6555843.0,0.0
1578128978628,6654518.0,6519339.0,0.0
1578128978678,6648039.0,6486141.0,0.0
1578128978727,6656492.0,6471126.0,0.0
1578128978774,6651463.0,6465147.0,0.0
1578128978835,6643300.0,6467782.0,0.0
1578128978872,6627079.0,6479246.0,0.0
1578128978919,6585585.0,6429932.0,0.0
1578128978973,6507364.0,6336156.0,0.0
1578128979020,6442308.0,6273108.0,0.0
1578128979071,6393334.0,6227195.0,0.0
1578128979119,6342840.0,6182895.0,0.0
1578128979175,6306606.0,6149214.0,0.0
1578128979222,6286427.0,6132238.0,0.0
1578128979276,6267234.0,6126620.0,0.0
1578128979323,6254877.0,6123447.0,0.0
1578128979372,6239330.0,6120571.0,0.0
1578128979420,6197164.0,6093744.0,0.0
1578128979468,6114148.0,6014835.0,0.0
1578128979513,6058284.0,5977160.0,0.0
1578128979571,6039310.0,5979957.0,0.0
1578128979617,6057051.0,6014338.0,0.0
1578128979670,6029378.0,6005199.0,0.0
1578128979716,5998446.0,5982995.0,0.0
1578128979768,5966678.0,5959595.0,0.0
1578128979818,5943761.0,5941772.0,0.0
1578128979865,5932445.0,5939016.0,0.0
1578128979918,5937006.0,5937485.0,0.0
1578128979963,5897609.0,5882983.0,0.0
1578128980013,5866840.0,5837903.0,0.0
1578128980063,5877348.0,5859878.0,0.0
1578128980107,5886486.0,5869744.0,0.0
1578128980164,5875209.0,5856707.0,0.0
1578128980214,5856908.0,5822502.0,0.0
1578128980254,5806084.0,5787771.0,0.0
1578128980307,5804908.0,5802515.0,0.0
1578128980355,5801811.0,5815310.0,0.0
1578128980406,5765988.0,5783752.0,0.0
1578128980454,5709947.0,5716617.0,0.0
1578128980510,5667574.0,5664132.0,0.0
1578128980557,5640738.0,5649697.0,0.0
1578128980608,5636381.0,5655059.0,0.0
1578128980658,5629518.0,5663043.0,0.0
1578128980707,5616876.0,5655624.0,0.0
1578128980756,5592423.0,5632854.0,0.0
1578128980802,5572696.0,5602601.0,0.0
1578128980857,5547559.0,5585651.0,0.0
1578128980897,5533612.0,5577252.0,0.0
1578128980956,5536310.0,5562587.0,0.0
1578128980996,5498941.0,5494822.0,0.0
1578128981055,5495296.0,5494457.0,0.0
1578128981097,5513435.0,5529001.0,0.0
1578128981148,5545132.0,5570680.0,0.0
1578128981200,5556654.0,5586956.0,0.0
1578128981252,5571133.0,5601835.0,0.0
1578128981299,5584900.0,5610962.0,0.0
1578128981349,5599355.0,5619241.0,0.0
1578128981398,5617779.0,5620530.0,0.0
1578128981442,5598244.0,5577884.0,0.0
1578128981498,5529585.0,5507320.0,0.0
1578128981545,5515598.0,5499901.0,0.0
1578128981597,5514200.0,5498314.0,0.0
1578128981639,5514131.0,5489391.0,0.0
1578128981695,5492160.0,5472780.0,0.0
1578128981745,5473954.0,5453640.0,0.0
1578128981795,5456145.0,5438169.0,0.0
1578128981846,5445006.0,5429634.0,0.0
1578128981893,5435926.0,5420024.0,0.0
1578128981940,5429499.0,5413332.0,0.0
1578128981991,5371416.0,5332634.0,0.0
1578128982039,5310963.0,5265982.0,0.0
1578128982090,5283456.0,5232811.0,0.0
1578128982136,5271783.0,5221641.0,0.0
1578128982189,5257358.0,5211172.0,0.0
1578128982239,5241619.0,5204277.0,0.0
1578128982287,5240809.0,5197113.0,0.0
1578128982338,5248617.0,5204238.0,0.0
1578128982383,5259495.0,5215029.0,0.0
1578128982436,5267549.0,5217301.0,0.0
1578128982477,5262688.0,5195206.0,0.0
1578128982532,5223069.0,5130017.0,0.0
1578128982577,5206712.0,5109117.0,0.0
1578128982634,5202643.0,5104253.0,0.0
1578128982676,5205794.0,5110006.0,0.0
1578128982726,5192494.0,5101780.0,0.0
1578128982780,5205467.0,5124400.0,0.0
1578128982832,5246345.0,5161631.0,0.0
1578128982879,5264359.0,5175622.0,0.0
1578128982930,5264701.0,5172033.0,0.0
1578128982980,5261673.0,5173081.0,0.0
1578128983027,5255084.0,5154816.0,0.0
1578128983078,5226904.0,5107171.0,0.0
1578128983127,5213617.0,5091835.0,0.0
1578128983177,5220728.0,5093890.0,0.0
1578128983219,5223975.0,5097829.0,0.0
1578128983276,5221878.0,5088514.0,0.0
1578128983318,5215795.0,5079602.0,0.0
1578128983375,5210082.0,5067761.0,0.0
1578128983420,5208755.0,5063757.0,0.0
1578128983474,5236302.0,5077023.0,0.0
1578128983520,5265454.0,5097264.0,0.0
1578128983570,5264851.0,5068582.0,0.0
1578128983620,5249001.0,5054577.0,0.0
1578128983672,5255879.0,5070893.0,0.0
1578128983720,5275906.0,5095853.0,0.0
1578128983771,5290510.0,5102640.0,0.0
1578128983819,5289004.0,5097641.0,0.0
1578128983867,5290961.0,5090410.0,0.0
1578128983918,5288659.0,5089697.0,0.0
1578128983962,5300224.0,5103258.0,0.0
1578128984018,5324416.0,5133485.0,0.0
1578128984061,5351512.0,5150570.0,0.0
1578128984110,5335785.0,5107412.0,0.0
1578128984157,5312866.0,5081216.0,0.0
1578128984215,5318345.0,5086860.0,0.0
1578128984257,5353430.0,5117278.0,0.0
1578128984315,5384568.0,5154265.0,0.0
1578128984359,5448049.0,5213833.0,0.0
1578128984406,5538107.0,5309328.0,0.0
1578128984458,5646163.0,5422860.0,0.0
1578128984504,5669575.0,5473639.0,0.0
1578128984555,5667561.0,5478544.0,0.0
1578128984605,5645326.0,5460332.0,0.0
1578128984654,5641272.0,5418520.0,0.0
1578128984702,5655766.0,5419474.0,0.0
1578128984759,5685878.0,5444124.0,0.0
1578128984801,5741769.0,5474970.0,0.0
1578128984859,5754973.0,5483853.0,0.0
1578128984899,5751057.0,5470748.0,0.0
1578128984956,5734589.0,5450723.0,0.0
1578128985001,5696275.0,5411530.0,0.0
1578128985056,5677398.0,5384327.0,0.0
1578128985101,5663849.0,5367392.0,0.0
1578128985156,5706397.0,5423036.0,0.0
1578128985205,5758249.0,5485628.0,0.0
1578128985252,5760263.0,5493020.0,0.0
1578128985301,5789481.0,5526540.0,0.0
1578128985352,5824977.0,5546768.0,0.0
1578128985400,5837811.0,5548476.0,0.0
1578128985448,5826360.0,5522965.0,0.0
1578128985493,5817895.0,5506031.0,0.0
1578128985543,5806756.0,5492926.0,0.0
1578128985592,5799771.0,5489417.0,0.0
1578128985641,5803606.0,5494081.0,0.0
1578128985691,5799963.0,5491192.0,0.0
1578128985741,5781934.0,5450737.0,0.0
1578128985790,5756920.0,5413491.0,0.0
1578128985840,5738619.0,5396127.0,0.0
1578128985888,5739618.0,5399515.0,0.0
1578128985941,5762688.0,5420104.0,0.0
1578128985988,5795552.0,5437000.0,0.0
1578128986036,5814729.0,5443639.0,0.0
1578128986087,5817619.0,5472859.0,0.0
1578128986135,5815879.0,5517212.0,0.0
1578128986185,5815879.0,5543907.0,0.0
1578128986234,5824236.0,5550249.0,0.0
1578128986284,5819771.0,5531877.0,0.0
1578128986333,5831825.0,5530116.0,0.0
1578128986383,5844017.0,5535707.0,0.0
1578128986433,5861250.0,5533664.0,0.0
1578128986481,5866183.0,5528583.0,0.0
1578128986529,5862087.0,5522697.0,0.0
1578128986581,5883593.0,5535828.0,0.0
1578128986627,5895212.0,5546742.0,0.0
1578128986680,5901169.0,5548246.0,0.0
1578128986728,5902498.0,5549833.0,0.0
1578128986780,5899881.0,5535492.0,0.0
1578128986826,5892211.0,5515075.0,0.0
1578128986875,5887224.0,5512670.0,0.0
1578128986925,5888307.0,5513679.0,0.0
1578128986974,5899320.0,5523557.0,0.0
1578128987026,5908704.0,5527911.0,0.0
1578128987074,5905238.0,5530425.0,0.0
1578128987124,5911170.0,5532333.0,0.0
1578128987173,5913582.0,5534645.0,0.0
1578128987223,5907746.0,5533155.0,0.0
1578128987272,5898348.0,5518113.0,0.0
1578128987322,5880224.0,5491030.0,0.0
1578128987372,5876251.0,5488451.0,0.0
1578128987420,5888443.0,5499109.0,0.0
1578128987471,5885361.0,5496918.0,0.0
1578128987521,5868812.0,5481568.0,0.0
1578128987569,5859197.0,5472724.0,0.0
1578128987621,5858648.0,5473183.0,0.0
1578128987669,5862321.0,5473598.0,0.0
1578128987718,5857196.0,5472214.0,0.0
1578128987767,5839443.0,5435684.0,0.0
1578128987817,5820182.0,5406154.0,0.0
1578128987867,5808536.0,5392082.0,0.0
1578128987915,5800632.0,5385254.0,0.0
1578128987966,5801892.0,5381409.0,0.0
1578128988015,5791099.0,5367728.0,0.0
1578128988066,5776551.0,5353897.0,0.0
1578128988113,5762715.0,5348535.0,0.0
1578128988164,5772179.0,5359731.0,0.0
1578128988213,5786112.0,5375159.0,0.0
1578128988263,5766139.0,5346733.0,0.0
1578128988312,5748002.0,5321426.0,0.0
1578128988363,5799291.0,5371747.0,0.0
1578128988410,5838018.0,5414433.0,0.0
1578128988462,5834948.0,5417619.0,0.0
1578128988510,5821811.0,5407768.0,0.0
1578128988559,5819441.0,5400858.0,0.0
1578128988609,5814372.0,5394098.0,0.0
1578128988658,5809634.0,5392391.0,0.0
1578128988707,5799591.0,5390336.0,0.0
1578128988756,5782030.0,5360630.0,0.0
1578128988806,5756467.0,5328830.0,0.0
1578128988855,5749947.0,5310942.0,0.0
1578128988907,5733262.0,5301291.0,0.0
1578128988954,5746372.0,5307218.0,0.0
1578128989004,5755879.0,5315402.0,0.0
1578128989053,5766934.0,5318817.0,0.0
1578128989103,5761686.0,5315093.0,0.0
1578128989152,5761454.0,5309140.0,0.0
1578128989204,5762673.0,5318588.0,0.0
1578128989250,5750919.0,5307406.0,0.0
1578128989303,5723219.0,5275674.0,0.0
1578128989350,5721755.0,5270230.0,0.0
1578128989399,5719015.0,5277043.0,0.0
1578128989449,5726742.0,5281533.0,0.0
1578128989498,5725563.0,5288051.0,0.0
1578128989547,5714781.0,5279987.0,0.0
1578128989596,5708027.0,5271923.0,0.0
1578128989646,5699808.0,5263954.0,0.0
1578128989695,5707492.0,5276452.0,0.0
1578128989747,5722712.0,5299798.0,0.0
1578128989794,5724356.0,5295338.0,0.0
1578128989844,5693275.0,5264693.0,0.0
1578128989893,5684684.0,5250473.0,0.0
1578128989945,5692137.0,5255984.0,0.0
1578128989991,5692753.0,5265284.0,0.0
1578128990043,5695672.0,5266816.0,0.0
1578128990090,5691192.0,5265661.0,0.0
1578128990140,5688452.0,5264840.0,0.0
1578128990190,5698877.0,5273899.0,0.0
1578128990239,5744413.0,5324812.0,0.0
1578128990289,5788305.0,5389273.0,0.0
1578128990338,5842798.0,5463936.0,0.0
1578128990388,5894156.0,5526943.0,0.0
1578128990436,5911854.0,5567198.0,0.0
1578128990487,5930567.0,5604617.0,0.0
1578128990535,5937828.0,5629077.0,0.0
1578128990587,5945225.0,5636646.0,0.0
1578128990634,5957501.0,5648702.0,0.0
1578128990687,5959815.0,5649898.0,0.0
1578128990732,5960088.0,5651484.0,0.0
1578128990784,5953090.0,5639199.0,0.0
1578128990832,5932172.0,5603084.0,0.0
1578128990881,5909868.0,5580019.0,0.0
1578128990930,5883239.0,5567333.0,0.0
1578128990980,5867305.0,5561904.0,0.0
1578128991030,5856497.0,5562776.0,0.0
1578128991079,5840100.0,5554550.0,0.0
1578128991129,5829208.0,5546324.0,0.0
1578128991177,5831222.0,5559187.0,0.0
1578128991228,5841772.0,5569818.0,0.0
1578128991276,5853649.0,5577237.0,0.0
1578128991327,5839414.0,5549860.0,0.0
1578128991375,5837115.0,5523798.0,0.0
1578128991427,5850606.0,5531594.0,0.0
1578128991474,5843798.0,5535425.0,0.0
1578128991524,5845895.0,5545129.0,0.0
1578128991570,5854018.0,5556917.0,0.0
1578128991625,5864553.0,5568207.0,0.0
1578128991671,5883650.0,5579766.0,0.0
1578128991721,5890897.0,5598193.0,0.0
1578128991770,5890018.0,5609145.0,0.0
1578128991819,5892704.0,5619724.0,0.0
1578128991868,5897814.0,5630879.0,0.0
1578128991918,5912760.0,5641228.0,0.0
1578128991969,5908196.0,5637344.0,0.0
1578128992017,5907404.0,5643044.0,0.0
1578128992068,5915539.0,5673257.0,0.0
1578128992115,5926336.0,5701199.0,0.0
1578128992166,5918102.0,5710287.0,0.0
1578128992214,5920676.0,5709440.0,0.0
1578128992266,5938020.0,5716994.0,0.0
1578128992313,5954624.0,5725232.0,0.0
1578128992364,5952049.0,5706710.0,0.0
1578128992412,5947677.0,5698405.0,0.0
1578128992463,5942596.0,5697975.0,0.0
1578128992511,5939062.0,5705998.0,0.0
1578128992561,5936019.0,5716320.0,0.0
1578128992610,5944568.0,5727060.0,0.0
1578128992660,5950336.0,5733619.0,0.0
1578128992710,5967596.0,5744613.0,0.0
1578128992759,5986392.0,5758765.0,0.0
1578128992808,5995473.0,5767933.0,0.0
1578128992858,6000379.0,5777958.0,0.0
1578128992910,5983803.0,5768336.0,0.0
1578128992957,6008460.0,5792219.0,0.0
1578128993006,6070272.0,5864571.0,0.0
1578128993055,6101230.0,5904045.0,0.0
1578128993106,6111682.0,5900899.0,0.0
1578128993154,6114614.0,5902311.0,0.0
1578128993207,6139163.0,5911315.0,0.0
1578128993253,6137410.0,5909368.0,0.0
1578128993303,6143094.0,5906639.0,0.0
1578128993352,6137560.0,5886761.0,0.0
1578128993402,6127724.0,5877284.0,0.0
1578128993451,6112834.0,5863897.0,0.0
1578128993500,6090737.0,5855188.0,0.0
1578128993550,6101723.0,5858441.0,0.0
1578128993599,6110353.0,5861518.0,0.0
1578128993650,6154382.0,5881129.0,0.0
1578128993698,6159588.0,5882783.0,0.0
1578128993750,6151808.0,5878455.0,0.0
1578128993797,6137848.0,5881612.0,0.0
1578128993848,6149299.0,5906801.0,0.0
1578128993896,6147094.0,5929353.0,0.0
1578128993949,6159108.0,5947539.0,0.0
1578128993994,6146368.0,5949688.0,0.0
1578128994049,6117092.0,5938963.0,0.0
1578128994093,6102148.0,5928184.0,0.0
1578128994143,6096738.0,5935765.0,0.0
1578128994192,6099202.0,5942969.0,0.0
1578128994242,6101312.0,5958250.0,0.0
1578128994291,6123052.0,5985292.0,0.0
1578128994340,6154574.0,6012751.0,0.0
1578128994391,6208356.0,6056245.0,0.0
1578128994439,6226604.0,6073450.0,0.0
1578128994491,6219726.0,6068504.0,0.0
1578128994539,6208713.0,6061782.0,0.0
1578128994589,6208876.0,6067535.0,0.0
1578128994637,6216507.0,6091150.0,0.0
1578128994689,6232440.0,6110934.0,0.0
1578128994735,6230673.0,6118286.0,0.0
1578128994789,6212123.0,6105841.0,0.0
1578128994834,6198958.0,6090331.0,0.0
1578128994886,6212275.0,6092010.0,0.0
1578128994933,6226028.0,6117909.0,0.0
1578128994984,6264548.0,6182479.0,0.0
1578128995032,6303456.0,6239681.0,0.0
1578128995083,6326811.0,6285084.0,0.0
1578128995131,6357826.0,6331210.0,0.0
1578128995181,6406897.0,6380606.0,0.0
1578128995231,6469090.0,6424812.0,0.0
1578128995280,6521516.0,6464193.0,0.0
1578128995329,6551187.0,6485682.0,0.0
1578128995379,6564091.0,6504810.0,0.0
1578128995430,6541297.0,6494273.0,0.0
1578128995478,6544844.0,6487498.0,0.0
1578128995532,6551625.0,6486839.0,0.0
1578128995575,6550134.0,6475872.0,0.0
1578128995629,6550365.0,6468023.0,0.0
1578128995672,6555049.0,6447432.0,0.0
1578128995724,6563968.0,6443078.0,0.0
1578128995773,6577024.0,6434596.0,0.0
1578128995824,6569216.0,6410148.0,0.0
1578128995872,6563037.0,6390040.0,0.0
1578128995923,6566899.0,6380268.0,0.0
1578128995972,6574572.0,6369289.0,0.0
1578128996021,6578161.0,6356480.0,0.0
1578128996070,6562188.0,6325163.0,0.0
1578128996119,6558545.0,6316990.0,0.0
1578128996170,6563241.0,6341627.0,0.0
1578128996219,6601203.0,6406868.0,0.0
1578128996271,6609531.0,6452042.0,0.0
1578128996317,6630628.0,6502148.0,0.0
1578128996371,6616204.0,6501677.0,0.0
1578128996416,6600736.0,6500361.0,0.0
1578128996467,6621435.0,6493587.0,0.0
1578128996515,6630505.0,6491529.0,0.0
1578128996566,6642217.0,6523222.0,0.0
1578128996613,6684684.0,6548733.0,0.0
1578128996664,6732068.0,6584713.0,0.0
1578128996712,6755687.0,6607657.0,0.0
1578128996763,6780644.0,6622816.0,0.0
1578128996811,6788866.0,6621097.0,0.0
1578128996861,6785028.0,6613557.0,0.0
1578128996911,6798385.0,6614404.0,0.0
1578128996960,6835783.0,6650573.0,0.0
1578128997008,6855963.0,6676096.0,0.0
1578128997059,6863182.0,6695706.0,0.0
1578128997111,6855401.0,6671256.0,0.0
1578128997158,6841838.0,6658460.0,0.0
1578128997210,6839564.0,6648462.0,0.0
1578128997256,6884292.0,6690637.0,0.0
1578128997306,6898252.0,6720569.0,0.0
1578128997355,6899470.0,6739762.0,0.0
1578128997406,6886333.0,6707910.0,0.0
1578128997454,6873169.0,6695624.0,0.0
1578128997504,6878675.0,6697452.0,0.0
1578128997552,6909760.0,6726861.0,0.0
1578128997603,6934855.0,6756025.0,0.0
1578128997652,6941828.0,6781227.0,0.0
1578128997701,6934882.0,6761831.0,0.0
1578128997750,6919431.0,6742235.0,0.0
1578128997800,6908443.0,6736120.0,0.0
1578128997848,6917088.0,6744682.0,0.0
1578128997899,6952745.0,6766739.0,0.0
1578128997949,6972088.0,6784521.0,0.0
1578128997998,6977363.0,6804144.0,0.0
1578128998050,6953732.0,6776484.0,0.0
1578128998096,6944733.0,6763754.0,0.0
1578128998147,6928430.0,6748338.0,0.0
1578128998192,6925664.0,6740045.0,0.0
1578128998243,6957267.0,6761416.0,0.0
1578128998294,6986227.0,6788820.0,0.0
1578128998344,6992556.0,6799265.0,0.0
1578128998393,6970212.0,6786388.0,0.0
1578128998443,6954006.0,6770260.0,0.0
1578128998493,6936910.0,6753970.0,0.0
1578128998541,6924388.0,6743539.0,0.0
1578128998590,6953267.0,6759373.0,0.0
1578128998640,6991872.0,6787760.0,0.0
1578128998691,6999788.0,6807047.0,0.0
1578128998738,6991665.0,6807907.0,0.0
1578128998792,6961321.0,6783835.0,0.0
1578128998837,6946774.0,6767920.0,0.0
1578128998888,6921142.0,6748930.0,0.0
1578128998937,6913580.0,6741888.0,0.0
1578128998987,6964775.0,6772074.0,0.0
1578128999035,7000898.0,6797679.0,0.0
1578128999086,7013831.0,6811940.0,0.0
1578128999131,7017447.0,6827099.0,0.0
1578128999184,7021720.0,6829560.0,0.0
1578128999233,7014584.0,6822892.0,0.0
1578128999283,7006336.0,6817610.0,0.0
1578128999331,6998254.0,6809935.0,0.0
1578128999381,7002926.0,6814466.0,0.0
1578128999431,7030500.0,6830055.0,0.0
1578128999480,7045654.0,6848417.0,0.0
1578128999532,7051352.0,6863927.0,0.0
1578128999579,7051283.0,6870042.0,0.0
1578128999628,7044583.0,6874235.0,0.0
1578128999677,7032625.0,6862691.0,0.0
1578128999727,7031803.0,6865579.0,0.0
1578128999776,7048982.0,6876210.0,0.0
1578128999826,7068324.0,6895809.0,0.0
1578128999875,7090941.0,6914934.0,0.0
1578128999926,7098983.0,6931277.0,0.0
1578128999974,7116558.0,6951762.0,0.0
1578129000022,7115778.0,6965711.0,0.0
1578129000071,7114326.0,6981586.0,0.0
1578129000120,7112531.0,6993371.0,0.0
1578129000172,7110353.0,7004017.0,0.0
1578129000221,7111736.0,7015993.0,0.0
1578129000272,7119067.0,7031518.0,0.0
1578129000320,7128585.0,7039688.0,0.0
1578129000372,7128915.0,7027873.0,0.0
1578129000418,7116996.0,7016880.0,0.0
1578129000468,7096750.0,7001921.0,0.0
1578129000518,7054791.0,6969005.0,0.0
1578129000567,7037996.0,6943171.0,0.0
1578129000615,7026680.0,6920781.0,0.0
1578129000666,7024982.0,6899451.0,0.0
1578129000714,7010816.0,6871762.0,0.0
1578129000766,6980253.0,6829546.0,0.0
1578129000814,6937513.0,6763686.0,0.0
1578129000862,6896704.0,6705813.0,0.0
1578129000913,6873634.0,6663892.0,0.0
1578129000963,6847566.0,6630936.0,0.0
1578129001013,6813961.0,6590546.0,0.0
1578129001061,6783426.0,6554297.0,0.0
1578129001113,6753233.0,6518102.0,0.0
1578129001160,6740384.0,6495939.0,0.0
1578129001209,6725917.0,6483183.0,0.0
1578129001258,6706862.0,6464944.0,0.0
1578129001309,6702697.0,6469487.0,0.0
1578129001357,6692630.0,6460389.0,0.0
1578129001408,6654232.0,6405982.0,0.0
1578129001456,6611202.0,6362515.0,0.0
1578129001506,6588339.0,6342421.0,0.0
1578129001555,6576804.0,6337878.0,0.0
1578129001606,6575640.0,6332556.0,0.0
1578129001652,6558269.0,6306912.0,0.0
1578129001702,6542953.0,6294438.0,0.0
1578129001751,6531926.0,6296105.0,0.0
1578129001802,6523379.0,6293914.0,0.0
1578129001853,6511254.0,6282665.0,0.0
1578129001900,6508913.0,6289586.0,0.0
1578129001950,6485747.0,6254077.0,0.0
1578129001999,6442062.0,6230771.0,0.0
1578129002049,6420512.0,6249143.0,0.0
1578129002098,6404073.0,6281307.0,0.0
1578129002148,6386552.0,6291079.0,0.0
1578129002197,6374702.0,6319987.0,0.0
1578129002248,6360812.0,6341279.0,0.0
1578129002296,6363236.0,6377447.0,0.0
1578129002346,6366675.0,6407136.0,0.0
1578129002396,6399716.0,6454554.0,0.0
1578129002446,6426567.0,6494285.0,0.0
1578129002495,6425622.0,6486518.0,0.0
1578129002544,6446500.0,6522901.0,0.0
1578129002594,6474596.0,6607657.0,0.0
1578129002642,6535187.0,6728648.0,0.0
1578129002694,6593489.0,6801589.0,0.0
1578129002740,6684465.0,6849719.0,0.0
1578129002790,6759399.0,6874261.0,0.0
1578129002839,6785920.0,6886197.0,0.0
1578129002889,6767384.0,6877824.0,0.0
1578129002938,6742865.0,6865231.0,0.0
1578129002989,6686025.0,6791455.0,0.0
1578129003038,6620669.0,6606500.0,0.0
1578129003088,6565572.0,6514714.0,0.0
1578129003137,6511940.0,6459703.0,0.0
1578129003187,6460487.0,6415603.0,0.0
1578129003237,6429732.0,6380565.0,0.0
1578129003286,6402486.0,6352246.0,0.0
1578129003336,6380689.0,6314652.0,0.0
1578129003386,6367648.0,6294076.0,0.0
1578129003435,6351401.0,6271939.0,0.0
1578129003484,6311936.0,6227960.0,0.0
1578129003535,6232672.0,6115774.0,0.0
1578129003582,6177779.0,6043585.0,0.0
1578129003632,6147793.0,6004714.0,0.0
1578129003681,6122286.0,5969217.0,0.0
1578129003730,6098272.0,5937364.0,0.0
1578129003779,6057804.0,5891021.0,0.0
1578129003829,6027955.0,5854611.0,0.0
1578129003878,5999652.0,5809168.0,0.0
1578129003929,5953198.0,5756696.0,0.0
1578129003977,5925156.0,5734291.0,0.0
1578129004028,5885046.0,5666335.0,0.0
1578129004077,5825907.0,5578636.0,0.0
1578129004125,5786400.0,5530626.0,0.0
1578129004176,5768221.0,5506446.0,0.0
1578129004226,5742358.0,5471702.0,0.0
1578129004275,5718016.0,5435065.0,0.0
1578129004324,5686466.0,5410750.0,0.0
1578129004375,5677149.0,5393613.0,0.0
1578129004422,5657821.0,5381491.0,0.0
1578129004471,5645560.0,5368022.0,0.0
1578129004521,5601245.0,5293522.0,0.0
1578129004570,5545201.0,5214157.0,0.0
1578129004619,5510884.0,5165555.0,0.0
1578129004669,5496994.0,5139939.0,0.0
1578129004718,5516256.0,5141308.0,0.0
1578129004768,5514830.0,5122209.0,0.0
1578129004818,5493774.0,5085234.0,0.0
1578129004868,5474816.0,5065397.0,0.0
1578129004918,5465639.0,5050691.0,0.0
1578129004967,5459404.0,5042789.0,0.0
1578129005015,5435569.0,4998986.0,0.0
1578129005063,5391116.0,4923773.0,0.0
1578129005117,5361580.0,4883586.0,0.0
1578129005164,5372718.0,4893343.0,0.0
1578129005212,5396800.0,4923478.0,0.0
1578129005262,5424403.0,4970640.0,0.0
1578129005309,5466830.0,5041970.0,0.0
1578129005361,5517501.0,5114293.0,0.0
1578129005409,5536625.0,5159494.0,0.0
1578129005459,5545927.0,5188605.0,0.0
1578129005509,5533435.0,5206373.0,0.0
1578129005559,5543517.0,5229196.0,0.0
1578129005608,5562626.0,5271049.0,0.0
1578129005658,5618148.0,5337810.0,0.0
1578129005705,5648411.0,5382175.0,0.0
1578129005756,5644861.0,5372406.0,0.0
1578129005806,5681905.0,5382793.0,0.0
1578129005856,5699972.0,5387418.0,0.0
1578129005904,5741836.0,5419312.0,0.0
1578129005953,5790523.0,5466959.0,0.0
1578129006003,5852689.0,5514430.0,0.0
1578129006052,5906306.0,5554296.0,0.0
1578129006101,5984034.0,5612292.0,0.0
1578129006151,6077134.0,5689735.0,0.0
1578129006200,6030653.0,5663270.0,0.0
1578129006250,6021105.0,5649200.0,0.0
1578129006299,5999323.0,5629039.0,0.0
1578129006348,6046707.0,5661256.0,0.0
1578129006398,6095079.0,5699212.0,0.0
1578129006449,6161041.0,5759719.0,0.0
1578129006496,6195315.0,5792287.0,0.0
1578129006547,6239561.0,5810229.0,0.0
1578129006597,6262139.0,5835833.0,0.0
1578129006646,6287549.0,5860835.0,0.0
1578129006694,6300182.0,5881921.0,0.0
1578129006742,6323593.0,5896774.0,0.0
1578129006793,6319648.0,5897566.0,0.0
1578129006842,6327798.0,5909636.0,0.0
1578129006892,6344359.0,5924972.0,0.0
1578129006940,6352059.0,5933816.0,0.0
1578129006991,6353661.0,5928076.0,0.0
1578129007040,6333373.0,5894313.0,0.0
1578129007090,6312221.0,5874436.0,0.0
1578129007139,6274400.0,5850416.0,0.0
1578129007189,6247069.0,5836131.0,0.0
1578129007241,6222247.0,5817433.0,0.0
1578129007288,6212425.0,5802636.0,0.0
1578129007339,6194808.0,5797772.0,0.0
1578129007387,6204548.0,5803133.0,0.0
1578129007439,6237110.0,5833911.0,0.0
1578129007485,6234508.0,5827837.0,0.0
1578129007534,6216425.0,5797501.0,0.0
1578129007584,6222631.0,5796144.0,0.0
1578129007633,6229028.0,5806681.0,0.0
1578129007683,6247687.0,5824463.0,0.0
1578129007731,6247165.0,5822314.0,0.0
1578129007781,6222535.0,5803737.0,0.0
1578129007831,6211300.0,5788430.0,0.0
1578129007887,6205713.0,5790526.0,0.0
1578129007936,6203768.0,5793226.0,0.0
1578129007978,6206547.0,5789302.0,0.0
1578129008036,6192807.0,5745366.0,0.0
1578129008080,6179630.0,5717665.0,0.0
1578129008128,6172260.0,5717948.0,0.0
1578129008182,6171355.0,5711026.0,0.0
1578129008234,6165587.0,5688607.0,0.0
1578129008279,6159520.0,5683352.0,0.0
1578129008332,6151300.0,5683204.0,0.0
1578129008380,6150628.0,5695140.0,0.0
1578129008432,6163889.0,5727678.0,0.0
1578129008476,6166217.0,5724237.0,0.0
1578129008528,6167300.0,5713874.0,0.0
1578129008572,6168219.0,5709978.0,0.0
1578129008620,6165548.0,5718672.0,0.0
1578129008678,6164231.0,5717356.0,0.0
1578129008720,6164699.0,5711859.0,0.0
1578129008777,6164918.0,5711430.0,0.0
1578129008821,6156108.0,5716214.0,0.0
1578129008877,6170313.0,5731105.0,0.0
1578129008921,6183808.0,5746803.0,0.0
1578129008975,6188930.0,5750540.0,0.0
1578129009023,6188204.0,5722503.0,0.0
1578129009074,6193656.0,5711227.0,0.0
1578129009121,6203054.0,5718755.0,0.0
1578129009170,6214109.0,5724116.0,0.0
1578129009220,6205014.0,5724399.0,0.0
1578129009270,6206643.0,5722288.0,0.0
1578129009320,6209329.0,5721643.0,0.0
1578129009364,6211480.0,5720998.0,0.0
1578129009419,6214370.0,5722220.0,0.0
1578129009460,6214973.0,5714680.0,0.0
1578129009518,6196657.0,5679884.0,0.0
1578129009559,6186889.0,5666712.0,0.0
1578129009609,6184657.0,5663983.0,0.0
1578129009660,6177491.0,5649480.0,0.0
1578129009710,6167424.0,5649777.0,0.0
1578129009759,6174163.0,5649724.0,0.0
1578129009810,6181944.0,5647734.0,0.0
1578129009862,6185986.0,5647640.0,0.0
1578129009915,6179108.0,5644884.0,0.0
1578129009963,6173767.0,5630531.0,0.0
1578129010010,6161833.0,5599280.0,0.0
1578129010062,6145629.0,5582963.0,0.0
1578129010111,6142779.0,5571084.0,0.0
1578129010161,6137875.0,5563288.0,0.0
1578129010206,6134478.0,5561003.0,0.0
1578129010250,6127025.0,5548676.0,0.0
1578129010309,6124588.0,5541996.0,0.0
1578129010358,6120024.0,5537603.0,0.0
1578129010399,6124546.0,5524040.0,0.0
1578129010457,6154985.0,5527361.0,0.0
1578129010501,6170958.0,5534147.0,0.0
1578129010556,6149683.0,5513974.0,0.0
1578129010603,6164135.0,5471449.0,0.0
1578129010649,6156603.0,5497764.0,0.0
1578129010705,6151520.0,5521499.0,0.0
1578129010755,6141164.0,5528798.0,0.0
1578129010804,6165356.0,5555545.0,0.0
1578129010850,6170547.0,5568920.0,0.0
1578129010901,6170466.0,5548476.0,0.0
1578129010949,6163808.0,5491448.0,0.0
1578129011000,6181110.0,5502657.0,0.0
1578129011049,6170313.0,5491328.0,0.0
1578129011099,6174178.0,5531271.0,0.0
1578129011149,6191699.0,5553731.0,0.0
1578129011198,6202109.0,5566473.0,0.0
1578129011241,6195480.0,5562708.0,0.0
1578129011298,6206766.0,5570221.0,0.0
1578129011343,6202670.0,5561984.0,0.0
1578129011397,6205494.0,5541378.0,0.0
1578129011447,6210136.0,5540600.0,0.0
1578129011495,6211150.0,5542199.0,0.0
1578129011542,6199138.0,5532213.0,0.0
1578129011593,6190451.0,5562964.0,0.0
1578129011643,6196534.0,5570277.0,0.0
1578129011687,6213452.0,5605033.0,0.0
1578129011737,6220398.0,5606887.0,0.0
1578129011784,6228275.0,5601379.0,0.0
1578129011835,6236329.0,5573892.0,0.0
1578129011882,6226685.0,5566123.0,0.0
1578129011934,6234919.0,5580638.0,0.0
1578129011982,6221836.0,5608595.0,0.0
1578129012039,6207027.0,5607815.0,0.0
1578129012082,6211808.0,5617103.0,0.0
1578129012130,6211150.0,5629077.0,0.0
1578129012184,6215150.0,5639737.0,0.0
1578129012236,6239276.0,5659616.0,0.0
1578129012285,6265056.0,5664695.0,0.0
1578129012327,6223042.0,5584026.0,0.0
1578129012384,6196425.0,5545829.0,0.0
1578129012432,6188644.0,5568219.0,0.0
1578129012481,6184356.0,5587856.0,0.0
1578129012526,6210232.0,5627157.0,0.0
1578129012578,6224260.0,5648676.0,0.0
1578129012625,6227507.0,5660246.0,0.0
1578129012680,6247576.0,5688957.0,0.0
1578129012722,6260263.0,5708580.0,0.0
1578129012777,6244398.0,5614024.0,0.0
1578129012826,6219054.0,5571579.0,0.0
1578129012879,6250562.0,5649521.0,0.0
1578129012926,6237097.0,5668781.0,0.0
1578129012977,6238904.0,5697746.0,0.0
1578129013025,6247399.0,5706145.0,0.0
1578129013076,6234316.0,5695246.0,0.0
1578129013124,6223561.0,5685233.0,0.0
1578129013173,6229508.0,5698929.0,0.0
1578129013218,6215931.0,5613473.0,0.0
1578129013268,6155643.0,5557320.0,0.0
1578129013317,6155931.0,5572385.0,0.0
1578129013367,6176108.0,5640865.0,0.0
1578129013415,6175547.0,5659548.0,0.0
1578129013467,6193302.0,5691766.0,0.0
1578129013514,6195000.0,5706133.0,0.0
1578129013564,6170055.0,5676604.0,0.0
1578129013612,6165095.0,5671899.0,0.0
1578129013665,6163849.0,5638943.0,0.0
1578129013718,6119670.0,5582763.0,0.0
1578129013765,6061585.0,5576030.0,0.0
1578129013817,6058614.0,5597923.0,0.0
1578129013868,6079790.0,5629468.0,0.0
1578129013914,6097176.0,5646362.0,0.0
1578129013964,6115340.0,5642802.0,0.0
1578129014012,6082338.0,5624952.0,0.0
1578129014063,6033297.0,5596618.0,0.0
1578129014110,6009981.0,5579389.0,0.0
1578129014156,5998939.0,5571849.0,0.0
1578129014208,5989036.0,5564739.0,0.0
1578129014255,5968817.0,5554900.0,0.0
1578129014307,5965432.0,5557279.0,0.0
1578129014353,5952088.0,5549444.0,0.0
1578129014403,5931431.0,5543745.0,0.0
1578129014452,5926939.0,5545143.0,0.0
1578129014504,5916292.0,5546015.0,0.0
1578129014552,5892937.0,5525035.0,0.0
1578129014601,5849307.0,5493718.0,0.0
1578129014651,5812989.0,5478047.0,0.0
1578129014706,5796236.0,5474096.0,0.0
1578129014755,5779894.0,5471004.0,0.0
1578129014805,5767783.0,5465670.0,0.0
1578129014853,5751729.0,5461018.0,0.0
1578129014905,5741836.0,5458545.0,0.0
1578129014945,5727864.0,5456313.0,0.0
1578129015002,5724014.0,5455306.0,0.0
1578129015046,5697410.0,5440710.0,0.0
1578129015103,5655355.0,5413895.0,0.0
1578129015150,5638148.0,5408142.0,0.0
1578129015201,5625326.0,5413023.0,0.0
1578129015249,5627505.0,5419715.0,0.0
1578129015291,5629833.0,5430858.0,0.0
1578129015349,5631054.0,5439541.0,0.0
1578129015392,5626560.0,5443277.0,0.0
1578129015448,5624066.0,5441313.0,0.0
1578129015488,5624600.0,5446892.0,0.0
1578129015539,5633107.0,5454983.0,0.0
1578129015590,5612012.0,5434809.0,0.0
1578129015637,5584243.0,5426651.0,0.0
1578129015690,5580504.0,5424985.0,0.0
1578129015736,5574998.0,5425415.0,0.0
1578129015786,5576120.0,5436087.0,0.0
1578129015843,5577860.0,5438384.0,0.0
1578129015888,5575064.0,5442296.0,0.0
1578129015942,5577408.0,5449580.0,0.0
1578129015986,5590779.0,5458250.0,0.0
1578129016040,5593860.0,5464445.0,0.0
1578129016088,5571943.0,5446798.0,0.0
1578129016133,5547091.0,5435051.0,0.0
1578129016189,5531310.0,5428424.0,0.0
1578129016229,5539982.0,5422121.0,0.0
1578129016288,5559790.0,5431395.0,0.0
1578129016331,5563817.0,5438410.0,0.0
1578129016386,5559202.0,5442270.0,0.0
1578129016429,5557668.0,5448532.0,0.0
1578129016484,5561572.0,5472214.0,0.0
1578129016527,5571694.0,5485749.0,0.0
1578129016584,5543325.0,5465991.0,0.0
1578129016628,5518887.0,5450831.0,0.0
1578129016684,5508775.0,5448129.0,0.0
1578129016729,5502215.0,5449136.0,0.0
1578129016781,5487556.0,5440548.0,0.0
1578129016829,5473048.0,5439768.0,0.0
1578129016880,5471296.0,5430844.0,0.0
1578129016930,5478212.0,5439997.0,0.0
1578129016978,5507008.0,5465293.0,0.0
1578129017029,5535940.0,5492240.0,0.0
1578129017077,5540721.0,5510211.0,0.0
1578129017128,5559913.0,5543168.0,0.0
1578129017169,5586806.0,5575518.0,0.0
1578129017227,5612588.0,5595691.0,0.0
1578129017269,5616312.0,5598635.0,0.0
1578129017325,5617971.0,5599886.0,0.0
1578129017367,5597710.0,5580249.0,0.0
1578129017425,5581531.0,5568045.0,0.0
1578129017466,5575436.0,5570531.0,0.0
1578129017524,5592996.0,5612681.0,0.0
1578129017568,5643904.0,5678203.0,0.0
1578129017623,5714385.0,5751172.0,0.0
1578129017667,5785550.0,5818522.0,0.0
1578129017722,5820824.0,5859260.0,0.0
1578129017768,5833934.0,5874354.0,0.0
1578129017814,5843443.0,5883669.0,0.0
1578129017871,5866033.0,5905912.0,0.0
1578129017911,5882855.0,5922444.0,0.0
1578129017969,5902294.0,5930522.0,0.0
1578129018012,5933747.0,5952726.0,0.0
1578129018067,5947884.0,5942122.0,0.0
1578129018109,5949156.0,5932524.0,0.0
1578129018166,5955377.0,5921531.0,0.0
1578129018209,5959008.0,5919475.0,0.0
1578129018265,5962323.0,5916664.0,0.0
1578129018307,5978227.0,5911006.0,0.0
1578129018362,5989927.0,5916664.0,0.0
1578129018411,6020598.0,5933667.0,0.0
1578129018461,6033297.0,5966435.0,0.0
1578129018511,6027337.0,5962604.0,0.0
1578129018559,6020064.0,5964432.0,0.0
1578129018607,6016241.0,5965413.0,0.0
1578129018651,6003488.0,5955414.0,0.0
1578129018701,5993912.0,5944448.0,0.0
1578129018750,5984487.0,5923103.0,0.0
1578129018800,5983611.0,5882795.0,0.0
1578129018850,5983131.0,5874192.0,0.0
1578129018900,5989774.0,5852877.0,0.0
1578129018950,6018158.0,5874852.0,0.0
1578129019007,6021174.0,5881773.0,0.0
1578129019050,6045051.0,5905308.0,0.0
1578129019105,6042983.0,5917780.0,0.0
1578129019150,6063025.0,5941571.0,0.0
1578129019205,6065216.0,5953357.0,0.0
1578129019251,6096516.0,5981543.0,0.0
1578129019295,6117299.0,6009392.0,0.0
1578129019352,6147520.0,6038585.0,0.0
1578129019395,6183123.0,6056271.0,0.0
1578129019459,6195261.0,6073167.0,0.0
1578129019529,6224233.0,6085815.0,0.0
1578129019549,6251810.0,6108973.0,0.0
1578129019604,6287084.0,6140664.0,0.0
1578129019641,6316359.0,6155747.0,0.0
1578129019690,6350441.0,6178902.0,0.0
1578129019739,6369334.0,6197706.0,0.0
1578129019789,6386225.0,6216631.0,0.0
1578129019841,6409787.0,6244992.0,0.0
1578129019889,6432211.0,6272799.0,0.0
1578129019941,6448772.0,6305137.0,0.0
1578129019992,6467350.0,6331399.0,0.0
1578129020044,6481474.0,6349449.0,0.0
1578129020095,6489774.0,6368898.0,0.0
1578129020136,6500103.0,6386506.0,0.0
1578129020194,6506062.0,6399623.0,0.0
1578129020238,6518557.0,6411128.0,0.0
1578129020288,6527419.0,6413804.0,0.0
1578129020337,6543748.0,6422378.0,0.0
1578129020388,6553789.0,6424556.0,0.0
1578129020435,6568571.0,6440940.0,0.0
1578129020487,6575421.0,6455967.0,0.0
1578129020534,6586299.0,6469192.0,0.0
1578129020584,6595913.0,6484083.0,0.0
1578129020633,6604696.0,6494367.0,0.0
1578129020682,6616627.0,6506865.0,0.0
1578129020730,6627478.0,6516221.0,0.0
1578129020787,6640669.0,6535791.0,0.0
1578129020834,6652588.0,6544594.0,0.0
1578129020887,6662670.0,6556488.0,0.0
1578129020939,6671492.0,6565291.0,0.0
1578129020988,6684068.0,6574526.0,0.0
1578129021034,6689698.0,6583462.0,0.0
1578129021083,6701164.0,6597523.0,0.0
1578129021133,6714466.0,6604350.0,0.0
1578129021180,6717917.0,6612414.0,0.0
1578129021227,6725863.0,6620908.0,0.0
1578129021277,6738328.0,6631890.0,0.0
1578129021331,6744233.0,6640357.0,0.0
1578129021372,6754235.0,6649872.0,0.0
1578129021422,6762673.0,6657548.0,0.0
1578129021474,6765920.0,6662197.0,0.0
1578129021529,6772002.0,6674994.0,0.0
1578129021568,6788056.0,6682331.0,0.0
1578129021626,6786907.0,6686444.0,0.0
1578129021673,6798345.0,6694037.0,0.0
1578129021724,6793427.0,6692438.0,0.0
1578129021773,6798700.0,6699710.0,0.0
1578129021824,6805851.0,6710368.0,0.0
1578129021867,6801811.0,6709185.0,0.0
1578129021921,6793277.0,6708151.0,0.0
1578129021971,6798961.0,6721564.0,0.0
1578129022020,6797262.0,6730824.0,0.0
1578129022069,6790564.0,6733056.0,0.0
1578129022118,6800371.0,6726967.0,0.0
1578129022167,6798907.0,6706929.0,0.0
1578129022216,6804755.0,6716792.0,0.0
1578129022271,6811332.0,6723917.0,0.0
1578129022316,6795195.0,6698998.0,0.0
1578129022368,6818523.0,6720569.0,0.0
1578129022412,6793166.0,6674226.0,0.0
1578129022462,6760632.0,6622978.0,0.0
1578129022512,6737728.0,6629081.0,0.0
1578129022566,6714493.0,6636191.0,0.0
1578129022616,6716041.0,6662629.0,0.0
1578129022665,6676849.0,6647011.0,0.0
1578129022713,6620696.0,6612211.0,0.0
1578129022757,6615655.0,6588005.0,0.0
1578129022808,6616873.0,6576623.0,0.0
1578129022855,6621942.0,6574432.0,0.0
1578129022903,6628177.0,6574323.0,0.0
1578129022952,6627643.0,6565668.0,0.0
1578129023002,6624807.0,6556164.0,0.0
1578129023051,6629176.0,6542053.0,0.0
1578129023101,6630299.0,6521798.0,0.0
1578129023151,6622724.0,6493278.0,0.0
1578129023199,6617764.0,6463009.0,0.0
1578129023249,6609888.0,6442969.0,0.0
1578129023300,6608573.0,6432311.0,0.0
1578129023350,6610464.0,6424421.0,0.0
1578129023397,6610518.0,6409409.0,0.0
1578129023449,6611202.0,6400256.0,0.0
1578129023497,6607763.0,6391977.0,0.0
1578129023549,6599217.0,6387864.0,0.0
1578129023597,6594038.0,6365618.0,0.0
1578129023648,6575433.0,6335888.0,0.0
1578129023696,6564256.0,6312006.0,0.0
1578129023746,6554860.0,6297288.0,0.0
1578129023795,6546380.0,6289707.0,0.0
1578129023846,6535598.0,6280998.0,0.0
1578129023894,6540502.0,6280728.0,0.0
1578129023946,6545024.0,6275137.0,0.0
1578129023994,6544832.0,6277315.0,0.0
1578129024042,6540460.0,6273941.0,0.0
1578129024093,6536091.0,6255891.0,0.0
1578129024140,6533585.0,6238256.0,0.0
1578129024195,6529063.0,6228822.0,0.0
1578129024239,6522350.0,6211214.0,0.0
1578129024294,6515913.0,6198728.0,0.0
1578129024345,6503788.0,6168165.0,0.0
1578129024393,6490899.0,6144765.0,0.0
1578129024445,6494323.0,6127466.0,0.0
1578129024493,6483995.0,6109833.0,0.0
1578129024536,6467611.0,6065263.0,0.0
1578129024589,6446444.0,6022658.0,0.0
1578129024637,6434555.0,6006528.0,0.0
1578129024688,6432322.0,6004393.0,0.0
1578129024735,6436334.0,6007523.0,0.0
1578129024791,6443062.0,6006972.0,0.0
1578129024840,6453417.0,6012227.0,0.0
1578129024892,6465198.0,6005641.0,0.0
1578129024942,6552844.0,6088745.0,0.0
1578129024986,6606779.0,6136592.0,0.0
1578129025038,6626614.0,6169817.0,0.0
1578129025087,6617942.0,6218271.0,0.0
1578129025134,6693698.0,6336842.0,0.0
1578129025185,6746658.0,6431987.0,0.0
1578129025233,6725371.0,6455240.0,0.0
1578129025284,6706178.0,6450011.0,0.0
1578129025332,6721602.0,6446490.0,0.0
1578129025381,6738070.0,6443614.0,0.0
1578129025428,6709644.0,6430806.0,0.0
1578129025484,6650067.0,6385820.0,0.0
1578129025525,6608792.0,6351492.0,0.0
1578129025577,6592640.0,6340446.0,0.0
1578129025631,6596450.0,6350889.0,0.0
1578129025678,6607244.0,6349881.0,0.0
1578129025728,6630491.0,6340352.0,0.0
1578129025779,6633518.0,6327945.0,0.0
1578129025828,6654752.0,6331829.0,0.0
1578129025877,6668273.0,6347945.0,0.0
1578129025922,6682685.0,6344114.0,0.0
1578129025973,6719150.0,6377138.0,0.0
1578129026026,6745425.0,6420240.0,0.0
1578129026075,6758412.0,6438535.0,0.0
1578129026117,6756425.0,6461234.0,0.0
1578129026171,6766276.0,6490752.0,0.0
1578129026216,6767549.0,6510307.0,0.0
1578129026271,6780140.0,6531919.0,0.0
1578129026313,6779576.0,6526570.0,0.0
1578129026370,6788413.0,6536153.0,0.0
1578129026415,6788482.0,6538343.0,0.0
1578129026461,6798756.0,6551044.0,0.0
1578129026517,6811072.0,6553706.0,0.0
1578129026569,6810358.0,6553046.0,0.0
1578129026619,6817949.0,6560212.0,0.0
1578129026667,6824647.0,6568759.0,0.0
1578129026717,6830894.0,6567617.0,0.0
1578129026764,6834456.0,6571568.0,0.0
1578129026816,6841454.0,6581177.0,0.0
1578129026858,6851332.0,6588920.0,0.0
1578129026915,6850907.0,6595398.0,0.0
1578129026958,6849388.0,6598704.0,0.0
1578129027019,6852512.0,6597226.0,0.0
1578129027056,6860347.0,6602387.0,0.0
1578129027108,6856305.0,6594229.0,0.0
1578129027156,6857661.0,6591850.0,0.0
1578129027211,6875416.0,6614873.0,0.0
1578129027256,6876004.0,6624483.0,0.0
1578129027300,6849004.0,6583088.0,0.0
1578129027350,6811072.0,6487472.0,0.0
1578129027398,6763891.0,6422822.0,0.0
1578129027451,6723918.0,6373832.0,0.0
1578129027499,6697671.0,6352796.0,0.0
1578129027551,6654163.0,6300635.0,0.0
1578129027600,6652723.0,6302852.0,0.0
1578129027655,6651451.0,6303671.0,0.0
1578129027696,6636189.0,6284007.0,0.0
1578129027746,6607916.0,6258405.0,0.0
1578129027794,6581435.0,6204239.0,0.0
1578129027853,6551406.0,6135706.0,0.0
1578129027899,6523172.0,6106500.0,0.0
1578129027962,6521336.0,6106754.0,0.0
1578129027999,6530434.0,6108017.0,0.0
1578129028053,6530665.0,6086284.0,0.0
1578129028100,6503788.0,6058570.0,0.0
1578129028143,6491926.0,6052859.0,0.0
1578129028198,6490269.0,6043503.0,0.0
1578129028245,6484022.0,6031314.0,0.0
1578129028298,6447377.0,5967900.0,0.0
1578129028337,6413169.0,5945443.0,0.0
1578129028391,6404169.0,5937417.0,0.0
1578129028441,6409799.0,5956813.0,0.0
1578129028490,6414663.0,5959460.0,0.0
1578129028537,6429486.0,5967780.0,0.0
1578129028594,6433102.0,5958426.0,0.0
1578129028637,6442513.0,5964971.0,0.0
1578129028689,6443158.0,5966852.0,0.0
1578129028745,6479296.0,5972847.0,0.0
1578129028789,6466035.0,5944757.0,0.0
1578129028840,6494803.0,6003356.0,0.0
1578129028883,6483527.0,6005694.0,0.0
1578129028929,6502269.0,6025843.0,0.0
1578129028985,6506830.0,6034808.0,0.0
1578129029030,6509582.0,6051769.0,0.0
1578129029081,6520667.0,6079053.0,0.0
1578129029129,6525036.0,6112992.0,0.0
1578129029184,6515076.0,6089498.0,0.0
1578129029237,6519350.0,6086445.0,0.0
1578129029276,6518830.0,6102885.0,0.0
1578129029334,6518215.0,6104107.0,0.0
1578129029376,6542926.0,6148743.0,0.0
1578129029432,6552886.0,6162518.0,0.0
1578129029485,6558215.0,6206874.0,0.0
1578129029537,6541063.0,6219036.0,0.0
1578129029580,6515830.0,6218459.0,0.0
1578129029630,6490611.0,6195006.0,0.0
1578129029679,6459200.0,6124401.0,0.0
1578129029724,6424088.0,6071407.0,0.0
1578129029779,6457624.0,6095075.0,0.0
1578129029827,6464514.0,6106056.0,0.0
1578129029879,6425705.0,6076742.0,0.0
1578129029919,6413184.0,6065492.0,0.0
1578129029975,6452514.0,6078959.0,0.0
1578129030019,6585174.0,6194265.0,0.0
1578129030076,6584489.0,6216510.0,0.0
1578129030117,6506953.0,6132158.0,0.0
1578129030174,6458720.0,6101431.0,0.0
1578129030217,6426075.0,6079053.0,0.0
1578129030271,6615709.0,6234078.0,0.0
1578129030319,6708768.0,6376291.0,0.0
1578129030371,6763960.0,6438185.0,0.0
1578129030421,6791330.0,6436907.0,0.0
1578129030471,6690247.0,6362029.0,0.0
1578129030521,6605216.0,6319222.0,0.0
1578129030563,6567352.0,6279211.0,0.0
1578129030613,6548187.0,6239212.0,0.0
1578129030663,6706685.0,6337581.0,0.0
1578129030712,6760056.0,6417688.0,0.0
1578129030761,6763138.0,6467714.0,0.0
1578129030817,6727219.0,6472969.0,0.0
1578129030858,6699369.0,6489165.0,0.0
1578129030917,6742301.0,6533438.0,0.0
1578129030959,6762496.0,6540534.0,0.0
1578129031019,6795672.0,6562806.0,0.0
1578129031060,6825565.0,6575210.0,0.0
1578129031113,6851881.0,6589203.0,0.0
1578129031162,6851579.0,6578934.0,0.0
1578129031209,6875347.0,6607294.0,0.0
1578129031261,6902087.0,6627574.0,0.0
1578129031312,6915182.0,6645209.0,0.0
1578129031359,6926429.0,6663192.0,0.0
1578129031411,6947623.0,6688823.0,0.0
1578129031458,6953801.0,6694255.0,0.0
1578129031506,6946185.0,6692815.0,0.0
1578129031557,6941553.0,6677373.0,0.0
1578129031598,6921184.0,6668314.0,0.0
1578129031656,6899458.0,6654497.0,0.0
1578129031698,6920211.0,6674685.0,0.0
1578129031746,6942252.0,6698904.0,0.0
1578129031800,6938171.0,6706202.0,0.0
1578129031854,6900155.0,6680774.0,0.0
1578129031903,6876059.0,6659429.0,0.0
1578129031962,6853223.0,6658287.0,0.0
1578129032001,6902333.0,6698621.0,0.0
1578129032050,6946212.0,6729549.0,0.0
1578129032101,6930828.0,6732667.0,0.0
1578129032145,6907155.0,6707453.0,0.0
1578129032199,6887140.0,6688313.0,0.0
1578129032243,6893319.0,6701995.0,0.0
1578129032298,6939692.0,6739158.0,0.0
1578129032340,6954843.0,6768688.0,0.0
1578129032397,6937486.0,6760165.0,0.0
1578129032441,6927266.0,6741590.0,0.0
1578129032494,6913088.0,6736483.0,0.0
1578129032546,6945006.0,6763459.0,0.0
1578129032595,6973705.0,6796160.0,0.0
1578129032643,6974816.0,6797287.0,0.0
1578129032694,6957390.0,6783700.0,0.0
1578129032741,6947350.0,6778928.0,0.0
1578129032793,6987830.0,6804506.0,0.0
1578129032841,7018624.0,6840810.0,0.0
1578129032891,7000940.0,6827126.0,0.0
1578129032941,6973321.0,6801482.0,0.0
1578129032996,6986980.0,6812005.0,0.0
1578129033040,7020118.0,6849398.0,0.0
1578129033080,7015419.0,6865123.0,0.0
1578129033129,6999377.0,6865458.0,0.0
1578129033181,6997255.0,6873711.0,0.0
1578129033232,7020994.0,6892500.0,0.0
1578129033283,7037558.0,6902984.0,0.0
1578129033328,7040009.0,6915767.0,0.0
1578129033382,7029708.0,6909234.0,0.0
1578129033434,7017078.0,6903267.0,0.0
1578129033491,7046980.0,6919827.0,0.0
1578129033526,7072228.0,6941505.0,0.0
1578129033583,7066392.0,6949757.0,0.0
1578129033626,7058749.0,6939812.0,0.0
1578129033681,7051844.0,6948736.0,0.0
1578129033725,7064529.0,6958548.0,0.0
1578129033780,7084270.0,6971411.0,0.0
1578129033823,7085900.0,6968508.0,0.0
1578129033879,7069366.0,6963789.0,0.0
1578129033921,7076078.0,6967433.0,0.0
1578129033978,7099709.0,6993144.0,0.0
1578129034019,7114353.0,7005039.0,0.0
1578129034078,7108462.0,7009434.0,0.0
1578129034123,7096093.0,7006369.0,0.0
1578129034176,7096763.0,7009635.0,0.0
1578129034222,7113476.0,7023937.0,0.0
1578129034275,7120504.0,7042497.0,0.0
1578129034324,7114476.0,7042108.0,0.0
1578129034371,7109654.0,7030146.0,0.0
1578129034423,7108009.0,7032295.0,0.0
1578129034464,7123325.0,7046665.0,0.0
1578129034519,7134791.0,7067039.0,0.0
1578129034570,7142614.0,7073101.0,0.0
1578129034620,7142299.0,7062779.0,0.0
1578129034662,7133956.0,7059096.0,0.0
1578129034719,7143574.0,7073007.0,0.0
1578129034761,7155697.0,7087282.0,0.0
1578129034818,7172696.0,7091649.0,0.0
1578129034863,7157107.0,7084056.0,0.0
1578129034919,7147751.0,7082307.0,0.0
1578129034972,7144327.0,7083384.0,0.0
1578129035028,7158806.0,7092900.0,0.0
1578129035072,7167820.0,7103101.0,0.0
1578129035112,7172792.0,7109714.0,0.0
1578129035159,7159916.0,7097604.0,0.0
1578129035211,7148177.0,7086729.0,0.0
1578129035262,7140519.0,7083667.0,0.0
1578129035308,7158710.0,7099365.0,0.0
1578129035361,7174148.0,7113839.0,0.0
1578129035406,7178971.0,7109363.0,0.0
1578129035459,7147175.0,7080723.0,0.0
1578129035501,7133380.0,7065360.0,0.0
1578129035559,7137915.0,7066851.0,0.0
1578129035602,7171559.0,7096179.0,0.0
1578129035658,7171478.0,7106328.0,0.0
1578129035704,7149998.0,7080964.0,0.0
1578129035756,7128888.0,7053101.0,0.0
1578129035806,7106503.0,7048720.0,0.0
1578129035855,7151490.0,7073021.0,0.0
1578129035909,7199012.0,7105574.0,0.0
1578129035952,7198136.0,7108733.0,0.0
1578129036003,7177203.0,7088719.0,0.0
1578129036051,7140066.0,7080576.0,0.0
1578129036093,7164450.0,7081542.0,0.0
1578129036144,7186424.0,7102362.0,0.0
1578129036195,7201767.0,7116179.0,0.0
1578129036246,7180546.0,7095467.0,0.0
1578129036294,7142944.0,7068841.0,0.0
1578129036342,7118092.0,7062873.0,0.0
1578129036398,7134065.0,7071731.0,0.0
1578129036446,7191465.0,7106139.0,0.0
1578129036498,7194724.0,7092711.0,0.0
1578129036546,7172957.0,7076301.0,0.0
1578129036596,7146710.0,7061677.0,0.0
1578129036645,7145218.0,7065334.0,0.0
1578129036695,7238712.0,7107308.0,0.0
1578129036743,7247123.0,7128315.0,0.0
1578129036791,7241137.0,7139390.0,0.0
1578129036843,7226631.0,7117159.0,0.0
1578129036890,7223876.0,7121084.0,0.0
1578129036942,7230343.0,7120775.0,0.0
1578129036985,7230451.0,7112213.0,0.0
1578129037041,7210124.0,7097952.0,0.0
1578129037085,7196465.0,7091125.0,0.0
1578129037140,7182724.0,7083114.0,0.0
1578129037185,7170806.0,7081529.0,0.0
1578129037232,7209275.0,7102698.0,0.0
1578129037286,7245220.0,7122630.0,0.0
1578129037338,7273769.0,7131232.0,0.0
1578129037388,7284987.0,7143424.0,0.0
1578129037427,7289016.0,7154485.0,0.0
1578129037477,7283564.0,7164174.0,0.0
1578129037528,7275426.0,7169523.0,0.0
1578129037579,7246481.0,7144525.0,0.0
1578129037629,7236000.0,7131447.0,0.0
1578129037678,7213752.0,7117106.0,0.0
1578129037728,7199300.0,7103289.0,0.0
1578129037782,7188288.0,7095467.0,0.0
1578129037825,7182163.0,7093854.0,0.0
1578129037881,7177506.0,7088048.0,0.0
1578129037927,7185683.0,7084350.0,0.0
1578129037980,7179081.0,7076489.0,0.0
1578129038028,7187505.0,7073115.0,0.0
1578129038069,7235492.0,7112107.0,0.0
1578129038124,7291768.0,7147254.0,0.0
1578129038172,7311510.0,7161339.0,0.0
1578129038222,7311591.0,7160667.0,0.0
1578129038271,7298769.0,7154832.0,0.0
1578129038325,7282439.0,7138045.0,0.0
1578129038373,7256467.0,7136111.0,0.0
1578129038424,7235657.0,7114539.0,0.0
1578129038467,7223534.0,7111218.0,0.0
1578129038524,7281769.0,7142858.0,0.0
1578129038565,7326976.0,7172992.0,0.0
1578129038623,7338564.0,7179684.0,0.0
1578129038666,7333688.0,7180437.0,0.0
1578129038721,7321976.0,7161527.0,0.0
1578129038767,7297235.0,7154243.0,0.0
1578129038820,7269440.0,7130870.0,0.0
1578129038866,7250919.0,7123168.0,0.0
1578129038918,7273110.0,7135560.0,0.0
1578129038970,7322907.0,7170692.0,0.0
1578129039017,7351921.0,7188139.0,0.0
1578129039067,7358852.0,7188610.0,0.0
1578129039115,7356032.0,7196983.0,0.0
1578129039160,7356194.0,7180640.0,0.0
1578129039209,7329920.0,7170262.0,0.0
1578129039265,7302523.0,7158880.0,0.0
1578129039307,7288110.0,7151420.0,0.0
1578129039364,7318291.0,7176472.0,0.0
1578129039406,7377688.0,7205801.0,0.0
1578129039463,7380361.0,7217615.0,0.0
1578129039507,7374771.0,7219791.0,0.0
1578129039561,7374375.0,7208368.0,0.0
1578129039607,7362210.0,7193232.0,0.0
1578129039660,7368332.0,7195276.0,0.0
1578129039708,7383456.0,7223554.0,0.0
1578129039760,7377964.0,7229630.0,0.0
1578129039810,7375854.0,7226271.0,0.0
1578129039856,7358579.0,7202601.0,0.0
1578129039910,7349139.0,7187412.0,0.0
1578129039951,7348182.0,7190559.0,0.0
1578129040007,7386291.0,7227143.0,0.0
1578129040050,7393196.0,7230249.0,0.0
1578129040105,7386798.0,7218084.0,0.0
1578129040150,7367825.0,7195437.0,0.0
1578129040204,7367318.0,7188153.0,0.0
1578129040254,7373115.0,7193824.0,0.0
1578129040304,7393841.0,7221202.0,0.0
1578129040352,7408251.0,7226660.0,0.0
1578129040400,7402045.0,7217306.0,0.0
1578129040450,7380361.0,7200369.0,0.0
1578129040496,7363497.0,7178529.0,0.0
1578129040552,7371716.0,7185021.0,0.0
1578129040593,7409115.0,7224254.0,0.0
1578129040650,7423842.0,7233231.0,0.0
1578129040692,7388292.0,7199120.0,0.0
1578129040748,7359729.0,7170613.0,0.0
1578129040791,7338633.0,7152951.0,0.0
1578129040848,7337511.0,7163408.0,0.0
1578129040895,7406606.0,7209684.0,0.0
1578129040947,7400896.0,7198502.0,0.0
1578129040990,7361853.0,7161298.0,0.0
1578129041046,7350825.0,7149565.0,0.0
1578129041089,7346867.0,7153569.0,0.0
1578129041136,7392992.0,7196082.0,0.0
1578129041189,7400620.0,7209778.0,0.0
1578129041244,7382345.0,7190598.0,0.0
1578129041292,7372278.0,7177090.0,0.0
1578129041343,7343524.0,7156702.0,0.0
1578129041391,7382402.0,7182616.0,0.0
1578129041441,7403086.0,7210046.0,0.0
1578129041491,7410786.0,7212896.0,0.0
1578129041540,7383428.0,7183582.0,0.0
1578129041588,7361895.0,7170048.0,0.0
1578129041636,7343798.0,7155088.0,0.0
1578129041689,7374114.0,7175841.0,0.0
1578129041731,7423143.0,7218151.0,0.0
1578129041789,7425060.0,7215516.0,0.0
1578129041830,7395704.0,7183582.0,0.0
1578129041888,7363936.0,7159887.0,0.0
1578129041929,7348920.0,7155948.0,0.0
1578129041986,7394387.0,7181580.0,0.0
1578129042029,7417607.0,7206540.0,0.0
1578129042086,7420910.0,7203272.0,0.0
1578129042129,7393526.0,7179133.0,0.0
1578129042185,7359744.0,7158503.0,0.0
1578129042233,7367155.0,7169564.0,0.0
1578129042274,7434513.0,7210626.0,0.0
1578129042329,7444046.0,7231417.0,0.0
1578129042372,7437457.0,7219361.0,0.0
1578129042423,7413718.0,7197171.0,0.0
1578129042473,7392785.0,7184000.0,0.0
1578129042530,7384484.0,7179901.0,0.0
1578129042572,7434621.0,7211230.0,0.0
1578129042629,7452061.0,7229307.0,0.0
1578129042670,7439800.0,7216405.0,0.0
1578129042728,7411074.0,7193126.0,0.0
1578129042770,7382318.0,7170922.0,0.0
1578129042827,7384155.0,7182360.0,0.0
1578129042870,7445307.0,7219953.0,0.0
1578129042927,7455362.0,7235881.0,0.0
1578129042969,7445225.0,7223300.0,0.0
1578129043024,7423320.0,7205182.0,0.0
1578129043071,7400704.0,7191419.0,0.0
1578129043124,7409100.0,7191472.0,0.0
1578129043168,7451911.0,7224940.0,0.0
1578129043214,7461664.0,7235395.0,0.0
1578129043266,7454404.0,7228205.0,0.0
1578129043313,7438471.0,7209563.0,0.0
1578129043365,7412593.0,7188327.0,0.0
1578129043414,7412745.0,7201511.0,0.0
1578129043470,7464265.0,7228959.0,0.0
1578129043513,7466786.0,7234456.0,0.0
1578129043568,7447116.0,7216070.0,0.0
1578129043612,7429828.0,7195976.0,0.0
1578129043667,7411812.0,7189873.0,0.0
1578129043708,7442486.0,7197613.0,0.0
1578129043765,7454321.0,7204926.0,0.0
1578129043809,7459596.0,7217615.0,0.0
1578129043864,7466582.0,7227964.0,0.0
1578129043914,7448265.0,7208527.0,0.0
1578129043962,7420649.0,7195585.0,0.0
1578129044012,7405553.0,7184444.0,0.0
1578129044055,7414798.0,7186646.0,0.0
1578129044104,7431965.0,7200719.0,0.0
1578129044154,7462048.0,7222709.0,0.0
1578129044204,7463938.0,7218084.0,0.0
1578129044253,7451992.0,7210343.0,0.0
1578129044303,7439635.0,7201149.0,0.0
1578129044352,7420785.0,7185948.0,0.0
1578129044402,7405127.0,7180599.0,0.0
1578129044452,7398060.0,7169040.0,0.0
1578129044501,7384251.0,7168246.0,0.0
1578129044550,7376196.0,7163529.0,0.0
1578129044600,7372196.0,7160196.0,0.0
1578129044651,7375360.0,7158032.0,0.0
1578129044698,7375005.0,7156339.0,0.0
1578129044751,7383854.0,7155385.0,0.0
1578129044798,7376566.0,7147751.0,0.0
1578129044847,7381469.0,7152359.0,0.0
1578129044896,7382087.0,7146433.0,0.0
1578129044946,7378633.0,7146297.0,0.0
1578129044994,7376731.0,7149147.0,0.0
1578129045043,7379921.0,7145102.0,0.0
1578129045099,7375414.0,7146124.0,0.0
1578129045147,7387881.0,7152857.0,0.0
1578129045195,7439608.0,7181662.0,0.0
1578129045250,7468772.0,7199038.0,0.0
1578129045291,7472142.0,7201176.0,0.0
1578129045345,7478444.0,7198461.0,0.0
1578129045395,7479611.0,7202963.0,0.0
1578129045445,7482075.0,7206499.0,0.0
1578129045496,7472391.0,7198205.0,0.0
1578129045545,7463227.0,7193877.0,0.0
1578129045593,7446033.0,7184456.0,0.0
1578129045644,7432704.0,7184362.0,0.0
1578129045692,7429964.0,7173689.0,0.0
1578129045740,7426102.0,7179672.0,0.0
1578129045791,7420100.0,7175047.0,0.0
1578129045840,7419020.0,7169886.0,0.0
1578129045887,7413307.0,7172211.0,0.0
1578129045933,7411963.0,7179510.0,0.0
1578129045991,7422006.0,7186393.0,0.0
1578129046035,7426363.0,7189214.0,0.0
1578129046091,7434429.0,7194430.0,0.0
1578129046134,7445198.0,7200154.0,0.0
1578129046188,7450444.0,7205598.0,0.0
1578129046237,7453526.0,7201567.0,0.0
1578129046280,7447827.0,7210841.0,0.0
1578129046338,7456430.0,7213314.0,0.0
1578129046384,7464349.0,7213220.0,0.0
1578129046433,7461856.0,7215478.0,0.0
1578129046483,7466348.0,7217627.0,0.0
1578129046532,7480802.0,7231432.0,0.0
1578129046583,7495584.0,7238581.0,0.0
1578129046629,7514692.0,7246727.0,0.0
1578129046679,7525885.0,7250475.0,0.0
1578129046728,7525405.0,7254670.0,0.0
1578129046777,7523940.0,7248246.0,0.0
1578129046828,7514596.0,7256551.0,0.0
1578129046875,7514651.0,7260046.0,0.0
1578129046933,7510528.0,7269735.0,0.0
1578129046972,7507076.0,7270972.0,0.0
1578129047027,7496130.0,7279009.0,0.0
1578129047079,7485624.0,7267854.0,0.0
1578129047126,7476583.0,7260140.0,0.0
1578129047178,7455416.0,7242196.0,0.0
1578129047225,7443470.0,7223810.0,0.0
1578129047275,7447923.0,7218460.0,0.0
1578129047324,7475896.0,7229401.0,0.0
1578129047372,7510212.0,7256095.0,0.0
1578129047421,7509570.0,7265678.0,0.0
1578129047467,7502678.0,7261698.0,0.0
1578129047520,7510830.0,7263862.0,0.0
1578129047567,7512802.0,7267168.0,0.0
1578129047618,7517597.0,7275247.0,0.0
1578129047669,7522707.0,7286752.0,0.0
1578129047712,7529486.0,7296227.0,0.0
1578129047770,7534803.0,7303110.0,0.0
1578129047817,7529009.0,7296012.0,0.0
1578129047867,7529774.0,7298364.0,0.0
1578129047915,7530473.0,7297263.0,0.0
1578129047966,7528406.0,7291684.0,0.0
1578129048015,7514227.0,7280637.0,0.0
1578129048065,7508733.0,7273648.0,0.0
1578129048114,7506308.0,7268042.0,0.0
1578129048158,7498212.0,7260879.0,0.0
1578129048215,7502131.0,7262775.0,0.0
1578129048255,7508871.0,7268163.0,0.0
1578129048307,7525459.0,7280502.0,0.0
1578129048357,7542816.0,7288445.0,0.0
1578129048406,7545228.0,7304735.0,0.0
1578129048456,7554707.0,7310367.0,0.0
1578129048507,7547817.0,7315501.0,0.0
1578129048555,7549021.0,7306160.0,0.0
1578129048610,7540598.0,7302544.0,0.0
1578129048657,7531283.0,7291657.0,0.0
1578129048707,7499104.0,7270972.0,0.0
1578129048757,7478294.0,7256283.0,0.0
1578129048806,7472295.0,7246565.0,0.0
1578129048857,7468568.0,7241015.0,0.0
1578129048903,7470198.0,7241216.0,0.0
1578129048955,7518692.0,7279145.0,0.0
1578129048998,7554062.0,7291309.0,0.0
1578129049055,7552022.0,7304614.0,0.0
1578129049094,7558665.0,7310529.0,0.0
1578129049153,7544268.0,7296403.0,0.0
1578129049196,7525870.0,7286134.0,0.0
1578129049250,7506062.0,7270409.0,0.0
1578129049293,7497912.0,7268137.0,0.0
1578129049348,7519185.0,7278606.0,0.0
1578129049393,7535884.0,7291792.0,0.0
1578129049449,7546872.0,7298741.0,0.0
1578129049496,7552817.0,7308056.0,0.0
1578129049541,7553501.0,7311147.0,0.0
1578129049598,7545186.0,7309708.0,0.0
1578129049645,7534062.0,7293809.0,0.0
1578129049697,7515911.0,7281753.0,0.0
1578129049745,7506912.0,7273015.0,0.0
1578129049795,7492652.0,7261874.0,0.0
1578129049841,7515241.0,7278756.0,0.0
1578129049894,7548736.0,7296214.0,0.0
1578129049937,7551022.0,7298028.0,0.0
1578129049995,7557339.0,7314427.0,0.0
1578129050034,7567037.0,7316134.0,0.0
1578129050093,7551145.0,7306295.0,0.0
1578129050134,7541063.0,7294601.0,0.0
1578129050188,7526734.0,7282048.0,0.0
1578129050240,7507788.0,7273324.0,0.0
1578129050291,7520706.0,7281255.0,0.0
1578129050340,7550503.0,7303204.0,0.0
1578129050388,7564051.0,7313417.0,0.0
1578129050438,7566857.0,7325285.0,0.0
1578129050485,7576201.0,7328161.0,0.0
1578129050537,7567364.0,7324358.0,0.0
1578129050579,7556817.0,7316320.0,0.0
1578129050636,7548928.0,7315516.0,0.0
1578129050676,7541174.0,7305703.0,0.0
1578129050728,7534131.0,7312719.0,0.0
1578129050775,7531118.0,7307317.0,0.0
1578129050835,7551734.0,7320071.0,0.0
1578129050876,7580873.0,7335757.0,0.0
1578129050934,7578887.0,7336134.0,0.0
1578129050976,7580859.0,7334788.0,0.0
1578129051030,7565996.0,7328405.0,0.0
1578129051079,7536733.0,7299803.0,0.0
1578129051131,7521405.0,7290650.0,0.0
1578129051172,7516952.0,7283446.0,0.0
1578129051226,7533954.0,7294092.0,0.0
1578129051278,7571133.0,7326065.0,0.0
1578129051328,7582995.0,7331376.0,0.0
1578129051368,7558638.0,7314560.0,0.0
1578129051420,7548556.0,7301658.0,0.0
1578129051468,7534419.0,7283917.0,0.0
1578129051516,7521390.0,7280973.0,0.0
1578129051567,7566050.0,7324022.0,0.0
1578129051616,7580120.0,7333781.0,0.0
1578129051675,7562188.0,7317194.0,0.0
1578129051715,7529993.0,7297209.0,0.0
1578129051773,7513993.0,7280584.0,0.0
1578129051819,7509666.0,7289696.0,0.0
1578129051868,7564721.0,7329936.0,0.0
1578129051917,7583817.0,7335312.0,0.0
1578129051970,7582695.0,7332153.0,0.0
1578129052018,7552667.0,7308203.0,0.0
1578129052066,7532007.0,7298929.0,0.0
1578129052118,7519214.0,7296618.0,0.0
1578129052161,7548612.0,7319494.0,0.0
1578129052217,7587202.0,7339384.0,0.0
1578129052260,7593942.0,7346415.0,0.0
1578129052315,7569297.0,7319629.0,0.0
1578129052357,7550941.0,7309372.0,0.0
1578129052415,7527707.0,7304278.0,0.0
1578129052456,7582926.0,7341106.0,0.0
1578129052514,7595133.0,7351684.0,0.0
1578129052558,7588502.0,7343915.0,0.0
1578129052611,7566269.0,7318793.0,0.0
1578129052659,7558818.0,7316079.0,0.0
1578129052710,7576228.0,7325246.0,0.0
1578129052759,7601954.0,7351187.0,0.0
1578129052809,7607532.0,7358121.0,0.0
1578129052858,7603655.0,7350622.0,0.0
1578129052906,7590833.0,7337974.0,0.0
1578129052958,7566707.0,7324184.0,0.0
1578129053000,7588516.0,7338148.0,0.0
1578129053056,7616078.0,7358915.0,0.0
1578129053098,7616420.0,7367477.0,0.0
1578129053155,7600804.0,7352262.0,0.0
1578129053196,7587145.0,7337356.0,0.0
1578129053255,7553078.0,7323727.0,0.0
1578129053296,7568886.0,7335890.0,0.0
1578129053354,7612393.0,7360540.0,0.0
1578129053399,7611970.0,7351629.0,0.0
1578129053451,7593174.0,7334641.0,0.0
1578129053502,7589558.0,7334588.0,0.0
1578129053547,7590530.0,7332059.0,0.0
1578129053599,7611655.0,7363402.0,0.0
1578129053648,7594203.0,7364236.0,0.0
1578129053699,7566572.0,7356857.0,0.0
1578129053747,7553090.0,7356012.0,0.0
1578129053798,7537981.0,7357852.0,0.0
1578129053841,7550173.0,7358874.0,0.0
1578129053896,7556406.0,7377905.0,0.0
1578129053940,7567899.0,7406278.0,0.0
1578129053995,7554980.0,7404155.0,0.0
1578129054038,7536172.0,7397716.0,0.0
1578129054095,7516322.0,7382503.0,0.0
1578129054140,7533762.0,7377180.0,0.0
1578129054193,7564201.0,7407905.0,0.0
1578129054240,7580832.0,7420606.0,0.0
1578129054291,7555310.0,7403201.0,0.0
1578129054340,7528076.0,7377127.0,0.0
1578129054389,7515953.0,7370232.0,0.0
1578129054439,7558035.0,7388442.0,0.0
1578129054487,7587367.0,7416184.0,0.0
1578129054538,7579160.0,7413549.0,0.0
1578129054581,7568324.0,7400807.0,0.0
1578129054637,7565174.0,7402112.0,0.0
1578129054679,7573324.0,7409881.0,0.0
1578129054730,7579091.0,7423833.0,0.0
1578129054778,7576681.0,7446076.0,0.0
1578129054835,7564585.0,7443241.0,0.0
1578129054880,7558473.0,7443712.0,0.0
1578129054937,7548297.0,7433737.0,0.0
1578129054982,7558884.0,7442366.0,0.0
1578129055035,7572940.0,7458630.0,0.0
1578129055082,7579460.0,7468630.0,0.0
1578129055132,7566161.0,7458683.0,0.0
1578129055175,7564913.0,7460202.0,0.0
1578129055228,7559817.0,7462407.0,0.0
1578129055279,7581105.0,7476989.0,0.0
1578129055328,7583529.0,7481667.0,0.0
1578129055378,7577954.0,7476451.0,0.0
1578129055419,7570857.0,7469396.0,0.0
1578129055479,7554407.0,7455900.0,0.0
1578129055521,7564790.0,7461344.0,0.0
1578129055577,7586326.0,7474086.0,0.0
1578129055619,7590626.0,7485241.0,0.0
1578129055675,7575214.0,7475699.0,0.0
1578129055722,7560763.0,7465539.0,0.0
1578129055776,7549789.0,7441062.0,0.0
1578129055824,7555872.0,7445228.0,0.0
1578129055873,7580859.0,7461088.0,0.0
1578129055923,7582392.0,7481829.0,0.0
1578129055971,7589051.0,7481614.0,0.0
1578129056021,7580024.0,7465901.0,0.0
1578129056069,7569969.0,7448443.0,0.0
1578129056120,7564187.0,7451667.0,0.0
1578129056165,7593024.0,7471492.0,0.0
1578129056219,7603886.0,7483737.0,0.0
1578129056260,7595079.0,7482285.0,0.0
1578129056318,7586860.0,7466532.0,0.0
1578129056360,7577201.0,7449933.0,0.0
1578129056418,7559076.0,7440673.0,0.0
1578129056459,7579010.0,7450524.0,0.0
1578129056507,7598080.0,7463440.0,0.0
1578129056559,7601558.0,7475726.0,0.0
1578129056606,7598119.0,7475431.0,0.0
1578129056663,7578983.0,7455203.0,0.0
1578129056716,7557132.0,7461721.0,0.0
1578129056764,7552625.0,7441990.0,0.0
1578129056814,7538515.0,7427299.0,0.0
1578129056862,7572763.0,7462931.0,0.0
1578129056909,7596408.0,7472123.0,0.0
1578129056961,7597489.0,7477931.0,0.0
1578129057009,7603625.0,7476021.0,0.0
1578129057059,7589009.0,7474610.0,0.0
1578129057108,7582380.0,7465525.0,0.0
1578129057158,7581051.0,7464880.0,0.0
1578129057201,7584571.0,7464947.0,0.0
1578129057257,7593804.0,7476559.0,0.0
1578129057301,7603490.0,7490794.0,0.0
1578129057356,7610080.0,7489825.0,0.0
1578129057403,7605750.0,7497863.0,0.0
1578129057456,7606230.0,7509018.0,0.0
1578129057503,7604886.0,7501237.0,0.0
1578129057555,7601092.0,7488536.0,0.0
1578129057603,7596216.0,7483763.0,0.0
1578129057653,7597476.0,7482365.0,0.0
1578129057702,7591406.0,7480887.0,0.0
1578129057751,7582338.0,7474531.0,0.0
1578129057800,7571433.0,7462501.0,0.0
1578129057843,7566476.0,7458724.0,0.0
1578129057891,7556324.0,7454973.0,0.0
1578129057943,7558734.0,7450822.0,0.0
1578129057990,7565339.0,7454381.0,0.0
1578129058043,7590995.0,7468280.0,0.0
1578129058092,7605612.0,7480713.0,0.0
1578129058141,7610626.0,7491801.0,0.0
1578129058191,7615217.0,7492864.0,0.0
1578129058243,7598188.0,7479300.0,0.0
1578129058296,7577120.0,7461842.0,0.0
1578129058345,7558488.0,7452742.0,0.0
1578129058387,7541624.0,7428764.0,0.0
1578129058445,7551899.0,7438427.0,0.0
1578129058492,7613422.0,7489731.0,0.0
1578129058542,7614572.0,7484179.0,0.0
1578129058591,7603133.0,7487541.0,0.0
1578129058641,7605888.0,7477702.0,0.0
1578129058685,7598668.0,7471734.0,0.0
1578129058734,7594668.0,7467768.0,0.0
1578129058784,7619340.0,7496102.0,0.0
1578129058840,7621435.0,7499759.0,0.0
1578129058883,7624819.0,7505470.0,0.0
1578129058938,7609737.0,7493158.0,0.0
1578129058985,7608174.0,7483036.0,0.0
1578129059038,7616066.0,7474475.0,0.0
1578129059086,7606491.0,7479300.0,0.0
1578129059136,7627682.0,7501048.0,0.0
1578129059183,7637161.0,7510025.0,0.0
1578129059235,7637203.0,7504181.0,0.0
1578129059284,7612612.0,7486278.0,0.0
1578129059332,7599598.0,7472016.0,0.0
1578129059384,7599394.0,7470026.0,0.0
1578129059426,7609435.0,7477863.0,0.0
1578129059483,7637272.0,7502029.0,0.0
1578129059530,7641272.0,7508185.0,0.0
1578129059582,7642998.0,7508574.0,0.0
1578129059625,7627175.0,7496452.0,0.0
1578129059681,7617174.0,7491074.0,0.0
1578129059724,7617120.0,7490229.0,0.0
1578129059780,7618845.0,7495779.0,0.0
1578129059824,7641902.0,7527687.0,0.0
1578129059879,7646244.0,7527283.0,0.0
1578129059925,7629600.0,7515389.0,0.0
1578129059976,7622092.0,7503804.0,0.0
1578129060023,7618695.0,7494436.0,0.0
1578129060067,7611628.0,7494689.0,0.0
1578129060117,7638641.0,7508641.0,0.0
1578129060166,7648738.0,7534514.0,0.0
1578129060216,7656492.0,7531611.0,0.0
1578129060266,7639394.0,7518990.0,0.0
1578129060314,7618203.0,7502285.0,0.0
1578129060367,7606395.0,7487635.0,0.0
1578129060423,7622887.0,7492808.0,0.0
1578129060464,7640162.0,7509475.0,0.0
1578129060521,7643916.0,7516908.0,0.0
1578129060565,7637243.0,7506398.0,0.0
1578129060621,7622572.0,7490953.0,0.0
1578129060665,7616888.0,7483763.0,0.0
1578129060720,7622845.0,7484879.0,0.0
1578129060765,7640654.0,7513764.0,0.0
1578129060819,7645668.0,7527928.0,0.0
1578129060866,7632408.0,7509233.0,0.0
1578129060917,7621777.0,7494503.0,0.0
1578129060969,7608654.0,7481196.0,0.0
1578129061017,7612585.0,7478373.0,0.0
1578129061066,7632339.0,7505765.0,0.0
1578129061114,7645683.0,7522729.0,0.0
1578129061166,7655958.0,7523129.0,0.0
1578129061214,7636039.0,7503130.0,0.0
1578129061265,7622107.0,7485295.0,0.0
1578129061306,7619832.0,7485833.0,0.0
1578129061363,7634628.0,7501881.0,0.0
1578129061413,7650806.0,7523427.0,0.0
1578129061456,7659862.0,7528440.0,0.0
1578129061506,7651079.0,7524233.0,0.0
1578129061561,7644327.0,7507755.0,0.0
1578129061606,7624066.0,7491209.0,0.0
1578129061661,7622626.0,7493144.0,0.0
1578129061705,7652984.0,7527136.0,0.0
1578129061759,7665410.0,7545469.0,0.0
1578129061806,7663409.0,7544327.0,0.0
1578129061856,7655547.0,7519205.0,0.0
1578129061907,7641449.0,7505509.0,0.0
1578129061950,7639478.0,7502835.0,0.0
1578129062006,7663148.0,7527271.0,0.0
1578129062053,7668738.0,7545549.0,0.0
1578129062105,7683424.0,7556274.0,0.0
1578129062146,7667985.0,7532486.0,0.0
1578129062204,7656354.0,7522782.0,0.0
1578129062246,7640957.0,7513104.0,0.0
1578129062303,7661725.0,7522163.0,0.0
1578129062347,7681287.0,7540832.0,0.0
1578129062402,7687054.0,7556451.0,0.0
1578129062447,7679862.0,7547136.0,0.0
1578129062500,7664999.0,7529341.0,0.0
1578129062546,7653545.0,7517029.0,0.0
1578129062600,7656054.0,7514462.0,0.0
1578129062650,7676258.0,7539528.0,0.0
1578129062697,7687313.0,7559607.0,0.0
1578129062748,7693356.0,7560549.0,0.0
1578129062795,7663025.0,7523117.0,0.0
1578129062847,7650286.0,7513037.0,0.0
1578129062889,7628654.0,7500725.0,0.0
1578129062939,7639889.0,7510201.0,0.0
1578129062992,7681191.0,7547633.0,0.0
1578129063039,7693053.0,7555859.0,0.0
1578129063090,7672342.0,7536598.0,0.0
1578129063138,7650299.0,7518710.0,0.0
1578129063189,7632312.0,7502956.0,0.0
1578129063234,7661464.0,7519299.0,0.0
1578129063291,7691313.0,7544165.0,0.0
1578129063337,7698368.0,7556424.0,0.0
1578129063391,7685053.0,7536422.0,0.0
1578129063433,7681668.0,7535335.0,0.0
1578129063490,7657026.0,7516705.0,0.0
1578129063532,7669779.0,7527257.0,0.0
1578129063585,7673752.0,7537096.0,0.0
1578129063630,7684915.0,7558506.0,0.0
1578129063687,7697356.0,7558279.0,0.0
1578129063730,7680546.0,7539931.0,0.0
1578129063777,7666230.0,7519649.0,0.0
1578129063829,7663958.0,7524098.0,0.0
1578129063879,7673629.0,7537659.0,0.0
1578129063929,7690916.0,7560790.0,0.0
1578129063977,7702067.0,7577336.0,0.0
1578129064030,7689149.0,7549299.0,0.0
1578129064077,7664120.0,7526020.0,0.0
1578129064130,7643859.0,7513331.0,0.0
1578129064174,7672246.0,7534031.0,0.0
1578129064233,7693068.0,7558156.0,0.0
1578129064278,7702217.0,7577430.0,0.0
1578129064329,7702779.0,7571086.0,0.0
1578129064376,7690272.0,7551893.0,0.0
1578129064429,7665915.0,7532459.0,0.0
1578129064471,7645668.0,7521183.0,0.0
1578129064529,7682793.0,7537997.0,0.0
1578129064569,7699588.0,7566678.0,0.0
1578129064627,7708492.0,7573612.0,0.0
1578129064669,7686080.0,7544757.0,0.0
1578129064725,7667094.0,7524516.0,0.0
1578129064770,7640108.0,7503683.0,0.0
1578129064824,7631943.0,7509528.0,0.0
1578129064869,7673299.0,7538250.0,0.0
1578129064922,7704342.0,7567176.0,0.0
1578129064972,7697080.0,7557269.0,0.0
1578129065013,7677518.0,7531411.0,0.0
1578129065068,7645806.0,7506692.0,0.0
1578129065114,7639805.0,7516490.0,0.0
1578129065165,7691628.0,7547082.0,0.0
1578129065213,7705575.0,7573049.0,0.0
1578129065265,7704480.0,7563935.0,0.0
1578129065312,7682478.0,7542834.0,0.0
1578129065363,7650983.0,7519084.0,0.0
1578129065412,7642395.0,7515092.0,0.0
1578129065463,7688588.0,7536369.0,0.0
1578129065511,7713341.0,7564862.0,0.0
1578129065561,7712465.0,7564609.0,0.0
1578129065610,7683067.0,7535644.0,0.0
1578129065660,7665806.0,7514824.0,0.0
1578129065710,7633819.0,7513723.0,0.0
1578129065759,7658532.0,7515121.0,0.0
1578129065809,7692519.0,7544192.0,0.0
1578129065858,7703396.0,7552217.0,0.0
1578129065909,7659025.0,7521316.0,0.0
1578129065956,7630065.0,7493897.0,0.0
1578129066008,7611532.0,7491115.0,0.0
1578129066054,7616777.0,7480563.0,0.0
1578129066106,7675163.0,7532942.0,0.0
1578129066154,7692669.0,7557714.0,0.0
1578129066204,7688753.0,7548572.0,0.0
1578129066252,7649888.0,7518118.0,0.0
1578129066302,7628243.0,7499449.0,0.0
1578129066349,7625942.0,7500336.0,0.0
1578129066400,7694067.0,7546785.0,0.0
1578129066451,7716753.0,7572994.0,0.0
1578129066501,7725452.0,7571018.0,0.0
1578129066550,7702862.0,7546517.0,0.0
1578129066600,7693971.0,7545092.0,0.0
1578129066648,7692573.0,7547768.0,0.0
1578129066698,7706505.0,7558197.0,0.0
1578129066749,7729971.0,7580507.0,0.0
1578129066796,7740465.0,7595884.0,0.0
1578129066847,7733521.0,7574916.0,0.0
1578129066896,7698985.0,7544757.0,0.0
1578129066946,7663862.0,7533575.0,0.0
1578129066991,7662779.0,7532836.0,0.0
1578129067042,7714877.0,7562848.0,0.0
1578129067090,7733878.0,7575267.0,0.0
1578129067142,7695808.0,7546223.0,0.0
1578129067192,7674340.0,7524286.0,0.0
1578129067242,7645860.0,7511088.0,0.0
1578129067290,7651286.0,7518130.0,0.0
1578129067341,7710643.0,7560737.0,0.0
1578129067389,7724603.0,7577846.0,0.0
1578129067439,7735753.0,7585144.0,0.0
1578129067492,7710328.0,7557619.0,0.0
1578129067538,7685806.0,7538816.0,0.0
1578129067591,7683163.0,7535886.0,0.0
1578129067637,7704507.0,7565698.0,0.0
1578129067688,7739424.0,7594070.0,0.0
1578129067736,7744315.0,7598437.0,0.0
1578129067786,7738040.0,7578587.0,0.0
1578129067834,7718889.0,7564191.0,0.0
1578129067885,7709725.0,7556356.0,0.0
1578129067931,7717629.0,7564191.0,0.0
1578129067984,7734001.0,7581126.0,0.0
1578129068032,7752548.0,7600280.0,0.0
1578129068081,7751960.0,7599055.0,0.0
1578129068129,7741890.0,7577713.0,0.0
1578129068180,7730835.0,7576665.0,0.0
1578129068229,7710793.0,7562203.0,0.0
1578129068279,7732315.0,7576503.0,0.0
1578129068331,7762958.0,7605803.0,0.0
1578129068378,7762808.0,7595507.0,0.0
1578129068432,7721368.0,7565536.0,0.0
1578129068477,7697260.0,7542499.0,0.0
1578129068528,7670326.0,7526868.0,0.0
1578129068576,7664684.0,7527027.0,0.0
1578129068626,7651012.0,7515590.0,0.0
1578129068674,7674779.0,7508426.0,0.0
1578129068725,7678190.0,7502915.0,0.0
1578129068773,7665245.0,7500604.0,0.0
1578129068825,7694148.0,7530993.0,0.0
1578129068873,7692219.0,7525603.0,0.0
1578129068922,7687820.0,7524098.0,0.0
1578129068970,7695012.0,7509059.0,0.0
1578129069022,7713890.0,7529232.0,0.0
1578129069070,7733152.0,7540441.0,0.0
1578129069120,7738658.0,7540873.0,0.0
1578129069172,7741944.0,7550925.0,0.0
1578129069218,7736465.0,7556127.0,0.0
1578129069268,7730670.0,7543870.0,0.0
1578129069318,7724452.0,7533681.0,0.0
1578129069368,7704246.0,7527068.0,0.0
1578129069416,7717479.0,7518951.0,0.0
1578129069466,7732972.0,7532176.0,0.0
1578129069514,7727603.0,7543735.0,0.0
1578129069565,7728164.0,7567591.0,0.0
1578129069613,7727438.0,7574607.0,0.0
1578129069666,7708327.0,7562418.0,0.0
1578129069713,7671931.0,7540132.0,0.0
1578129069762,7654737.0,7527431.0,0.0
1578129069810,7663766.0,7538586.0,0.0
1578129069862,7687643.0,7567485.0,0.0
1578129069912,7721944.0,7597321.0,0.0
1578129069960,7742781.0,7615963.0,0.0
1578129070012,7738355.0,7606315.0,0.0
1578129070058,7717863.0,7589151.0,0.0
1578129070108,7688150.0,7556330.0,0.0
1578129070157,7672327.0,7543291.0,0.0
1578129070208,7710904.0,7566166.0,0.0
1578129070257,7742589.0,7593585.0,0.0
1578129070306,7747261.0,7595307.0,0.0
1578129070355,7739012.0,7586731.0,0.0
1578129070406,7719027.0,7567149.0,0.0
1578129070454,7686835.0,7543641.0,0.0
1578129070505,7689299.0,7541356.0,0.0
1578129070554,7720411.0,7564312.0,0.0
1578129070601,7743960.0,7586905.0,0.0
1578129070650,7746973.0,7584420.0,0.0
1578129070700,7726505.0,7566664.0,0.0
1578129070752,7713026.0,7550630.0,0.0
1578129070800,7706532.0,7539811.0,0.0
1578129070849,7709164.0,7551154.0,0.0
1578129070897,7747891.0,7582512.0,0.0
1578129070949,7746781.0,7577269.0,0.0
1578129070997,7720972.0,7551652.0,0.0
1578129071048,7684669.0,7523762.0,0.0
1578129071094,7669641.0,7521168.0,0.0
1578129071144,7658163.0,7523468.0,0.0
1578129071195,7704480.0,7554246.0,0.0
1578129071246,7734301.0,7587255.0,0.0
1578129071294,7716876.0,7576691.0,0.0
1578129071345,7677641.0,7543735.0,0.0
1578129071395,7658163.0,7528520.0,0.0
1578129071442,7678848.0,7534541.0,0.0
1578129071494,7720615.0,7566893.0,0.0
1578129071542,7742328.0,7590361.0,0.0
1578129071594,7743684.0,7589501.0,0.0
1578129071640,7708260.0,7557846.0,0.0
1578129071689,7701122.0,7554178.0,0.0
1578129071739,7688984.0,7547027.0,0.0
1578129071789,7701575.0,7552741.0,0.0
1578129071838,7733809.0,7585265.0,0.0
1578129071888,7753782.0,7598640.0,0.0
1578129071936,7747246.0,7586557.0,0.0
1578129071986,7706286.0,7546812.0,0.0
1578129072036,7683874.0,7535053.0,0.0
1578129072086,7657737.0,7526047.0,0.0
1578129072136,7667244.0,7540349.0,0.0
1578129072184,7742793.0,7597483.0,0.0
1578129072234,7750535.0,7589996.0,0.0
1578129072282,7701233.0,7548022.0,0.0
1578129072334,7674752.0,7527083.0,0.0
1578129072382,7657902.0,7510832.0,0.0
1578129072431,7650080.0,7522081.0,0.0
1578129072480,7732740.0,7592027.0,0.0
1578129072529,7747987.0,7614418.0,0.0
1578129072579,7718739.0,7586905.0,0.0
1578129072629,7686998.0,7552202.0,0.0
1578129072678,7651313.0,7520067.0,0.0
1578129072728,7637902.0,7507163.0,0.0
1578129072777,7717821.0,7588330.0,0.0
1578129072827,7753124.0,7613384.0,0.0
1578129072876,7753479.0,7611300.0,0.0
1578129072926,7717986.0,7574354.0,0.0
1578129072977,7666971.0,7529595.0,0.0
1578129073025,7649587.0,7509999.0,0.0
1578129073076,7688753.0,7550913.0,0.0
1578129073125,7743561.0,7589487.0,0.0
1578129073175,7755480.0,7596797.0,0.0
1578129073222,7742151.0,7600736.0,0.0
1578129073271,7714094.0,7591477.0,0.0
1578129073321,7681080.0,7575093.0,0.0
1578129073370,7672531.0,7566502.0,0.0
1578129073419,7725629.0,7597027.0,0.0
1578129073469,7761878.0,7617833.0,0.0
1578129073518,7764398.0,7621395.0,0.0
1578129073568,7726082.0,7582471.0,0.0
1578129073617,7702274.0,7567874.0,0.0
1578129073667,7672561.0,7535804.0,0.0
1578129073717,7680519.0,7552135.0,0.0
1578129073767,7766109.0,7620426.0,0.0
1578129073816,7770439.0,7603303.0,0.0
1578129073865,7738604.0,7572458.0,0.0
1578129073915,7710382.0,7547848.0,0.0
1578129073964,7688972.0,7535577.0,0.0
1578129074014,7738328.0,7580872.0,0.0
1578129074062,7766151.0,7607254.0,0.0
1578129074111,7778028.0,7613761.0,0.0
1578129074161,7745521.0,7583881.0,0.0
1578129074210,7726247.0,7572175.0,0.0
1578129074259,7719603.0,7572620.0,0.0
1578129074309,7744219.0,7597712.0,0.0
1578129074358,7782577.0,7623827.0,0.0
1578129074409,7789932.0,7632120.0,0.0
1578129074458,7785700.0,7618948.0,0.0
1578129074507,7784356.0,7617120.0,0.0
1578129074556,7753056.0,7594230.0,0.0
1578129074607,7754343.0,7602417.0,0.0
1578129074657,7782043.0,7626353.0,0.0
1578129074705,7774796.0,7622670.0,0.0
1578129074756,7751027.0,7593049.0,0.0
1578129074805,7723438.0,7579862.0,0.0
1578129074853,7702862.0,7582980.0,0.0
1578129074903,7718301.0,7597497.0,0.0
1578129074952,7777836.0,7650816.0,0.0
1578129075002,7812263.0,7690128.0,0.0
1578129075051,7833947.0,7683059.0,0.0
1578129075100,7819030.0,7662239.0,0.0
1578129075150,7820140.0,7665209.0,0.0
1578129075199,7807510.0,7657696.0,0.0
1578129075249,7819987.0,7678973.0,0.0
1578129075299,7842550.0,7693973.0,0.0
1578129075348,7852440.0,7694645.0,0.0
1578129075397,7829523.0,7683180.0,0.0
1578129075447,7808413.0,7663234.0,0.0
1578129075497,7775618.0,7641689.0,0.0
1578129075547,7784260.0,7662751.0,0.0
1578129075597,7811495.0,7681152.0,0.0
1578129075642,7828386.0,7696111.0,0.0
1578129075691,7804290.0,7670547.0,0.0
1578129075744,7785905.0,7653612.0,0.0
1578129075792,7743123.0,7623665.0,0.0
1578129075843,7739699.0,7619996.0,0.0
1578129075891,7786685.0,7643181.0,0.0
1578129075941,7804770.0,7662939.0,0.0
1578129075990,7796290.0,7644969.0,0.0
1578129076040,7756056.0,7614082.0,0.0
1578129076089,7724960.0,7595643.0,0.0
1578129076139,7702944.0,7582229.0,0.0
1578129076187,7725191.0,7604593.0,0.0
1578129076235,7795126.0,7650601.0,0.0
1578129076287,7808905.0,7652429.0,0.0
1578129076336,7782439.0,7630978.0,0.0
1578129076385,7772411.0,7620494.0,0.0
1578129076436,7746700.0,7599017.0,0.0
1578129076485,7763507.0,7605656.0,0.0
1578129076534,7800398.0,7639834.0,0.0
1578129076585,7822222.0,7652199.0,0.0
1578129076632,7816194.0,7648451.0,0.0
1578129076683,7808302.0,7636422.0,0.0
1578129076730,7799480.0,7628705.0,0.0
1578129076781,7788768.0,7623155.0,0.0
1578129076831,7806220.0,7638530.0,0.0
1578129076881,7819111.0,7646258.0,0.0
1578129076930,7818907.0,7655897.0,0.0
1578129076979,7808344.0,7639808.0,0.0
1578129077028,7788302.0,7626394.0,0.0
1578129077079,7769740.0,7617497.0,0.0
1578129077125,7788590.0,7627027.0,0.0
1578129077178,7814126.0,7657737.0,0.0
1578129077225,7818016.0,7656851.0,0.0
1578129077278,7798592.0,7650144.0,0.0
1578129077325,7778193.0,7625938.0,0.0
1578129077375,7745755.0,7606812.0,0.0
1578129077425,7726631.0,7593641.0,0.0
1578129077473,7745425.0,7603760.0,0.0
1578129077524,7786838.0,7641798.0,0.0
1578129077572,7793728.0,7649835.0,0.0
1578129077622,7799261.0,7654728.0,0.0
1578129077671,7766931.0,7624554.0,0.0
1578129077722,7749536.0,7611797.0,0.0
1578129077770,7738958.0,7597174.0,0.0
1578129077821,7741371.0,7604634.0,0.0
1578129077870,7754712.0,7621999.0,0.0
1578129077920,7777289.0,7635344.0,0.0
1578129077970,7784194.0,7650465.0,0.0
1578129078022,7786754.0,7648772.0,0.0
1578129078069,7786466.0,7654540.0,0.0
1578129078121,7783945.0,7646137.0,0.0
1578129078167,7777796.0,7642805.0,0.0
1578129078220,7756164.0,7623141.0,0.0
1578129078267,7735726.0,7602994.0,0.0
1578129078316,7727795.0,7594070.0,0.0
1578129078366,7721560.0,7597106.0,0.0
1578129078414,7746766.0,7621772.0,0.0
1578129078465,7780851.0,7632818.0,0.0
1578129078513,7797385.0,7646529.0,0.0
1578129078565,7795426.0,7641447.0,0.0
1578129078612,7787687.0,7637941.0,0.0
1578129078660,7803825.0,7641621.0,0.0
1578129078711,7797550.0,7639981.0,0.0
1578129078761,7800371.0,7641703.0,0.0
1578129078810,7783783.0,7641636.0,0.0
1578129078858,7782892.0,7644580.0,0.0
1578129078909,7789097.0,7649323.0,0.0
1578129078959,7811426.0,7666204.0,0.0
1578129079008,7817523.0,7668342.0,0.0
1578129079059,7820302.0,7676191.0,0.0
1578129079107,7820920.0,7671636.0,0.0
1578129079156,7814537.0,7672225.0,0.0
1578129079206,7812563.0,7673368.0,0.0
1578129079254,7801796.0,7652550.0,0.0
1578129079304,7805686.0,7659524.0,0.0
1578129079352,7794043.0,7650197.0,0.0
1578129079405,7796797.0,7653571.0,0.0
1578129079452,7784425.0,7642469.0,0.0
1578129079503,7764836.0,7634378.0,0.0
1578129079552,7752918.0,7628652.0,0.0
1578129079602,7749863.0,7622564.0,0.0
1578129079651,7749316.0,7621219.0,0.0
1578129079701,7742616.0,7626112.0,0.0
1578129079750,7735027.0,7615050.0,0.0
1578129079800,7722820.0,7613584.0,0.0
1578129079847,7734793.0,7614418.0,0.0
1578129079901,7736548.0,7618560.0,0.0
1578129079948,7762958.0,7643370.0,0.0
1578129079997,7790439.0,7662671.0,0.0
1578129080047,7799399.0,7658194.0,0.0
1578129080096,7790685.0,7642174.0,0.0
1578129080145,7789577.0,7628746.0,0.0
1578129080195,7790961.0,7624619.0,0.0
1578129080245,7769124.0,7632282.0,0.0
1578129080293,7805139.0,7670950.0,0.0
1578129080345,7820455.0,7668665.0,0.0
1578129080393,7831960.0,7675372.0,0.0
1578129080442,7830715.0,7667738.0,0.0
1578129080491,7810139.0,7646017.0,0.0
1578129080540,7791084.0,7641165.0,0.0
1578129080589,7779480.0,7633168.0,0.0
1578129080640,7797331.0,7653948.0,0.0
1578129080686,7823990.0,7671218.0,0.0
1578129080736,7822604.0,7671689.0,0.0
1578129080788,7819783.0,7666446.0,0.0
1578129080837,7797179.0,7645978.0,0.0
1578129080887,7782097.0,7638895.0,0.0
1578129080934,7769097.0,7632403.0,0.0
1578129080986,7799069.0,7650895.0,0.0
1578129081035,7825824.0,7674860.0,0.0
1578129081085,7826907.0,7671878.0,0.0
1578129081133,7806153.0,7661918.0,0.0
1578129081185,7792755.0,7648316.0,0.0
1578129081233,7772563.0,7633625.0,0.0
1578129081280,7756371.0,7623544.0,0.0
1578129081331,7774139.0,7643988.0,0.0
1578129081384,7802577.0,7667712.0,0.0
1578129081430,7803768.0,7667294.0,0.0
1578129081483,7800425.0,7658061.0,0.0
1578129081529,7800152.0,7647509.0,0.0
1578129081579,7787672.0,7642925.0,0.0
1578129081629,7794919.0,7645292.0,0.0
1578129081678,7819180.0,7660063.0,0.0
1578129081727,7813220.0,7668772.0,0.0
1578129081777,7806097.0,7674148.0,0.0
1578129081826,7807222.0,7664028.0,0.0
1578129081876,7792701.0,7661824.0,0.0
1578129081925,7786208.0,7646567.0,0.0
1578129081974,7777344.0,7633840.0,0.0
1578129082026,7786727.0,7639404.0,0.0
1578129082073,7805344.0,7668168.0,0.0
1578129082127,7796167.0,7665330.0,0.0
1578129082172,7760344.0,7637912.0,0.0
1578129082225,7726904.0,7608827.0,0.0
1578129082271,7713149.0,7600966.0,0.0
1578129082323,7721548.0,7602093.0,0.0
1578129082370,7753440.0,7630009.0,0.0
1578129082420,7787534.0,7641798.0,0.0
1578129082469,7795069.0,7643061.0,0.0
1578129082519,7778331.0,7639324.0,0.0
1578129082568,7771411.0,7634567.0,0.0
1578129082618,7768315.0,7633828.0,0.0
1578129082667,7801235.0,7653745.0,0.0
1578129082716,7813112.0,7669767.0,0.0
1578129082767,7813070.0,7669284.0,0.0
1578129082815,7810508.0,7660413.0,0.0
1578129082866,7805604.0,7653892.0,0.0
1578129082914,7785920.0,7643705.0,0.0
1578129082966,7776713.0,7637267.0,0.0
1578129083013,7799468.0,7646770.0,0.0
1578129083066,7810180.0,7668127.0,0.0
1578129083111,7816974.0,7668059.0,0.0
1578129083163,7811111.0,7664055.0,0.0
1578129083211,7797508.0,7649202.0,0.0
1578129083260,7777467.0,7640064.0,0.0
1578129083310,7764206.0,7627092.0,0.0
1578129083360,7799549.0,7647524.0,0.0
1578129083409,7819180.0,7673382.0,0.0
1578129083458,7832605.0,7674551.0,0.0
1578129083508,7819003.0,7676836.0,0.0
1578129083557,7804071.0,7666876.0,0.0
1578129083607,7797590.0,7663248.0,0.0
1578129083656,7821331.0,7687402.0,0.0
1578129083708,7835236.0,7693355.0,0.0
1578129083754,7834481.0,7686298.0,0.0
1578129083805,7832743.0,7685733.0,0.0
1578129083853,7838126.0,7686554.0,0.0
1578129083905,7842742.0,7696862.0,0.0
1578129083952,7855633.0,7707843.0,0.0
1578129084004,7864743.0,7716728.0,0.0
1578129084051,7867470.0,7709430.0,0.0
1578129084101,7851620.0,7696405.0,0.0
1578129084150,7826604.0,7686904.0,0.0
1578129084198,7819207.0,7665292.0,0.0
1578129084247,7831852.0,7695787.0,0.0
1578129084298,7860785.0,7718718.0,0.0
1578129084347,7874621.0,7722991.0,0.0
1578129084397,7855852.0,7706203.0,0.0
1578129084447,7844839.0,7704619.0,0.0
1578129084497,7825166.0,7697280.0,0.0
1578129084547,7834510.0,7712427.0,0.0
1578129084595,7859456.0,7734979.0,0.0
1578129084647,7871222.0,7746096.0,0.0
1578129084694,7877457.0,7739363.0,0.0
1578129084744,7868497.0,7726137.0,0.0
1578129084793,7855345.0,7720894.0,0.0
1578129084844,7839852.0,7717078.0,0.0
1578129084889,7856443.0,7731149.0,0.0
1578129084941,7872758.0,7744577.0,0.0
1578129084991,7877058.0,7737278.0,0.0
1578129085041,7858771.0,7720694.0,0.0
1578129085089,7838249.0,7720788.0,0.0
1578129085140,7808728.0,7713893.0,0.0
1578129085190,7834619.0,7727601.0,0.0
1578129085238,7854523.0,7754522.0,0.0
1578129085290,7869496.0,7763407.0,0.0
1578129085337,7830838.0,7733945.0,0.0
1578129085390,7808713.0,7722669.0,0.0
1578129085437,7805124.0,7718919.0,0.0
1578129085486,7824113.0,7731593.0,0.0
1578129085535,7864728.0,7768851.0,0.0
1578129085587,7890537.0,7779091.0,0.0
1578129085631,7889841.0,7763811.0,0.0
1578129085685,7878564.0,7745236.0,0.0
1578129085730,7876320.0,7744845.0,0.0
1578129085782,7872086.0,7749134.0,0.0
1578129085830,7894291.0,7767841.0,0.0
1578129085883,7896580.0,7756674.0,0.0
1578129085930,7896689.0,7759724.0,0.0
1578129085981,7887428.0,7743758.0,0.0
1578129086030,7874126.0,7740758.0,0.0
1578129086080,7870318.0,7752844.0,0.0
1578129086128,7892689.0,7767358.0,0.0
1578129086179,7894498.0,7766928.0,0.0
1578129086230,7894018.0,7763852.0,0.0
1578129086277,7880073.0,7745504.0,0.0
1578129086329,7873208.0,7740935.0,0.0
1578129086377,7845824.0,7735073.0,0.0
1578129086429,7877223.0,7748610.0,0.0
1578129086476,7877304.0,7766996.0,0.0
1578129086529,7867264.0,7762842.0,0.0
1578129086574,7829523.0,7733071.0,0.0
1578129086630,7804194.0,7712024.0,0.0
1578129086673,7796110.0,7713072.0,0.0
1578129086725,7853880.0,7744900.0,0.0
1578129086772,7872620.0,7747494.0,0.0
1578129086823,7868236.0,7747963.0,0.0
1578129086872,7858742.0,7735223.0,0.0
1578129086921,7847017.0,7727884.0,0.0
1578129086967,7858867.0,7717991.0,0.0
1578129087021,7855771.0,7720076.0,0.0
1578129087069,7838702.0,7723220.0,0.0
1578129087119,7813673.0,7715881.0,0.0
1578129087170,7801878.0,7717305.0,0.0
1578129087224,7796317.0,7721984.0,0.0
1578129087268,7789179.0,7743973.0,0.0
1578129087323,7804413.0,7765639.0,0.0
1578129087371,7808755.0,7776444.0,0.0
1578129087420,7795507.0,7779158.0,0.0
1578129087471,7800425.0,7786109.0,0.0
1578129087518,7793604.0,7782426.0,0.0
1578129087567,7800932.0,7784481.0,0.0
1578129087617,7798412.0,7793649.0,0.0
1578129087662,7800644.0,7811282.0,0.0
1578129087709,7815921.0,7827922.0,0.0
1578129087759,7817755.0,7829641.0,0.0
1578129087809,7817947.0,7802464.0,0.0
1578129087869,7787522.0,7777560.0,0.0
1578129087910,7765686.0,7747777.0,0.0
1578129087966,7786247.0,7749885.0,0.0
1578129088008,7823441.0,7771230.0,0.0
1578129088066,7826742.0,7790181.0,0.0
1578129088107,7823537.0,7781255.0,0.0
1578129088163,7812398.0,7759388.0,0.0
1578129088213,7781083.0,7734160.0,0.0
1578129088263,7775657.0,7733248.0,0.0
1578129088312,7830139.0,7777695.0,0.0
1578129088363,7841208.0,7800206.0,0.0
1578129088411,7849127.0,7796967.0,0.0
1578129088458,7828236.0,7784387.0,0.0
1578129088507,7815180.0,7774348.0,0.0
1578129088557,7788164.0,7742427.0,0.0
1578129088608,7793521.0,7749912.0,0.0
1578129088657,7830646.0,7780987.0,0.0
1578129088701,7841385.0,7794011.0,0.0
1578129088750,7843756.0,7803821.0,0.0
1578129088803,7830208.0,7780436.0,0.0
1578129088852,7821139.0,7776591.0,0.0
1578129088901,7792167.0,7757884.0,0.0
1578129088955,7775138.0,7740128.0,0.0
1578129089008,7777521.0,7740626.0,0.0
1578129089047,7826276.0,7767626.0,0.0
1578129089104,7832797.0,7785088.0,0.0
1578129089150,7838003.0,7792734.0,0.0
1578129089196,7829892.0,7787505.0,0.0
1578129089247,7818688.0,7769428.0,0.0
1578129089300,7799234.0,7759456.0,0.0
1578129089347,7777070.0,7738756.0,0.0
1578129089401,7804359.0,7761149.0,0.0
1578129089447,7839510.0,7785194.0,0.0
1578129089497,7840578.0,7791700.0,0.0
1578129089546,7810208.0,7763542.0,0.0
1578129089597,7800932.0,7753756.0,0.0
1578129089649,7763054.0,7730451.0,0.0
1578129089697,7758301.0,7732023.0,0.0
1578129089747,7834126.0,7767399.0,0.0
1578129089790,7843360.0,7784334.0,0.0
1578129089847,7834880.0,7775410.0,0.0
1578129089888,7806208.0,7751015.0,0.0
1578129089945,7778385.0,7728434.0,0.0
1578129089992,7756398.0,7721124.0,0.0
1578129090035,7795084.0,7743340.0,0.0
1578129090090,7827549.0,7775343.0,0.0
1578129090142,7844140.0,7788273.0,0.0
1578129090190,7835963.0,7774092.0,0.0
1578129090242,7826112.0,7767264.0,0.0
1578129090288,7785740.0,7737534.0,0.0
1578129090332,7771207.0,7734994.0,0.0
1578129090388,7822660.0,7766672.0,0.0
1578129090436,7846606.0,7792613.0,0.0
1578129090487,7857292.0,7798419.0,0.0
1578129090536,7837070.0,7775973.0,0.0
1578129090588,7816455.0,7763233.0,0.0
1578129090629,7790877.0,7740947.0,0.0
1578129090686,7788083.0,7749508.0,0.0
1578129090731,7825373.0,7772225.0,0.0
1578129090787,7846195.0,7786109.0,0.0
1578129090838,7855729.0,7796646.0,0.0
1578129090886,7849634.0,7785800.0,0.0
1578129090937,7840182.0,7771486.0,0.0
1578129090985,7809824.0,7752452.0,0.0
1578129091032,7815057.0,7758567.0,0.0
1578129091083,7847495.0,7787090.0,0.0
1578129091126,7860551.0,7799184.0,0.0
1578129091181,7867936.0,7810516.0,0.0
1578129091228,7863975.0,7794105.0,0.0
1578129091277,7840209.0,7782989.0,0.0
1578129091326,7813289.0,7761753.0,0.0
1578129091370,7809304.0,7764067.0,0.0
1578129091420,7862414.0,7799308.0,0.0
1578129091470,7875126.0,7807062.0,0.0
1578129091522,7868017.0,7808178.0,0.0
1578129091572,7861331.0,7792760.0,0.0
1578129091622,7845166.0,7785771.0,0.0
1578129091671,7830331.0,7761714.0,0.0
1578129091722,7849949.0,7779482.0,0.0
1578129091777,7871689.0,7803486.0,0.0
1578129091823,7875552.0,7814332.0,0.0
1578129091872,7870648.0,7799870.0,0.0
1578129091922,7850072.0,7786201.0,0.0
1578129091970,7834481.0,7761767.0,0.0
1578129092021,7817878.0,7747627.0,0.0
1578129092070,7858771.0,7772225.0,0.0
1578129092118,7873181.0,7797276.0,0.0
1578129092166,7875744.0,7812103.0,0.0
1578129092219,7847180.0,7774604.0,0.0
1578129092267,7845523.0,7765409.0,0.0
1578129092316,7837824.0,7759644.0,0.0
1578129092369,7850153.0,7772331.0,0.0
1578129092413,7865400.0,7796552.0,0.0
1578129092467,7878441.0,7812854.0,0.0
1578129092517,7875936.0,7806121.0,0.0
1578129092565,7860236.0,7781752.0,0.0
1578129092616,7842400.0,7768851.0,0.0
1578129092664,7824248.0,7747158.0,0.0
1578129092712,7835798.0,7761888.0,0.0
1578129092763,7839030.0,7755343.0,0.0
1578129092811,7833934.0,7739039.0,0.0
1578129092862,7851153.0,7783460.0,0.0
1578129092910,7868443.0,7797385.0,0.0
1578129092957,7845373.0,7781443.0,0.0
1578129093008,7826865.0,7761202.0,0.0
1578129093057,7793028.0,7728193.0,0.0
1578129093106,7795111.0,7724027.0,0.0
1578129093157,7792110.0,7721607.0,0.0
1578129093204,7847291.0,7789724.0,0.0
1578129093250,7884155.0,7835111.0,0.0
1578129093308,7878057.0,7820408.0,0.0
1578129093353,7878633.0,7813446.0,0.0
1578129093407,7856155.0,7794912.0,0.0
1578129093454,7872977.0,7802855.0,0.0
1578129093505,7881592.0,7828016.0,0.0
1578129093555,7893292.0,7854089.0,0.0
1578129093606,7897004.0,7846873.0,0.0
1578129093655,7886675.0,7830259.0,0.0
1578129093703,7867948.0,7811497.0,0.0
1578129093751,7852059.0,7798904.0,0.0
1578129093800,7870852.0,7816027.0,0.0
1578129093852,7896512.0,7835353.0,0.0
1578129093898,7897811.0,7838512.0,0.0
1578129093949,7860251.0,7805664.0,0.0
1578129093993,7840029.0,7789106.0,0.0
1578129094047,7813892.0,7766982.0,0.0
1578129094092,7820851.0,7780919.0,0.0
1578129094144,7868347.0,7818689.0,0.0
1578129094193,7866552.0,7836819.0,0.0
1578129094241,7858523.0,7832370.0,0.0
1578129094290,7829508.0,7794765.0,0.0
1578129094340,7801523.0,7776391.0,0.0
1578129094389,7777851.0,7765692.0,0.0
1578129094439,7805892.0,7792693.0,0.0
1578129094487,7847756.0,7821268.0,0.0
1578129094537,7848728.0,7817208.0,0.0
1578129094588,7825508.0,7784764.0,0.0
1578129094641,7793646.0,7763743.0,0.0
1578129094693,7779945.0,7738756.0,0.0
1578129094734,7777673.0,7744173.0,0.0
1578129094788,7843948.0,7781902.0,0.0
1578129094834,7852359.0,7797035.0,0.0
1578129094887,7837523.0,7769643.0,0.0
1578129094939,7813673.0,7753191.0,0.0
1578129094989,7782919.0,7740882.0,0.0
1578129095038,7769728.0,7738435.0,0.0
1578129095079,7807276.0,7776632.0,0.0
1578129095137,7824044.0,7797250.0,0.0
1578129095188,7793824.0,7775154.0,0.0
1578129095238,7749632.0,7740787.0,0.0
1578129095280,7741095.0,7729470.0,0.0
1578129095336,7737644.0,7732076.0,0.0
1578129095384,7785454.0,7768675.0,0.0
1578129095434,7846208.0,7793743.0,0.0
1578129095481,7855756.0,7791270.0,0.0
1578129095534,7841223.0,7791444.0,0.0
1578129095574,7823549.0,7786766.0,0.0
1578129095632,7792179.0,7752923.0,0.0
1578129095673,7805331.0,7757628.0,0.0
1578129095725,7846976.0,7789321.0,0.0
1578129095776,7862990.0,7801162.0,0.0
1578129095825,7842195.0,7788085.0,0.0
1578129095875,7799768.0,7766687.0,0.0
1578129095924,7780509.0,7748166.0,0.0
1578129095975,7776590.0,7756862.0,0.0
1578129096023,7783795.0,7773541.0,0.0
1578129096076,7805316.0,7789790.0,0.0
1578129096122,7805494.0,7795395.0,0.0
1578129096171,7784384.0,7774133.0,0.0
1578129096226,7750097.0,7743555.0,0.0
1578129096277,7741479.0,7741848.0,0.0
1578129096319,7739876.0,7750250.0,0.0
1578129096376,7800125.0,7790449.0,0.0
1578129096424,7801112.0,7794630.0,0.0
1578129096465,7783069.0,7781793.0,0.0
1578129096518,7777577.0,7775814.0,0.0
1578129096567,7789632.0,7777330.0,0.0
1578129096617,7843867.0,7806848.0,0.0
1578129096668,7883702.0,7826335.0,0.0
1578129096720,7896265.0,7835730.0,0.0
1578129096769,7907840.0,7854239.0,0.0
1578129096818,7899977.0,7843876.0,0.0
1578129096869,7886249.0,7833365.0,0.0
1578129096917,7869934.0,7822007.0,0.0
1578129096970,7892770.0,7851563.0,0.0
1578129097019,7912238.0,7867503.0,0.0
1578129097065,7918909.0,7870582.0,0.0
1578129097116,7899977.0,7845945.0,0.0
1578129097165,7875483.0,7828849.0,0.0
1578129097208,7872455.0,7813204.0,0.0
1578129097262,7886594.0,7833901.0,0.0
1578129097314,7908443.0,7857934.0,0.0
1578129097356,7927758.0,7869734.0,0.0
1578129097415,7907704.0,7851725.0,0.0
1578129097456,7887456.0,7824400.0,0.0
1578129097514,7874907.0,7815032.0,0.0
1578129097555,7885922.0,7821577.0,0.0
1578129097603,7902606.0,7830945.0,0.0
1578129097654,7917073.0,7838700.0,0.0
1578129097702,7900238.0,7812262.0,0.0
1578129097750,7899662.0,7794603.0,0.0
1578129097809,7902264.0,7800892.0,0.0
1578129097858,7916676.0,7800853.0,0.0
1578129097905,7908731.0,7771430.0,0.0
1578129097956,7886525.0,7748731.0,0.0
1578129097999,7883443.0,7782371.0,0.0
1578129098056,7888935.0,7793903.0,0.0
1578129098099,7886375.0,7787614.0,0.0
1578129098154,7882045.0,7755382.0,0.0
1578129098196,7873826.0,7729335.0,0.0
1578129098247,7852605.0,7713731.0,0.0
1578129098297,7842003.0,7699712.0,0.0
1578129098354,7828824.0,7691742.0,0.0
1578129098398,7804413.0,7686810.0,0.0
1578129098443,7764440.0,7678973.0,0.0
1578129098499,7737548.0,7667120.0,0.0
1578129098551,7710712.0,7655223.0,0.0
1578129098600,7692546.0,7644418.0,0.0
1578129098649,7672819.0,7609863.0,0.0
1578129098698,7649656.0,7554475.0,0.0
1578129098748,7617393.0,7551275.0,0.0
1578129098795,7578803.0,7490794.0,0.0
1578129098843,7566803.0,7466290.0,0.0
1578129098896,7568324.0,7465054.0,0.0
1578129098943,7602011.0,7492634.0,0.0
1578129098998,7642380.0,7516478.0,0.0
1578129099037,7666545.0,7538627.0,0.0
1578129099088,7636696.0,7518534.0,0.0
1578129099137,7615367.0,7480039.0,0.0
