time,value,value2,value3
1583167199348,6224849.0,7462308.0,0.0
1583167199394,6105118.0,7294861.0,0.0
1583167199444,6009392.0,7182733.0,0.0
1583167199490,5914309.0,7104956.0,0.0
1583167199539,5833955.0,7161333.0,0.0
1583167199608,5758745.0,7123273.0,0.0
1583167199684,5684861.0,7090403.0,0.0
1583167199696,5608512.0,7015374.0,0.0
1583167199765,5539514.0,6913812.0,0.0
1583167199781,5472811.0,6805130.0,0.0
1583167199829,5418501.0,6711478.0,0.0
1583167199875,5368250.0,6615907.0,0.0
1583167199926,5336296.0,6503241.0,0.0
1583167199971,5300848.0,6384540.0,0.0
1583167200027,5284907.0,6276641.0,0.0
1583167200068,5261954.0,6208501.0,0.0
1583167200117,5202304.0,6120594.0,0.0
1583167200169,5130813.0,6021605.0,0.0
1583167200217,5080619.0,5956114.0,0.0
1583167200265,5047651.0,5927518.0,0.0
1583167200313,5013245.0,5884559.0,0.0
1583167200362,4973227.0,5808890.0,0.0
1583167200410,4931141.0,5717083.0,0.0
1583167200459,4891036.0,5653932.0,0.0
1583167200509,4843863.0,5571184.0,0.0
1583167200555,4808432.0,5513221.0,0.0
1583167200609,4779281.0,5458575.0,0.0
1583167200652,4735331.0,5378429.0,0.0
1583167200701,4692789.0,5295344.0,0.0
1583167200750,4619389.0,5201664.0,0.0
1583167200797,4545477.0,5175802.0,0.0
1583167200847,4519004.0,5120253.0,0.0
1583167200894,4301965.0,5139573.0,0.0
1583167200944,4220125.0,5180888.0,0.0
1583167200991,4224605.0,5177735.0,0.0
1583167201040,4225635.0,5204644.0,0.0
1583167201087,4225326.0,5212217.0,0.0
1583167201137,4224585.0,5183652.0,0.0
1583167201189,4238427.0,5179770.0,0.0
1583167201233,4247009.0,5126447.0,0.0
1583167201282,4331347.0,4809466.0,0.0
1583167201330,4452392.0,4721076.0,0.0
1583167201379,4491160.0,4704344.0,0.0
1583167201428,4470952.0,4773950.0,0.0
1583167201478,4477127.0,4897462.0,0.0
1583167201528,4440852.0,5023767.0,0.0
1583167201571,4409490.0,5013284.0,0.0
1583167201623,4379786.0,5019360.0,0.0
1583167201673,4360098.0,5046794.0,0.0
1583167201720,4340400.0,5034989.0,0.0
1583167201772,4325741.0,5077454.0,0.0
1583167201817,4322958.0,5071508.0,0.0
1583167201865,4335845.0,4901023.0,0.0
1583167201908,4456216.0,4674831.0,0.0
1583167201962,4526461.0,4638516.0,0.0
1583167202010,4574033.0,4589453.0,0.0
1583167202053,4606291.0,4416130.0,0.0
1583167202105,4624920.0,4509987.0,0.0
1583167202152,4607138.0,4602766.0,0.0
1583167202201,4566434.0,4597262.0,0.0
1583167202247,4554528.0,4594597.0,0.0
1583167202300,4549916.0,4640968.0,0.0
1583167202353,4534601.0,4699195.0,0.0
1583167202397,4527839.0,4736400.0,0.0
1583167202445,4529861.0,4747763.0,0.0
1583167202488,4538656.0,4701518.0,0.0
1583167202542,4597266.0,4488317.0,0.0
1583167202587,4661010.0,4485307.0,0.0
1583167202634,4673070.0,4435835.0,0.0
1583167202685,4681555.0,4411315.0,0.0
1583167202732,4706369.0,4526360.0,0.0
1583167202778,4723195.0,4664751.0,0.0
1583167202827,4706840.0,4717361.0,0.0
1583167202877,4681073.0,4731115.0,0.0
1583167202930,4667107.0,4747716.0,0.0
1583167202978,4660260.0,4775762.0,0.0
1583167203022,4667771.0,4820170.0,0.0
1583167203075,4673349.0,4890462.0,0.0
1583167203123,4679137.0,4913911.0,0.0
1583167203170,4679755.0,4816239.0,0.0
1583167203220,4630651.0,4725598.0,0.0
1583167203268,4598345.0,4751841.0,0.0
1583167203316,4583791.0,4751289.0,0.0
1583167203365,4602997.0,4784264.0,0.0
1583167203412,4609105.0,4882167.0,0.0
1583167203462,4618244.0,4950794.0,0.0
1583167203512,4630245.0,4954388.0,0.0
1583167203558,4644386.0,4945668.0,0.0
1583167203602,4659132.0,4948748.0,0.0
1583167203648,4685775.0,4932961.0,0.0
1583167203699,4721066.0,4877869.0,0.0
1583167203749,4731343.0,4834830.0,0.0
1583167203797,4728878.0,4858807.0,0.0
1583167203849,4733346.0,4877066.0,0.0
1583167203897,4761348.0,4877134.0,0.0
1583167203946,4801137.0,4939350.0,0.0
1583167203992,4859603.0,5022614.0,0.0
1583167204042,4903793.0,5103258.0,0.0
1583167204091,4925486.0,5152652.0,0.0
1583167204139,4927047.0,5196174.0,0.0
1583167204188,4917953.0,5196564.0,0.0
1583167204231,4907686.0,5205330.0,0.0
1583167204284,4907205.0,5249600.0,0.0
1583167204333,4916345.0,5248313.0,0.0
1583167204382,4913060.0,5242190.0,0.0
1583167204431,4912993.0,5233135.0,0.0
1583167204478,4908544.0,5227218.0,0.0
1583167204528,4911183.0,5237466.0,0.0
1583167204571,4913907.0,5222267.0,0.0
1583167204623,4921256.0,5175942.0,0.0
1583167204670,4930456.0,5153249.0,0.0
1583167204713,4940781.0,5189613.0,0.0
1583167204765,4949768.0,5225517.0,0.0
1583167204810,4966257.0,5277243.0,0.0
1583167204860,4996309.0,5329566.0,0.0
1583167204910,5005710.0,5364242.0,0.0
1583167204962,4999460.0,5375628.0,0.0
1583167205011,4990106.0,5358693.0,0.0
1583167205053,4987544.0,5357487.0,0.0
1583167205102,4990579.0,5352177.0,0.0
1583167205151,4998564.0,5363633.0,0.0
1583167205204,5006837.0,5373594.0,0.0
1583167205254,5020409.0,5389082.0,0.0
1583167205301,5031631.0,5409131.0,0.0
1583167205349,5054545.0,5439843.0,0.0
1583167205395,5066979.0,5466246.0,0.0
1583167205446,5074271.0,5482089.0,0.0
1583167205492,5075927.0,5490718.0,0.0
1583167205535,5113628.0,5508102.0,0.0
1583167205587,5122633.0,5532758.0,0.0
1583167205634,5143543.0,5547718.0,0.0
1583167205685,5174790.0,5565687.0,0.0
1583167205732,5197377.0,5581117.0,0.0
1583167205784,5214878.0,5598571.0,0.0
1583167205832,5230098.0,5620044.0,0.0
1583167205881,5234432.0,5647424.0,0.0
1583167205929,5228092.0,5676411.0,0.0
1583167205976,5236965.0,5691381.0,0.0
1583167206027,5257472.0,5700562.0,0.0
1583167206073,5258280.0,5696656.0,0.0
1583167206123,5256632.0,5681961.0,0.0
1583167206172,5258502.0,5671390.0,0.0
1583167206220,5255188.0,5653283.0,0.0
1583167206268,5257096.0,5642116.0,0.0
1583167206313,5259715.0,5644046.0,0.0
1583167206365,5263530.0,5644126.0,0.0
1583167206412,5270001.0,5647320.0,0.0
1583167206462,5271399.0,5650066.0,0.0
1583167206511,5280501.0,5645848.0,0.0
1583167206560,5277698.0,5641288.0,0.0
1583167206609,5266767.0,5623444.0,0.0
1583167206655,5249044.0,5604073.0,0.0
1583167206705,5232938.0,5592251.0,0.0
1583167206752,5227611.0,5583680.0,0.0
1583167206801,5229490.0,5569754.0,0.0
1583167206849,5225146.0,5560322.0,0.0
1583167206894,5229096.0,5550635.0,0.0
1583167206946,5223903.0,5544557.0,0.0
1583167206993,5213781.0,5537860.0,0.0
1583167207043,5213655.0,5529139.0,0.0
1583167207091,5208320.0,5525324.0,0.0
1583167207142,5182264.0,5513858.0,0.0
1583167207189,5151355.0,5505288.0,0.0
1583167207234,5128066.0,5481664.0,0.0
1583167207285,5117374.0,5445289.0,0.0
1583167207332,5110660.0,5415876.0,0.0
1583167207382,5097618.0,5402708.0,0.0
1583167207432,5094085.0,5385876.0,0.0
1583167207474,5080840.0,5355934.0,0.0
1583167207528,5083566.0,5309598.0,0.0
1583167207574,5087611.0,5299773.0,0.0
1583167207618,5100334.0,5297913.0,0.0
1583167207669,5100326.0,5298188.0,0.0
1583167207716,5084702.0,5296225.0,0.0
1583167207766,5077093.0,5287056.0,0.0
1583167207812,5070504.0,5284965.0,0.0
1583167207861,5062076.0,5292364.0,0.0
1583167207913,5033518.0,5336002.0,0.0
1583167207958,5021718.0,5353936.0,0.0
1583167208012,5027825.0,5321719.0,0.0
1583167208054,5013985.0,5263721.0,0.0
1583167208108,5000441.0,5232883.0,0.0
1583167208157,4998863.0,5211088.0,0.0
1583167208205,4995693.0,5197863.0,0.0
1583167208253,4984521.0,5192439.0,0.0
1583167208300,4975380.0,5181720.0,0.0
1583167208350,4967086.0,5163658.0,0.0
1583167208393,4962135.0,5149745.0,0.0
1583167208447,4958118.0,5138762.0,0.0
1583167208494,4948333.0,5121412.0,0.0
1583167208544,4949392.0,5104728.0,0.0
1583167208591,4945058.0,5097641.0,0.0
1583167208635,4940954.0,5087574.0,0.0
1583167208690,4935031.0,5049820.0,0.0
1583167208735,4943400.0,4998589.0,0.0
1583167208785,4971652.0,4980597.0,0.0
1583167208833,5009938.0,4965212.0,0.0
1583167208881,5049207.0,4976057.0,0.0
1583167208931,5060670.0,4993282.0,0.0
1583167208975,5059023.0,4993339.0,0.0
1583167209028,5059687.0,4977139.0,0.0
1583167209074,5060987.0,4963798.0,0.0
1583167209123,5067442.0,4958951.0,0.0
1583167209173,5062674.0,4949737.0,0.0
1583167209216,5063482.0,4936972.0,0.0
1583167209269,5061883.0,4920276.0,0.0
1583167209315,5049354.0,4901020.0,0.0
1583167209365,5034193.0,4878397.0,0.0
1583167209414,5023780.0,4863715.0,0.0
1583167209463,5022951.0,4859464.0,0.0
1583167209511,5018213.0,4855636.0,0.0
1583167209557,5008648.0,4845010.0,0.0
1583167209609,4999285.0,4831085.0,0.0
1583167209655,4995626.0,4820973.0,0.0
1583167209704,4990260.0,4813483.0,0.0
1583167209753,4982631.0,4803164.0,0.0
1583167209798,4967298.0,4786332.0,0.0
1583167209845,4941956.0,4760664.0,0.0
1583167209897,4921864.0,4745511.0,0.0
1583167209947,4901097.0,4727357.0,0.0
1583167209994,4891495.0,4717155.0,0.0
1583167210043,4886668.0,4712708.0,0.0
1583167210093,4880331.0,4698611.0,0.0
1583167210137,4873404.0,4692911.0,0.0
1583167210188,4868792.0,4687465.0,0.0
1583167210231,4864562.0,4683916.0,0.0
1583167210285,4863071.0,4681538.0,0.0
1583167210332,4848709.0,4670220.0,0.0
1583167210378,4831930.0,4654100.0,0.0
1583167210431,4816442.0,4637394.0,0.0
1583167210478,4803815.0,4630881.0,0.0
1583167210529,4796871.0,4625606.0,0.0
1583167210576,4794345.0,4623514.0,0.0
1583167210617,4792313.0,4622676.0,0.0
1583167210672,4788894.0,4623733.0,0.0
1583167210716,4780495.0,4622377.0,0.0
1583167210768,4780216.0,4622241.0,0.0
1583167210817,4772721.0,4615450.0,0.0
1583167210861,4773975.0,4616402.0,0.0
1583167210913,4764997.0,4613807.0,0.0
1583167210961,4750616.0,4599789.0,0.0
1583167211011,4743836.0,4595216.0,0.0
1583167211060,4740571.0,4591620.0,0.0
1583167211103,4732084.0,4591194.0,0.0
1583167211158,4728801.0,4584497.0,0.0
1583167211205,4726219.0,4587678.0,0.0
1583167211252,4723407.0,4587852.0,0.0
1583167211297,4717665.0,4586621.0,0.0
1583167211350,4722356.0,4588162.0,0.0
1583167211397,4717665.0,4584990.0,0.0
1583167211447,4709680.0,4581039.0,0.0
1583167211494,4696947.0,4572157.0,0.0
1583167211539,4693105.0,4569021.0,0.0
1583167211591,4687739.0,4563782.0,0.0
1583167211639,4686333.0,4564160.0,0.0
1583167211688,4676518.0,4560966.0,0.0
1583167211736,4674505.0,4558451.0,0.0
1583167211786,4670854.0,4556440.0,0.0
1583167211833,4665634.0,4555358.0,0.0
1583167211877,4659874.0,4551211.0,0.0
1583167211931,4637730.0,4537701.0,0.0
1583167211977,4615875.0,4524843.0,0.0
1583167212028,4608593.0,4520765.0,0.0
1583167212074,4601725.0,4527141.0,0.0
1583167212120,4595909.0,4527485.0,0.0
1583167212172,4591910.0,4529174.0,0.0
1583167212220,4582182.0,4524672.0,0.0
1583167212268,4572472.0,4521856.0,0.0
1583167212316,4568756.0,4524407.0,0.0
1583167212364,4556745.0,4519983.0,0.0
1583167212414,4524814.0,4505381.0,0.0
1583167212463,4499472.0,4492835.0,0.0
1583167212510,4479408.0,4483780.0,0.0
1583167212558,4470576.0,4483067.0,0.0
1583167212608,4469420.0,4488423.0,0.0
1583167212655,4459924.0,4483435.0,0.0
1583167212701,4457622.0,4487031.0,0.0
1583167212752,4452681.0,4485687.0,0.0
1583167212803,4451746.0,4487411.0,0.0
1583167212851,4449454.0,4490950.0,0.0
1583167212898,4437983.0,4481540.0,0.0
1583167212949,4412582.0,4472303.0,0.0
1583167212995,4393010.0,4460354.0,0.0
1583167213041,4385082.0,4456412.0,0.0
1583167213091,4381673.0,4454172.0,0.0
1583167213140,4378130.0,4448656.0,0.0
1583167213185,4374718.0,4448346.0,0.0
1583167213237,4371636.0,4441463.0,0.0
1583167213285,4369316.0,4440373.0,0.0
1583167213334,4372859.0,4439374.0,0.0
1583167213381,4371116.0,4438523.0,0.0
1583167213431,4365240.0,4428630.0,0.0
1583167213479,4351959.0,4419691.0,0.0
1583167213529,4344118.0,4411051.0,0.0
1583167213576,4345177.0,4413638.0,0.0
1583167213619,4341816.0,4412636.0,0.0
1583167213674,4337444.0,4409858.0,0.0
1583167213721,4336000.0,4407960.0,0.0
1583167213771,4332029.0,4404837.0,0.0
1583167213817,4334254.0,4405181.0,0.0
1583167213862,4331723.0,4406284.0,0.0
1583167213914,4328370.0,4402514.0,0.0
1583167213964,4313075.0,4390439.0,0.0
1583167214012,4295332.0,4377077.0,0.0
1583167214060,4285980.0,4370735.0,0.0
1583167214109,4280277.0,4364886.0,0.0
1583167214152,4276319.0,4361566.0,0.0
1583167214201,4268960.0,4353742.0,0.0
1583167214254,4264645.0,4351467.0,0.0
1583167214302,4266042.0,4347365.0,0.0
1583167214350,4272109.0,4351547.0,0.0
1583167214399,4272562.0,4348940.0,0.0
1583167214449,4260213.0,4341150.0,0.0
1583167214496,4255485.0,4344355.0,0.0
1583167214543,4259011.0,4344113.0,0.0
1583167214592,4271695.0,4350400.0,0.0
1583167214635,4283987.0,4355511.0,0.0
1583167214690,4294542.0,4365128.0,0.0
1583167214736,4314317.0,4373883.0,0.0
1583167214783,4334823.0,4388589.0,0.0
1583167214834,4352835.0,4401573.0,0.0
1583167214877,4357786.0,4402630.0,0.0
1583167214932,4347788.0,4396552.0,0.0
1583167214980,4340112.0,4394805.0,0.0
1583167215027,4343724.0,4394818.0,0.0
1583167215076,4358036.0,4405720.0,0.0
1583167215123,4366657.0,4408375.0,0.0
1583167215172,4367967.0,4409443.0,0.0
1583167215221,4371559.0,4411396.0,0.0
1583167215266,4379497.0,4414556.0,0.0
1583167215317,4392135.0,4420335.0,0.0
1583167215367,4398858.0,4421989.0,0.0
1583167215414,4383483.0,4408260.0,0.0
1583167215462,4369700.0,4396678.0,0.0
1583167215512,4364385.0,4396001.0,0.0
1583167215560,4364576.0,4394105.0,0.0
1583167215608,4369373.0,4393851.0,0.0
1583167215655,4373881.0,4395678.0,0.0
1583167215703,4382713.0,4395633.0,0.0
1583167215754,4386171.0,4394312.0,0.0
1583167215802,4400668.0,4401711.0,0.0
1583167215851,4406081.0,4400712.0,0.0
1583167215897,4396324.0,4387670.0,0.0
1583167215944,4381374.0,4377077.0,0.0
1583167215995,4369633.0,4365621.0,0.0
1583167216043,4371492.0,4362130.0,0.0
1583167216092,4375895.0,4362785.0,0.0
1583167216140,4372677.0,4354099.0,0.0
1583167216184,4373487.0,4357074.0,0.0
1583167216232,4371021.0,4352582.0,0.0
1583167216284,4373235.0,4349698.0,0.0
1583167216333,4371531.0,4344435.0,0.0
1583167216382,4350061.0,4335048.0,0.0
1583167216430,4329025.0,4317262.0,0.0
1583167216479,4308471.0,4313069.0,0.0
1583167216525,4301795.0,4309933.0,0.0
1583167216576,4291567.0,4311380.0,0.0
1583167216619,4285267.0,4312586.0,0.0
1583167216673,4272658.0,4308141.0,0.0
1583167216720,4258287.0,4295915.0,0.0
1583167216766,4254752.0,4289344.0,0.0
1583167216817,4250400.0,4287884.0,0.0
1583167216868,4237868.0,4282714.0,0.0
1583167216915,4216350.0,4267352.0,0.0
1583167216964,4198223.0,4260517.0,0.0
1583167217010,4197981.0,4265882.0,0.0
1583167217059,4204338.0,4271799.0,0.0
1583167217105,4204050.0,4271822.0,0.0
1583167217156,4202028.0,4270823.0,0.0
1583167217206,4203048.0,4274178.0,0.0
1583167217254,4209050.0,4277027.0,0.0
1583167217302,4212305.0,4279498.0,0.0
1583167217347,4210320.0,4277601.0,0.0
1583167217398,4194968.0,4273465.0,0.0
1583167217446,4189545.0,4268077.0,0.0
1583167217495,4192115.0,4271696.0,0.0
1583167217543,4200852.0,4280611.0,0.0
1583167217590,4209156.0,4285322.0,0.0
1583167217635,4215165.0,4290033.0,0.0
1583167217686,4225028.0,4300477.0,0.0
1583167217736,4238466.0,4313955.0,0.0
1583167217786,4252759.0,4326443.0,0.0
1583167217835,4265589.0,4334589.0,0.0
1583167217877,4262767.0,4331947.0,0.0
1583167217931,4249571.0,4330396.0,0.0
1583167217978,4238090.0,4333646.0,0.0
1583167218027,4220472.0,4334313.0,0.0
1583167218074,4201161.0,4324318.0,0.0
1583167218124,4183322.0,4315505.0,0.0
1583167218170,4196276.0,4356362.0,0.0
1583167218220,4224826.0,4396748.0,0.0
1583167218272,4298934.0,4446336.0,0.0
1583167218312,4358633.0,4520144.0,0.0
1583167218365,4458315.0,4630961.0,0.0
1583167218409,4538597.0,4758424.0,0.0
1583167218462,4588212.0,4843734.0,0.0
1583167218506,4653334.0,4899447.0,0.0
1583167218558,4711753.0,4937476.0,0.0
1583167218608,4731950.0,5025441.0,0.0
1583167218656,4745984.0,5133925.0,0.0
1583167218700,4776980.0,5072972.0,0.0
1583167218747,4800125.0,5054980.0,0.0
1583167218794,4770777.0,5045225.0,0.0
1583167218849,4740339.0,4917888.0,0.0
1583167218893,4711125.0,4852649.0,0.0
1583167218943,4697419.0,4912338.0,0.0
1583167218989,4681354.0,4955664.0,0.0
1583167219042,4658872.0,4985341.0,0.0
1583167219087,4656359.0,5002438.0,0.0
1583167219139,4672213.0,5026588.0,0.0
1583167219188,4685167.0,5031139.0,0.0
1583167219235,4702774.0,5052508.0,0.0
1583167219286,4715286.0,5067548.0,0.0
1583167219329,4702244.0,5085495.0,0.0
1583167219382,4710530.0,5182065.0,0.0
1583167219432,4746004.0,5308932.0,0.0
1583167219478,4770767.0,5400284.0,0.0
1583167219527,4733568.0,5482836.0,0.0
1583167219575,4703709.0,5554140.0,0.0
1583167219623,4722655.0,5845157.0,0.0
1583167219669,4742814.0,5942013.0,0.0
1583167219720,4752323.0,5866297.0,0.0
1583167219769,4762368.0,5899571.0,0.0
1583167219816,4759738.0,5832427.0,0.0
1583167219866,4787102.0,5876455.0,0.0
1583167219910,4781756.0,5889403.0,0.0
1583167219962,4777760.0,5993979.0,0.0
1583167220012,4738171.0,5962074.0,0.0
1583167220058,4722809.0,6021417.0,0.0
1583167220109,4720999.0,6073385.0,0.0
1583167220156,4717657.0,6116172.0,0.0
1583167220205,4758631.0,6075486.0,0.0
1583167220248,4843816.0,6054369.0,0.0
1583167220301,4944633.0,6013776.0,0.0
1583167220349,5066652.0,6004504.0,0.0
1583167220398,5109158.0,5894850.0,0.0
1583167220447,5231599.0,5901076.0,0.0
1583167220493,5387771.0,5898904.0,0.0
1583167220543,5534352.0,5970875.0,0.0
1583167220592,5669459.0,5973931.0,0.0
1583167220635,5766241.0,5977205.0,0.0
1583167220688,5867060.0,6009251.0,0.0
1583167220736,6073721.0,6050347.0,0.0
1583167220785,6157112.0,6252321.0,0.0
1583167220829,6193630.0,6506491.0,0.0
1583167220877,6203545.0,6608805.0,0.0
1583167220931,6204374.0,6582230.0,0.0
1583167220979,6123935.0,6498679.0,0.0
1583167221028,6025398.0,6397169.0,0.0
1583167221074,5939707.0,6294798.0,0.0
1583167221123,5888604.0,6178398.0,0.0
1583167221172,5842442.0,6050394.0,0.0
1583167221220,5790673.0,5931385.0,0.0
1583167221270,5752510.0,5842917.0,0.0
1583167221316,5750467.0,5822340.0,0.0
1583167221365,5751728.0,5815733.0,0.0
1583167221411,5755324.0,5826832.0,0.0
1583167221461,5744384.0,5820306.0,0.0
1583167221512,5730719.0,5796579.0,0.0
1583167221559,5722510.0,5806713.0,0.0
1583167221609,5721203.0,5800704.0,0.0
1583167221654,5721681.0,5817422.0,0.0
1583167221703,5715982.0,5807919.0,0.0
1583167221751,5689707.0,5782678.0,0.0
1583167221800,5645471.0,5754838.0,0.0
1583167221850,5611851.0,5736076.0,0.0
1583167221896,5601844.0,5725138.0,0.0
1583167221947,5590400.0,5718141.0,0.0
1583167221993,5577811.0,5712569.0,0.0
1583167222043,5556826.0,5710191.0,0.0
1583167222091,5548441.0,5708007.0,0.0
1583167222139,5541854.0,5710179.0,0.0
1583167222189,5534952.0,5704732.0,0.0
1583167222232,5530177.0,5705744.0,0.0
1583167222285,5499511.0,5688245.0,0.0
1583167222331,5467012.0,5674607.0,0.0
1583167222381,5442278.0,5659200.0,0.0
1583167222431,5423569.0,5650917.0,0.0
1583167222472,5418724.0,5646457.0,0.0
1583167222527,5409147.0,5647746.0,0.0
1583167222572,5395414.0,5640553.0,0.0
1583167222623,5386399.0,5633785.0,0.0
1583167222671,5374149.0,5633234.0,0.0
1583167222719,5370716.0,5631498.0,0.0
1583167222769,5367598.0,5628259.0,0.0
1583167222813,5341263.0,5611001.0,0.0
1583167222867,5308334.0,5581198.0,0.0
1583167222912,5282501.0,5569961.0,0.0
1583167222962,5273568.0,5563848.0,0.0
1583167223011,5270099.0,5569238.0,0.0
1583167223060,5262766.0,5563883.0,0.0
1583167223107,5258000.0,5559803.0,0.0
1583167223151,5255665.0,5554002.0,0.0
1583167223205,5252792.0,5545994.0,0.0
1583167223252,5246264.0,5529094.0,0.0
1583167223301,5237063.0,5465360.0,0.0
1583167223349,5216545.0,5444531.0,0.0
1583167223392,5197007.0,5462166.0,0.0
1583167223446,5183636.0,5458409.0,0.0
1583167223493,5193073.0,5486272.0,0.0
1583167223541,5221497.0,5519523.0,0.0
1583167223591,5241056.0,5523922.0,0.0
1583167223634,5254544.0,5528875.0,0.0
1583167223688,5258269.0,5534447.0,0.0
1583167223733,5266784.0,5592951.0,0.0
1583167223785,5280050.0,5664865.0,0.0
1583167223834,5290712.0,5727378.0,0.0
1583167223877,5295265.0,5759147.0,0.0
1583167223930,5286483.0,5806484.0,0.0
1583167223976,5272611.0,5852407.0,0.0
1583167224028,5262346.0,5892746.0,0.0
1583167224076,5264367.0,5904443.0,0.0
1583167224124,5266784.0,5925136.0,0.0
1583167224175,5262812.0,5922297.0,0.0
1583167224220,5264610.0,5953273.0,0.0
1583167224269,5266994.0,5966876.0,0.0
1583167224315,5266702.0,5977907.0,0.0
1583167224365,5258888.0,5960891.0,0.0
1583167224413,5249968.0,5908131.0,0.0
1583167224462,5244279.0,5881750.0,0.0
1583167224511,5225127.0,5854693.0,0.0
1583167224558,5208475.0,5844089.0,0.0
1583167224607,5182633.0,5827177.0,0.0
1583167224654,5155856.0,5794029.0,0.0
1583167224704,5139856.0,5772717.0,0.0
1583167224747,5130305.0,5810977.0,0.0
1583167224796,5116374.0,5938072.0,0.0
1583167224846,5100151.0,5965361.0,0.0
1583167224892,5085683.0,5941208.0,0.0
1583167224943,5045325.0,5842066.0,0.0
1583167224991,5027061.0,5707513.0,0.0
1583167225043,5028696.0,5686441.0,0.0
1583167225091,5014460.0,5728596.0,0.0
1583167225138,4976648.0,5678490.0,0.0
1583167225188,4952124.0,5686637.0,0.0
1583167225234,4937329.0,5698667.0,0.0
1583167225285,4922590.0,5700665.0,0.0
1583167225333,4918479.0,5729882.0,0.0
1583167225381,4908273.0,5756492.0,0.0
1583167225431,4889707.0,5756298.0,0.0
1583167225475,4891165.0,5848604.0,0.0
1583167225527,5015453.0,6063137.0,0.0
1583167225574,5474205.0,6159933.0,0.0
1583167225623,5983744.0,6138576.0,0.0
1583167225673,6273926.0,6104429.0,0.0
1583167225719,6456147.0,6035538.0,0.0
1583167225769,6529158.0,6077693.0,0.0
1583167225815,6607830.0,6425329.0,0.0
1583167225866,6690767.0,6629361.0,0.0
1583167225914,6754820.0,6729387.0,0.0
1583167225963,6687309.0,6852715.0,0.0
1583167226008,6656843.0,7129866.0,0.0
1583167226056,6837755.0,7211922.0,0.0
1583167226107,6897196.0,7516586.0,0.0
1583167226155,6882037.0,7382827.0,0.0
1583167226199,6875404.0,7218746.0,0.0
1583167226253,7219965.0,7086164.0,0.0
1583167226298,7181818.0,7018874.0,0.0
1583167226350,7163467.0,6956631.0,0.0
1583167226397,7140741.0,6897748.0,0.0
1583167226448,7121018.0,6816355.0,0.0
1583167226495,7119984.0,6819888.0,0.0
1583167226543,7114202.0,6782348.0,0.0
1583167226592,7088795.0,6742440.0,0.0
1583167226635,7070777.0,6669027.0,0.0
1583167226689,7069603.0,6654781.0,0.0
1583167226736,7054225.0,6636288.0,0.0
1583167226786,7090010.0,6631728.0,0.0
1583167226830,7110500.0,6625589.0,0.0
1583167226878,7125082.0,6654709.0,0.0
1583167226931,7161524.0,6707066.0,0.0
1583167226979,7183608.0,6735290.0,0.0
1583167227024,7234715.0,6880253.0,0.0
1583167227075,7372350.0,7344389.0,0.0
1583167227125,7641702.0,7897272.0,0.0
1583167227172,7834553.0,9052884.0,0.0
1583167227219,7595218.0,9256217.0,0.0
1583167227270,7329219.0,8251310.0,0.0
1583167227317,6810378.0,7316779.0,0.0
1583167227367,6485212.0,6784911.0,0.0
1583167227415,6497616.0,6732853.0,0.0
1583167227465,6526333.0,6619691.0,0.0
1583167227512,6455938.0,6248430.0,0.0
1583167227556,6261493.0,5812515.0,0.0
1583167227608,6258198.0,5763276.0,0.0
1583167227652,6367018.0,5739970.0,0.0
1583167227706,6553306.0,5783009.0,0.0
1583167227749,6943992.0,5347322.0,0.0
1583167227799,6787947.0,6579783.0,0.0
1583167227846,6226477.0,6654881.0,0.0
1583167227897,5244247.0,6254169.0,0.0
1583167227942,5091385.0,6317370.0,0.0
1583167227991,5030696.0,5922872.0,0.0
1583167228041,5061117.0,5610905.0,0.0
1583167228088,5252585.0,5610321.0,0.0
1583167228137,5415546.0,5707727.0,0.0
1583167228191,5606553.0,5875914.0,0.0
1583167228233,5785840.0,6030036.0,0.0
1583167228283,5933256.0,6122728.0,0.0
1583167228334,5964779.0,6172165.0,0.0
1583167228379,5945170.0,6114022.0,0.0
1583167228431,5871811.0,5798809.0,0.0
1583167228478,5829197.0,5537676.0,0.0
1583167228528,5846613.0,5254062.0,0.0
1583167228576,5896576.0,5067256.0,0.0
1583167228620,5925448.0,4980605.0,0.0
1583167228669,5969696.0,5045089.0,0.0
1583167228717,5902107.0,5084595.0,0.0
1583167228771,5802099.0,5080363.0,0.0
1583167228817,5829170.0,5105123.0,0.0
1583167228865,5751173.0,5077757.0,0.0
1583167228915,5714369.0,5113246.0,0.0
1583167228963,5675971.0,5090621.0,0.0
1583167229011,5666138.0,5106265.0,0.0
1583167229059,5669142.0,5082728.0,0.0
1583167229109,5683543.0,5041285.0,0.0
1583167229156,5741424.0,4966402.0,0.0
1583167229206,5765785.0,4958410.0,0.0
1583167229254,5738839.0,5014912.0,0.0
1583167229298,5714020.0,5044190.0,0.0
1583167229350,5717052.0,5047467.0,0.0
1583167229399,5805758.0,5075576.0,0.0
1583167229448,5964682.0,5158807.0,0.0
1583167229496,6027369.0,5198684.0,0.0
1583167229542,5929790.0,5131824.0,0.0
1583167229593,5916521.0,5090209.0,0.0
1583167229641,6001445.0,4956656.0,0.0
1583167229691,5911885.0,4752156.0,0.0
1583167229736,5681111.0,4627097.0,0.0
1583167229787,5815662.0,4780252.0,0.0
1583167229829,5947781.0,5005181.0,0.0
1583167229880,6009825.0,5137267.0,0.0
1583167229928,6018514.0,5159777.0,0.0
1583167229976,6051267.0,5147937.0,0.0
1583167230025,6028403.0,5094097.0,0.0
1583167230073,6107514.0,4894056.0,0.0
1583167230122,6248126.0,4856814.0,0.0
1583167230173,6217888.0,5008046.0,0.0
1583167230221,6166123.0,5079907.0,0.0
1583167230271,6119820.0,5150730.0,0.0
1583167230314,6074315.0,5223403.0,0.0
1583167230368,6044410.0,5189496.0,0.0
1583167230415,6071228.0,5181132.0,0.0
1583167230462,6130562.0,5225441.0,0.0
1583167230511,6241897.0,5282242.0,0.0
1583167230561,6257345.0,5261655.0,0.0
1583167230610,6260279.0,5244986.0,0.0
1583167230656,6340997.0,5236410.0,0.0
1583167230704,6242833.0,5176501.0,0.0
1583167230754,6241450.0,5148876.0,0.0
1583167230802,6311888.0,5180505.0,0.0
1583167230851,6370078.0,5256499.0,0.0
1583167230894,6344001.0,5250472.0,0.0
1583167230949,6426618.0,5261670.0,0.0
1583167230997,6578364.0,5274992.0,0.0
1583167231042,6521697.0,5275077.0,0.0
1583167231093,6467852.0,5248092.0,0.0
1583167231140,6537675.0,5270732.0,0.0
1583167231192,6531880.0,5334630.0,0.0
1583167231238,6526920.0,5293798.0,0.0
1583167231289,6472683.0,5308528.0,0.0
1583167231335,6380247.0,5304724.0,0.0
1583167231383,6273408.0,5286886.0,0.0
1583167231432,6312181.0,5302786.0,0.0
1583167231482,6437012.0,5294266.0,0.0
1583167231529,6584119.0,5383866.0,0.0
1583167231577,6638004.0,5470630.0,0.0
1583167231620,6465671.0,5422860.0,0.0
1583167231674,6359296.0,5378068.0,0.0
1583167231722,6299359.0,5339586.0,0.0
1583167231772,6236016.0,5297899.0,0.0
1583167231820,6186445.0,5257338.0,0.0
1583167231870,6157226.0,5241710.0,0.0
1583167231912,6198038.0,5234644.0,0.0
1583167231962,6248854.0,5232890.0,0.0
1583167232013,6331429.0,5246156.0,0.0
1583167232062,6357729.0,5261742.0,0.0
1583167232109,6357130.0,5281559.0,0.0
1583167232160,6265321.0,5252211.0,0.0
1583167232202,6236227.0,5204654.0,0.0
1583167232255,6218724.0,5159805.0,0.0
1583167232304,6219033.0,5023974.0,0.0
1583167232349,6196083.0,4933975.0,0.0
1583167232401,6119569.0,4932124.0,0.0
1583167232452,6095322.0,4947253.0,0.0
1583167232498,6113897.0,4971545.0,0.0
1583167232547,6160158.0,4966574.0,0.0
1583167232596,6185790.0,4949191.0,0.0
1583167232644,6210652.0,4954421.0,0.0
1583167232693,6306693.0,5041781.0,0.0
1583167232741,6301580.0,5113315.0,0.0
1583167232788,6201810.0,5121223.0,0.0
1583167232837,6057371.0,5057881.0,0.0
1583167232885,5944234.0,5117734.0,0.0
1583167232934,5946076.0,5215795.0,0.0
1583167232984,6025622.0,5198612.0,0.0
1583167233032,6086620.0,5172369.0,0.0
1583167233079,6116663.0,5159418.0,0.0
1583167233125,6010300.0,5110210.0,0.0
1583167233175,6149782.0,5058252.0,0.0
1583167233225,6371769.0,5357068.0,0.0
1583167233273,6519516.0,5480803.0,0.0
1583167233321,6432291.0,5524613.0,0.0
1583167233368,6552076.0,5852449.0,0.0
1583167233418,6607834.0,6150054.0,0.0
1583167233468,6605796.0,6064657.0,0.0
1583167233514,6591199.0,6195215.0,0.0
1583167233563,6599664.0,6439395.0,0.0
1583167233611,6602624.0,6476907.0,0.0
1583167233660,6586912.0,6226816.0,0.0
1583167233706,6539826.0,6115461.0,0.0
1583167233750,6468271.0,6072279.0,0.0
1583167233802,6511806.0,6164285.0,0.0
1583167233850,6566505.0,6212897.0,0.0
1583167233897,6698777.0,6266880.0,0.0
1583167233948,6738808.0,6239651.0,0.0
1583167233994,6715622.0,6330462.0,0.0
1583167234045,6664390.0,6408921.0,0.0
1583167234095,6472056.0,6384657.0,0.0
1583167234143,6422470.0,6394772.0,0.0
1583167234189,6478662.0,6375055.0,0.0
1583167234236,6453576.0,6342543.0,0.0
1583167234292,6338497.0,6243271.0,0.0
1583167234337,6411507.0,6215575.0,0.0
1583167234386,6524950.0,6418224.0,0.0
1583167234433,6671081.0,6688916.0,0.0
1583167234483,6759802.0,6697221.0,0.0
1583167234527,6767595.0,6551147.0,0.0
1583167234579,6689573.0,6460794.0,0.0
1583167234633,6713193.0,6570311.0,0.0
1583167234677,6605711.0,6387235.0,0.0
1583167234726,6557118.0,6380026.0,0.0
1583167234768,6469248.0,6463073.0,0.0
1583167234821,6591422.0,6614832.0,0.0
1583167234870,6598756.0,6469726.0,0.0
1583167234918,6608617.0,6470881.0,0.0
1583167234968,6608715.0,6426360.0,0.0
1583167235015,6624386.0,6433070.0,0.0
1583167235064,6637781.0,6449198.0,0.0
1583167235106,6584676.0,6601141.0,0.0
1583167235160,6944371.0,6811952.0,0.0
1583167235209,7207240.0,7067430.0,0.0
1583167235257,7131675.0,7194598.0,0.0
1583167235306,7213121.0,7223347.0,0.0
1583167235353,7419171.0,7384025.0,0.0
1583167235402,7500867.0,7563607.0,0.0
1583167235446,7391488.0,7459732.0,0.0
1583167235499,7434144.0,7338050.0,0.0
1583167235547,7427704.0,7212692.0,0.0
1583167235596,7459370.0,7096422.0,0.0
1583167235644,7511120.0,6976591.0,0.0
1583167235687,7217618.0,6739394.0,0.0
1583167235741,7117317.0,6648240.0,0.0
1583167235790,7051768.0,6614845.0,0.0
1583167235837,6981343.0,6545536.0,0.0
1583167235886,6926436.0,6494174.0,0.0
1583167235933,6903278.0,6447971.0,0.0
1583167235983,6873316.0,6415303.0,0.0
1583167236026,6883624.0,6400729.0,0.0
1583167236074,6894255.0,6395898.0,0.0
1583167236128,6899282.0,6379074.0,0.0
1583167236177,6853777.0,6328780.0,0.0
1583167236226,6802278.0,6252830.0,0.0
1583167236272,6783548.0,6176624.0,0.0
1583167236322,6788143.0,6133470.0,0.0
1583167236368,6768574.0,6116116.0,0.0
1583167236418,6710693.0,6081753.0,0.0
1583167236468,6678733.0,6046492.0,0.0
1583167236516,6666330.0,6007726.0,0.0
1583167236564,6628730.0,5959600.0,0.0
1583167236607,6636217.0,5920179.0,0.0
1583167236660,6699979.0,5880801.0,0.0
1583167236709,6716990.0,5860198.0,0.0
1583167236757,6691752.0,5852520.0,0.0
1583167236807,6652712.0,5857835.0,0.0
1583167236853,6663050.0,5853788.0,0.0
1583167236898,6664696.0,5855726.0,0.0
1583167236950,6786158.0,5852405.0,0.0
1583167237000,6786537.0,5872622.0,0.0
1583167237048,6796955.0,5898196.0,0.0
1583167237096,6789734.0,5890872.0,0.0
1583167237144,6745416.0,5877068.0,0.0
1583167237189,6727203.0,5848744.0,0.0
1583167237240,6627712.0,5825679.0,0.0
1583167237290,6470701.0,5798653.0,0.0
1583167237338,6383907.0,5712330.0,0.0
1583167237388,6322434.0,5668648.0,0.0
1583167237431,6454623.0,5667066.0,0.0
1583167237484,6495814.0,5706288.0,0.0
1583167237530,6550804.0,5811161.0,0.0
1583167237580,6631552.0,5958817.0,0.0
1583167237629,6703430.0,6021504.0,0.0
1583167237676,6761562.0,5947220.0,0.0
1583167237725,6802542.0,5869288.0,0.0
1583167237769,6837910.0,5777167.0,0.0
1583167237821,6887255.0,5764316.0,0.0
1583167237872,6932552.0,5707714.0,0.0
1583167237918,6960348.0,5625167.0,0.0
1583167237967,6960685.0,5614210.0,0.0
1583167238013,6957347.0,5561896.0,0.0
1583167238064,6846220.0,5440798.0,0.0
1583167238111,6644625.0,5260331.0,0.0
1583167238156,6492672.0,5109770.0,0.0
1583167238210,6381181.0,5017036.0,0.0
1583167238257,6230026.0,4906209.0,0.0
1583167238306,6117559.0,4787189.0,0.0
1583167238351,6064133.0,4744747.0,0.0
1583167238402,6101830.0,4745034.0,0.0
1583167238451,6087331.0,4725501.0,0.0
1583167238499,6029798.0,4687559.0,0.0
1583167238548,5939568.0,4631057.0,0.0
1583167238594,5971862.0,4632296.0,0.0
1583167238644,6107793.0,4698531.0,0.0
1583167238692,6210652.0,4903472.0,0.0
1583167238741,6285881.0,4933378.0,0.0
1583167238790,6334054.0,4947340.0,0.0
1583167238838,6335229.0,5052239.0,0.0
1583167238887,6367927.0,5167782.0,0.0
1583167238930,6384032.0,5235184.0,0.0
1583167238983,6415472.0,5276971.0,0.0
1583167239031,6459289.0,5520622.0,0.0
1583167239079,6518427.0,6266621.0,0.0
1583167239128,6671470.0,7225600.0,0.0
1583167239174,7491049.0,8291699.0,0.0
1583167239226,7450152.0,9234990.0,0.0
1583167239272,7786059.0,1.0559201E7,0.0
1583167239322,8119268.0,1.1024793E7,0.0
1583167239370,8292048.0,1.0959759E7,0.0
1583167239419,7971297.0,1.1239277E7,0.0
1583167239463,8579990.0,1.1702127E7,0.0
1583167239512,8323265.0,1.1769798E7,0.0
1583167239564,8432298.0,1.228648E7,0.0
1583167239612,7119718.0,9535393.0,0.0
1583167239661,7006441.0,9137259.0,0.0
1583167239709,6839612.0,8345703.0,0.0
1583167239755,6562231.0,7873028.0,0.0
1583167239806,6606662.0,7788808.0,0.0
1583167239852,6581785.0,7773687.0,0.0
1583167239898,6500173.0,7721480.0,0.0
1583167239945,6514991.0,7632115.0,0.0
1583167239994,6519531.0,7584111.0,0.0
1583167240044,6522576.0,7479490.0,0.0
1583167240090,6521976.0,7442493.0,0.0
1583167240140,6506654.0,7402533.0,0.0
1583167240190,6531014.0,7396422.0,0.0
1583167240239,6588503.0,6886957.0,0.0
1583167240290,6627430.0,6980115.0,0.0
1583167240337,6662098.0,7019686.0,0.0
1583167240389,6682616.0,7022838.0,0.0
1583167240434,6720484.0,7135747.0,0.0
1583167240483,6743908.0,7182441.0,0.0
1583167240531,6807431.0,7225040.0,0.0
1583167240580,6892285.0,7269312.0,0.0
1583167240628,6913026.0,7232307.0,0.0
1583167240671,6941645.0,7209456.0,0.0
1583167240726,6966593.0,7245324.0,0.0
1583167240772,6944496.0,7227478.0,0.0
1583167240822,6887815.0,7159344.0,0.0
1583167240869,6877675.0,7127644.0,0.0
1583167240918,6864476.0,7060150.0,0.0
1583167240968,6835885.0,7010179.0,0.0
1583167241013,6797166.0,6940617.0,0.0
1583167241063,6769091.0,6880726.0,0.0
1583167241111,6772555.0,6889792.0,0.0
1583167241160,6773574.0,6891715.0,0.0
1583167241209,6790992.0,6925568.0,0.0
1583167241254,6770878.0,6847673.0,0.0
1583167241305,6799134.0,6849382.0,0.0
1583167241354,6765753.0,6780963.0,0.0
1583167241402,6729032.0,6695782.0,0.0
1583167241451,6702228.0,6651171.0,0.0
1583167241497,6677574.0,6605155.0,0.0
1583167241548,6648104.0,6580185.0,0.0
1583167241598,6624080.0,6519014.0,0.0
1583167241644,6592135.0,6533740.0,0.0
1583167241692,6480730.0,6457020.0,0.0
1583167241741,6486917.0,6505676.0,0.0
1583167241789,6514670.0,6534828.0,0.0
1583167241835,6519880.0,6540508.0,0.0
1583167241885,6517353.0,6531801.0,0.0
1583167241933,6486051.0,6514204.0,0.0
1583167241982,6502379.0,6548505.0,0.0
1583167242030,6505256.0,6496112.0,0.0
1583167242076,6504683.0,6464627.0,0.0
1583167242127,6498607.0,6469059.0,0.0
1583167242173,6494697.0,6501008.0,0.0
1583167242225,6486497.0,6517481.0,0.0
1583167242272,6465854.0,6557321.0,0.0
1583167242319,6460114.0,6560988.0,0.0
1583167242370,6473635.0,6518960.0,0.0
1583167242415,6450140.0,6471056.0,0.0
1583167242466,6413909.0,6414102.0,0.0
1583167242513,6384855.0,6429987.0,0.0
1583167242563,6356655.0,6394067.0,0.0
1583167242610,6325815.0,6383737.0,0.0
1583167242654,6350790.0,6400604.0,0.0
1583167242709,6367214.0,6407318.0,0.0
1583167242755,6325898.0,6394246.0,0.0
1583167242804,6243014.0,6408403.0,0.0
1583167242853,6348862.0,6476595.0,0.0
1583167242897,6338176.0,6550483.0,0.0
1583167242950,6325187.0,6579740.0,0.0
1583167242997,6297838.0,6616000.0,0.0
1583167243048,6266006.0,6639027.0,0.0
1583167243094,6246590.0,6586009.0,0.0
1583167243143,6200596.0,6558870.0,0.0
1583167243195,6175523.0,6509148.0,0.0
1583167243234,6177912.0,6457414.0,0.0
1583167243288,6181837.0,6488720.0,0.0
1583167243335,6216099.0,6509363.0,0.0
1583167243384,6239229.0,6529289.0,0.0
1583167243434,6230668.0,6509184.0,0.0
1583167243479,6224619.0,6500387.0,0.0
1583167243530,6232330.0,6482060.0,0.0
1583167243576,6277948.0,6463718.0,0.0
1583167243627,6289470.0,6497411.0,0.0
1583167243674,6348413.0,6582572.0,0.0
1583167243724,6415053.0,6575324.0,0.0
1583167243772,6405416.0,6640966.0,0.0
1583167243817,6330900.0,6639491.0,0.0
1583167243869,6433071.0,6680896.0,0.0
1583167243912,6452487.0,6731382.0,0.0
1583167243966,6372816.0,6687430.0,0.0
1583167244012,6346069.0,6671990.0,0.0
1583167244063,6340522.0,6690566.0,0.0
1583167244110,6353470.0,6747091.0,0.0
1583167244156,6339069.0,6760358.0,0.0
1583167244210,6327883.0,6732681.0,0.0
1583167244255,6437318.0,6727785.0,0.0
1583167244306,6541432.0,6738329.0,0.0
1583167244354,6536460.0,6779590.0,0.0
1583167244402,6563837.0,6809436.0,0.0
1583167244449,6738459.0,6873209.0,0.0
1583167244501,6564746.0,6859907.0,0.0
1583167244548,6540651.0,6877913.0,0.0
1583167244596,6556950.0,6873049.0,0.0
1583167244645,6547174.0,6859356.0,0.0
1583167244693,6571141.0,6848137.0,0.0
1583167244735,6530580.0,6818627.0,0.0
1583167244790,6438548.0,6799555.0,0.0
1583167244836,6367116.0,6783596.0,0.0
1583167244887,6380554.0,6783865.0,0.0
1583167244934,6356796.0,6771628.0,0.0
1583167244982,6406324.0,6797292.0,0.0
1583167245032,6412330.0,6769315.0,0.0
1583167245078,6447402.0,6790739.0,0.0
1583167245129,6470841.0,6782032.0,0.0
1583167245176,6556014.0,6833872.0,0.0
1583167245227,6581965.0,6838483.0,0.0
1583167245273,6722705.0,6884057.0,0.0
1583167245320,6721643.0,6944819.0,0.0
1583167245371,6703626.0,7042803.0,0.0
1583167245419,6780865.0,7146736.0,0.0
1583167245468,6817029.0,7206963.0,0.0
1583167245515,6724464.0,7192822.0,0.0
1583167245566,6826694.0,7227782.0,0.0
1583167245613,6752175.0,7177616.0,0.0
1583167245659,6655367.0,7128000.0,0.0
1583167245711,6696668.0,7128764.0,0.0
1583167245758,6589091.0,7057977.0,0.0
1583167245808,6481960.0,7020134.0,0.0
1583167245855,6540468.0,7078188.0,0.0
1583167245900,6527159.0,7054252.0,0.0
1583167245953,6576617.0,7070905.0,0.0
1583167246002,6599998.0,7064691.0,0.0
1583167246050,6525593.0,7049001.0,0.0
1583167246098,6502309.0,7021129.0,0.0
1583167246146,6535092.0,7044496.0,0.0
1583167246193,6493761.0,7033328.0,0.0
1583167246242,6456844.0,7020844.0,0.0
1583167246291,6440224.0,7007542.0,0.0
1583167246340,6335648.0,6948006.0,0.0
1583167246388,6326723.0,6932764.0,0.0
1583167246436,6280686.0,6880707.0,0.0
1583167246486,6283256.0,6895971.0,0.0
1583167246533,6267625.0,6878019.0,0.0
1583167246580,6251745.0,6866230.0,0.0
1583167246625,6234621.0,6853104.0,0.0
1583167246677,6200259.0,6845056.0,0.0
1583167246728,6239091.0,6898233.0,0.0
1583167246774,6291245.0,6943574.0,0.0
1583167246822,6323328.0,6957571.0,0.0
1583167246871,6302782.0,6873888.0,0.0
1583167246919,6297306.0,6829472.0,0.0
1583167246968,6287221.0,6752006.0,0.0
1583167247016,6299570.0,6734179.0,0.0
1583167247064,6320200.0,6783276.0,0.0
1583167247113,6358778.0,6867155.0,0.0
1583167247161,6385400.0,6952192.0,0.0
1583167247212,6393991.0,7023856.0,0.0
1583167247258,6395610.0,7079488.0,0.0
1583167247308,6418979.0,7147145.0,0.0
1583167247355,6443966.0,7210025.0,0.0
1583167247401,6469624.0,7253481.0,0.0
1583167247452,6469220.0,7269936.0,0.0
1583167247500,6476190.0,7284236.0,0.0
1583167247550,6483202.0,7304752.0,0.0
1583167247597,6474501.0,7301136.0,0.0
1583167247646,6474403.0,7299852.0,0.0
1583167247694,6451398.0,7279107.0,0.0
1583167247741,6421913.0,7250345.0,0.0
1583167247792,6344714.0,7217577.0,0.0
1583167247840,6274218.0,7161052.0,0.0
1583167247889,6175804.0,7099667.0,0.0
1583167247936,6095796.0,6984995.0,0.0
1583167247982,6020274.0,6920012.0,0.0
1583167248033,5916968.0,6831555.0,0.0
1583167248081,5846292.0,6754713.0,0.0
1583167248130,5814392.0,6685667.0,0.0
1583167248177,5786890.0,6645670.0,0.0
1583167248224,5744218.0,6602217.0,0.0
1583167248275,5750851.0,6600380.0,0.0
1583167248322,5740390.0,6609536.0,0.0
1583167248371,5679603.0,6560899.0,0.0
1583167248419,5639936.0,6531603.0,0.0
1583167248469,5585182.0,6485961.0,0.0
1583167248516,5548656.0,6443612.0,0.0
1583167248562,5520735.0,6416259.0,0.0
1583167248613,5462462.0,6356278.0,0.0
1583167248662,5464405.0,6311062.0,0.0
1583167248711,5486767.0,6332201.0,0.0
1583167248758,5508891.0,6294944.0,0.0
1583167248807,5787545.0,6277939.0,0.0
1583167248855,5991220.0,6278560.0,0.0
1583167248905,7273168.0,6122716.0,0.0
1583167248948,9123960.0,6087475.0,0.0
1583167249001,1.0685354E7,6723100.0,0.0
1583167249051,1.0964944E7,7796092.0,0.0
1583167249097,1.2208696E7,7132275.0,0.0
1583167249143,1.2272855E7,6996198.0,0.0
1583167249193,1.2206054E7,6936128.0,0.0
1583167249243,1.2208925E7,6913708.0,0.0
1583167249292,1.1864887E7,6647273.0,0.0
1583167249340,1.1700288E7,6519849.0,0.0
1583167249385,1.1529109E7,6412288.0,0.0
1583167249431,1.1408294E7,6269337.0,0.0
1583167249483,1.1378022E7,6155680.0,0.0
1583167249533,1.1417437E7,6087635.0,0.0
1583167249581,1.111229E7,5914425.0,0.0
1583167249626,1.0816264E7,5716268.0,0.0
1583167249678,1.0472814E7,5610787.0,0.0
1583167249724,1.0305817E7,5568723.0,0.0
1583167249774,1.02939E7,5183813.0,0.0
1583167249823,1.039339E7,4768772.0,0.0
1583167249872,1.0418154E7,4732222.0,0.0
1583167249915,1.0844138E7,4777511.0,0.0
1583167249965,1.1269077E7,4991312.0,0.0
1583167250016,1.1211592E7,5122661.0,0.0
1583167250064,1.1221329E7,5155549.0,0.0
1583167250114,1.1070809E7,5223899.0,0.0
1583167250161,1.0857177E7,5243300.0,0.0
1583167250205,1.0630434E7,5235610.0,0.0
1583167250258,1.0581568E7,5250570.0,0.0
1583167250307,1.0319995E7,5392859.0,0.0
1583167250355,1.01184E7,5474488.0,0.0
1583167250399,1.0174464E7,5472256.0,0.0
1583167250452,1.0194385E7,5479269.0,0.0
1583167250501,1.014699E7,5470383.0,0.0
1583167250545,1.0110946E7,5493916.0,0.0
1583167250597,1.0071125E7,5538212.0,0.0
1583167250646,1.008689E7,5567479.0,0.0
1583167250694,1.0039138E7,5569483.0,0.0
1583167250743,9905361.0,5536462.0,0.0
1583167250791,9771106.0,5547691.0,0.0
1583167250839,9475268.0,5483953.0,0.0
1583167250888,9259592.0,5347944.0,0.0
1583167250935,8989422.0,5390177.0,0.0
1583167250985,8913629.0,5401660.0,0.0
1583167251033,8888960.0,5420131.0,0.0
1583167251081,8749742.0,5289302.0,0.0
1583167251131,8589346.0,5268427.0,0.0
1583167251177,8428164.0,5224586.0,0.0
1583167251230,8378419.0,5110298.0,0.0
1583167251273,8646976.0,5066493.0,0.0
1583167251323,1.7084902E7,5985796.0,0.0
1583167251366,1.7877908E7,6162024.0,0.0
1583167251419,1.3680021E7,5971200.0,0.0
1583167251470,1.3616597E7,5961613.0,0.0
1583167251516,1.190359E7,5688868.0,0.0
1583167251565,1.1084868E7,5497428.0,0.0
1583167251609,1.0750728E7,5348885.0,0.0
1583167251661,1.0502638E7,5316022.0,0.0
1583167251712,1.133003E7,5339661.0,0.0
1583167251758,1.1556795E7,5175725.0,0.0
1583167251811,1.129952E7,5136919.0,0.0
1583167251852,9286284.0,5012030.0,0.0
1583167251904,8838903.0,4932610.0,0.0
1583167251947,8808699.0,4892355.0,0.0
1583167252003,9124364.0,4874704.0,0.0
1583167252049,9332300.0,4835813.0,0.0
1583167252097,8701969.0,4803035.0,0.0
1583167252146,7854489.0,4753664.0,0.0
1583167252192,7659848.0,4780528.0,0.0
1583167252243,7595357.0,4813550.0,0.0
1583167252286,7478532.0,4767574.0,0.0
1583167252340,6952680.0,4615035.0,0.0
1583167252393,8185586.0,4653669.0,0.0
1583167252437,7768771.0,4876574.0,0.0
1583167252486,7805605.0,4988800.0,0.0
1583167252527,7762940.0,5002999.0,0.0
1583167252581,8107752.0,4983886.0,0.0
1583167252630,8687228.0,4893876.0,0.0
1583167252677,9076941.0,4912253.0,0.0
1583167252727,1.0861184E7,5051969.0,0.0
1583167252775,1.1200747E7,5213696.0,0.0
1583167252824,1.1939846E7,5530812.0,0.0
1583167252867,1.0687484E7,5411078.0,0.0
1583167252916,9740378.0,5264804.0,0.0
1583167252970,9382406.0,5185841.0,0.0
1583167253016,9277466.0,5166294.0,0.0
1583167253066,9321576.0,5227617.0,0.0
1583167253114,9551009.0,5338634.0,0.0
1583167253162,9546415.0,5468114.0,0.0
1583167253212,9396109.0,5505227.0,0.0
1583167253259,9412587.0,5537742.0,0.0
1583167253307,9309561.0,5558002.0,0.0
1583167253355,9250903.0,5560259.0,0.0
1583167253404,9209249.0,5580483.0,0.0
1583167253449,9178637.0,5599572.0,0.0
1583167253501,9165797.0,5639174.0,0.0
1583167253546,9212998.0,5610003.0,0.0
1583167253598,9154472.0,5588221.0,0.0
1583167253646,9030992.0,5539022.0,0.0
1583167253690,8790447.0,5413334.0,0.0
1583167253743,8804712.0,5435600.0,0.0
1583167253789,8840252.0,5453288.0,0.0
1583167253841,8825670.0,5446441.0,0.0
1583167253887,8758895.0,5404908.0,0.0
1583167253936,8698027.0,5353799.0,0.0
1583167253985,8661022.0,5324895.0,0.0
1583167254031,8600192.0,5317072.0,0.0
1583167254081,8555745.0,5316141.0,0.0
1583167254129,8510231.0,5301389.0,0.0
1583167254178,8462090.0,5281937.0,0.0
1583167254226,8390932.0,5246561.0,0.0
1583167254271,8348170.0,5217499.0,0.0
1583167254324,8324008.0,5209723.0,0.0
1583167254373,8307924.0,5208142.0,0.0
1583167254419,8284567.0,5200355.0,0.0
1583167254469,8242967.0,5171560.0,0.0
1583167254516,8186880.0,5138924.0,0.0
1583167254566,8143895.0,5116214.0,0.0
1583167254611,8138610.0,5115418.0,0.0
1583167254661,8116732.0,5105722.0,0.0
1583167254710,8095589.0,5093720.0,0.0
1583167254758,8105017.0,5095979.0,0.0
1583167254802,8091408.0,5088336.0,0.0
1583167254851,8105879.0,5087418.0,0.0
1583167254900,8094989.0,5069791.0,0.0
1583167254948,8090489.0,5056485.0,0.0
1583167254997,8074253.0,5042709.0,0.0
1583167255050,8060833.0,5048239.0,0.0
1583167255098,8109345.0,5126718.0,0.0
1583167255147,8166992.0,5219323.0,0.0
1583167255191,8264677.0,5287684.0,0.0
1583167255245,8300348.0,5227122.0,0.0
1583167255289,8262016.0,5146276.0,0.0
1583167255341,8200751.0,5081864.0,0.0
1583167255389,8175333.0,5051257.0,0.0
1583167255433,8128788.0,5000812.0,0.0
1583167255487,8103649.0,4981736.0,0.0
1583167255529,8084301.0,4969313.0,0.0
1583167255583,8027765.0,4931425.0,0.0
1583167255634,7950905.0,4874934.0,0.0
1583167255679,7872512.0,4830066.0,0.0
1583167255729,7820284.0,4802321.0,0.0
1583167255775,7790682.0,4784609.0,0.0
1583167255826,7752498.0,4765194.0,0.0
1583167255872,7722448.0,4749511.0,0.0
1583167255917,7678450.0,4727742.0,0.0
1583167255971,7651045.0,4713435.0,0.0
1583167256019,7622362.0,4702231.0,0.0
1583167256066,7606373.0,4697088.0,0.0
1583167256110,7583127.0,4690290.0,0.0
1583167256164,7519410.0,4655928.0,0.0
1583167256214,7456744.0,4617064.0,0.0
1583167256260,7404648.0,4591262.0,0.0
1583167256309,7365376.0,4570326.0,0.0
1583167256354,7323627.0,4557732.0,0.0
1583167256406,7301207.0,4538548.0,0.0
1583167256452,7263565.0,4515269.0,0.0
1583167256502,7273707.0,4516477.0,0.0
1583167256552,7274549.0,4516453.0,0.0
1583167256599,7267877.0,4512227.0,0.0
1583167256647,7257266.0,4509824.0,0.0
1583167256690,7236402.0,4493440.0,0.0
1583167256745,7178007.0,4460309.0,0.0
1583167256793,7144602.0,4427290.0,0.0
1583167256841,7127582.0,4413101.0,0.0
1583167256890,7114890.0,4398420.0,0.0
1583167256937,7113391.0,4391719.0,0.0
1583167256988,7084897.0,4376966.0,0.0
1583167257032,7072542.0,4364541.0,0.0
1583167257083,7079855.0,4357261.0,0.0
1583167257131,7079929.0,4352154.0,0.0
1583167257179,7073387.0,4342037.0,0.0
1583167257229,7076500.0,4334019.0,0.0
1583167257272,7029184.0,4306080.0,0.0
1583167257328,6981588.0,4282381.0,0.0
1583167257372,6949625.0,4260877.0,0.0
1583167257422,6955267.0,4288442.0,0.0
1583167257472,6968316.0,4290251.0,0.0
1583167257519,6965803.0,4279664.0,0.0
1583167257568,6966218.0,4269678.0,0.0
1583167257613,6972685.0,4267446.0,0.0
1583167257664,7007946.0,4317793.0,0.0
1583167257713,7018893.0,4325471.0,0.0
1583167257761,7019472.0,4314279.0,0.0
1583167257811,6987119.0,4313385.0,0.0
1583167257857,6926736.0,4268472.0,0.0
1583167257909,6869881.0,4224644.0,0.0
1583167257953,6879986.0,4210241.0,0.0
1583167258003,6915658.0,4171810.0,0.0
1583167258052,7050010.0,4220238.0,0.0
1583167258100,7201852.0,4300719.0,0.0
1583167258148,7335194.0,4400798.0,0.0
1583167258191,7463548.0,4525001.0,0.0
1583167258247,7583804.0,4642043.0,0.0
1583167258293,7685295.0,4730411.0,0.0
1583167258342,7763034.0,4841923.0,0.0
1583167258391,7767494.0,4869946.0,0.0
1583167258438,7762714.0,4857606.0,0.0
1583167258488,7779735.0,4853562.0,0.0
1583167258535,7840249.0,4888565.0,0.0
1583167258584,7915627.0,4930520.0,0.0
1583167258632,7988961.0,4965751.0,0.0
1583167258681,8068557.0,5007730.0,0.0
1583167258730,8124719.0,5017656.0,0.0
1583167258774,8201222.0,5036780.0,0.0
1583167258828,8267264.0,5036201.0,0.0
1583167258874,8330270.0,5039303.0,0.0
1583167258919,8355183.0,5023149.0,0.0
1583167258972,8367518.0,5002226.0,0.0
1583167259019,8337485.0,4983391.0,0.0
1583167259070,8319319.0,4981072.0,0.0
1583167259117,8293207.0,4971704.0,0.0
1583167259168,8275904.0,4986120.0,0.0
1583167259218,8260965.0,4999896.0,0.0
1583167259263,8256653.0,5011861.0,0.0
1583167259311,8252362.0,5016786.0,0.0
1583167259358,8254834.0,5007514.0,0.0
1583167259408,8255454.0,5005980.0,0.0
1583167259455,8262915.0,5011293.0,0.0
1583167259500,8263831.0,5021351.0,0.0
1583167259554,8272417.0,5017571.0,0.0
1583167259602,8240869.0,4995041.0,0.0
1583167259651,8214757.0,4958917.0,0.0
1583167259693,8207727.0,4931317.0,0.0
1583167259747,8189281.0,4922975.0,0.0
1583167259794,8191097.0,4907543.0,0.0
1583167259845,8202327.0,4897197.0,0.0
1583167259892,8206750.0,4880112.0,0.0
1583167259941,8226620.0,4877735.0,0.0
1583167259989,8255733.0,4895399.0,0.0
1583167260040,8294032.0,4932668.0,0.0
1583167260082,8337879.0,4988752.0,0.0
1583167260128,8400192.0,5142799.0,0.0
1583167260181,8451200.0,5277626.0,0.0
1583167260227,8511093.0,5443458.0,0.0
1583167260274,8573702.0,5625120.0,0.0
1583167260328,8658118.0,5851164.0,0.0
1583167260375,8738836.0,6059083.0,0.0
1583167260424,8848576.0,6157607.0,0.0
1583167260473,8938371.0,6200792.0,0.0
1583167260520,8994081.0,6165393.0,0.0
1583167260570,8998265.0,6034273.0,0.0
1583167260618,8946826.0,5904590.0,0.0
1583167260667,8862278.0,5776065.0,0.0
1583167260714,8822426.0,5703068.0,0.0
1583167260764,8880559.0,5768784.0,0.0
1583167260812,8938539.0,5853518.0,0.0
1583167260855,9005574.0,5936451.0,0.0
1583167260909,9018977.0,5979168.0,0.0
1583167260956,9055477.0,6064722.0,0.0
1583167261000,9087083.0,6161891.0,0.0
1583167261053,9141669.0,6278922.0,0.0
1583167261101,9239861.0,6362461.0,0.0
1583167261149,9311528.0,6384121.0,0.0
1583167261199,9353667.0,6402243.0,0.0
1583167261248,9399690.0,6417818.0,0.0
1583167261294,9416336.0,6412554.0,0.0
1583167261345,9449704.0,6414739.0,0.0
1583167261392,9474485.0,6411841.0,0.0
1583167261436,9514172.0,6411044.0,0.0
1583167261490,9551777.0,6411648.0,0.0
1583167261537,9561788.0,6380196.0,0.0
1583167261586,9554044.0,6349275.0,0.0
1583167261634,9542740.0,6344736.0,0.0
1583167261680,9548160.0,6355095.0,0.0
1583167261731,9579466.0,6376827.0,0.0
1583167261779,9594816.0,6378747.0,0.0
1583167261827,9609044.0,6389336.0,0.0
1583167261875,9639956.0,6417056.0,0.0
1583167261920,9669483.0,6440879.0,0.0
1583167261973,9698108.0,6466763.0,0.0
1583167262021,9713536.0,6485454.0,0.0
1583167262066,9751477.0,6527036.0,0.0
1583167262117,9773487.0,6549360.0,0.0
1583167262168,9816862.0,6579846.0,0.0
1583167262214,9824080.0,6552669.0,0.0
1583167262262,9833360.0,6551426.0,0.0
1583167262312,9859718.0,6569873.0,0.0
1583167262358,9875482.0,6606433.0,0.0
1583167262408,9908756.0,6637051.0,0.0
1583167262456,9920734.0,6662877.0,0.0
1583167262506,9956746.0,6751160.0,0.0
1583167262553,9979765.0,6794083.0,0.0
1583167262600,1.0018007E7,6856346.0,0.0
1583167262651,1.0037372E7,6877971.0,0.0
1583167262699,1.0055706E7,6906344.0,0.0
1583167262748,1.0073084E7,6931252.0,0.0
1583167262795,1.0091156E7,6949037.0,0.0
1583167262844,1.0123809E7,6949120.0,0.0
1583167262892,1.0128272E7,6927882.0,0.0
1583167262941,1.0102814E7,6847351.0,0.0
1583167262991,1.0083974E7,6813858.0,0.0
1583167263038,1.0071865E7,6790775.0,0.0
1583167263088,1.0072838E7,6779945.0,0.0
1583167263134,1.007777E7,6766542.0,0.0
1583167263178,1.0073232E7,6734559.0,0.0
1583167263233,1.0054713E7,6699352.0,0.0
1583167263278,1.0039811E7,6650055.0,0.0
1583167263325,9999767.0,6589541.0,0.0
1583167263370,9970937.0,6546041.0,0.0
1583167263421,9944562.0,6503554.0,0.0
1583167263470,9934720.0,6497093.0,0.0
1583167263519,9935077.0,6507224.0,0.0
1583167263568,9951424.0,6537105.0,0.0
1583167263618,9975491.0,6583517.0,0.0
1583167263668,9967376.0,6566167.0,0.0
1583167263715,9972981.0,6576128.0,0.0
1583167263763,9989982.0,6603365.0,0.0
1583167263813,1.0023649E7,6643800.0,0.0
1583167263860,1.0049707E7,6645927.0,0.0
1583167263909,1.0048619E7,6596243.0,0.0
1583167263958,1.0015046E7,6539726.0,0.0
1583167264008,9979634.0,6487857.0,0.0
1583167264054,9925497.0,6416670.0,0.0
1583167264101,9887723.0,6349227.0,0.0
1583167264147,9829460.0,6278185.0,0.0
1583167264200,9728043.0,6158221.0,0.0
1583167264249,9678743.0,6102139.0,0.0
1583167264297,9614800.0,6038415.0,0.0
1583167264340,9507385.0,5927734.0,0.0
1583167264389,9356143.0,5757036.0,0.0
1583167264441,9211610.0,5594851.0,0.0
1583167264490,9103727.0,5479378.0,0.0
1583167264538,8998393.0,5370292.0,0.0
1583167264588,8878083.0,5253987.0,0.0
1583167264631,8742005.0,5135121.0,0.0
1583167264680,8624542.0,5036068.0,0.0
1583167264732,8515496.0,4953255.0,0.0
1583167264781,8418132.0,4875934.0,0.0
1583167264830,8324493.0,4812053.0,0.0
1583167264877,8324719.0,4862485.0,0.0
1583167264922,8385458.0,4950755.0,0.0
1583167264973,8352239.0,4913737.0,0.0
1583167265033,8201071.0,4790708.0,0.0
1583167265064,8077611.0,4699357.0,0.0
1583167265118,7988604.0,4643564.0,0.0
1583167265168,7930755.0,4610325.0,0.0
1583167265215,7858132.0,4556912.0,0.0
1583167265262,7757541.0,4493212.0,0.0
1583167265313,7670935.0,4437575.0,0.0
1583167265361,7590325.0,4383485.0,0.0
1583167265411,7534837.0,4343341.0,0.0
1583167265458,7486080.0,4319362.0,0.0
1583167265507,7461372.0,4321099.0,0.0
1583167265554,7444183.0,4321258.0,0.0
1583167265602,7420638.0,4301602.0,0.0
1583167265651,7306886.0,4211471.0,0.0
1583167265699,7195853.0,4138426.0,0.0
1583167265750,7127824.0,4099126.0,0.0
1583167265796,7100608.0,4092860.0,0.0
1583167265842,7068513.0,4075908.0,0.0
1583167265893,7015518.0,4036438.0,0.0
1583167265942,6965824.0,3999687.0,0.0
1583167265991,6940907.0,3981444.0,0.0
1583167266039,6930054.0,3976795.0,0.0
1583167266084,6932567.0,3978207.0,0.0
1583167266135,6945953.0,3986503.0,0.0
1583167266183,6959973.0,3989291.0,0.0
1583167266228,6957911.0,3987601.0,0.0
1583167266282,6897492.0,3945246.0,0.0
1583167266331,6838817.0,3912454.0,0.0
1583167266378,6829052.0,3903002.0,0.0
1583167266424,6838332.0,3915207.0,0.0
1583167266470,6857003.0,3819261.0,0.0
1583167266525,6837376.0,3807829.0,0.0
1583167266573,6813756.0,3789230.0,0.0
1583167266620,6785185.0,3766932.0,0.0
1583167266669,6758659.0,3742717.0,0.0
1583167266717,6738826.0,3717250.0,0.0
1583167266764,6717382.0,3699758.0,0.0
1583167266814,6679983.0,3681149.0,0.0
1583167266863,6624983.0,3646340.0,0.0
1583167266912,6549588.0,3594095.0,0.0
1583167266960,6493423.0,3550145.0,0.0
1583167267005,6460112.0,3523319.0,0.0
1583167267056,6438817.0,3504883.0,0.0
1583167267104,6415235.0,3481614.0,0.0
1583167267154,6375659.0,3450252.0,0.0
1583167267202,6332544.0,3424390.0,0.0
1583167267245,6311248.0,3399586.0,0.0
1583167267298,6291415.0,3381170.0,0.0
1583167267344,6276102.0,3363563.0,0.0
1583167267395,6250512.0,3331884.0,0.0
1583167267443,6205315.0,3296747.0,0.0
1583167267493,6164601.0,3241998.0,0.0
1583167267540,6192811.0,3236199.0,0.0
1583167267588,6254976.0,3240813.0,0.0
1583167267632,6340176.0,3294589.0,0.0
1583167267685,6419546.0,3338867.0,0.0
1583167267734,6602448.0,3409026.0,0.0
1583167267781,6811917.0,3529734.0,0.0
1583167267829,6960367.0,3610103.0,0.0
1583167267879,7034115.0,3654286.0,0.0
1583167267926,7050630.0,3696946.0,0.0
1583167267977,7038669.0,3707310.0,0.0
1583167268025,7015929.0,3698159.0,0.0
1583167268067,6981477.0,3660123.0,0.0
1583167268122,6947658.0,3624986.0,0.0
1583167268165,6933278.0,3611702.0,0.0
1583167268218,6917756.0,3594953.0,0.0
1583167268269,6897849.0,3580294.0,0.0
1583167268311,6885008.0,3566596.0,0.0
1583167268360,6866337.0,3553284.0,0.0
1583167268406,6849071.0,3541467.0,0.0
1583167268457,6834883.0,3534801.0,0.0
1583167268508,6823558.0,3528964.0,0.0
1583167268553,6811691.0,3524640.0,0.0
1583167268602,6768444.0,3495214.0,0.0
1583167268650,6721842.0,3461164.0,0.0
1583167268702,6695356.0,3446341.0,0.0
1583167268746,6686187.0,3446408.0,0.0
1583167268799,6683152.0,3446523.0,0.0
1583167268853,6681182.0,3443614.0,0.0
1583167268896,6667405.0,3428453.0,0.0
1583167268939,6654618.0,3421915.0,0.0
1583167268989,6657488.0,3421750.0,0.0
1583167269041,6681953.0,3437305.0,0.0
1583167269089,6767565.0,3573117.0,0.0
1583167269137,6807043.0,3611751.0,0.0
1583167269187,6782955.0,3565864.0,0.0
1583167269229,6740082.0,3522838.0,0.0
1583167269284,6716069.0,3501840.0,0.0
1583167269326,6700567.0,3490832.0,0.0
1583167269380,6682270.0,3477837.0,0.0
1583167269432,6668641.0,3462166.0,0.0
1583167269477,6655764.0,3453988.0,0.0
1583167269526,6641141.0,3443894.0,0.0
1583167269570,6647872.0,3442864.0,0.0
1583167269622,6653813.0,3435688.0,0.0
1583167269666,6643149.0,3421220.0,0.0
1583167269718,6603930.0,3386989.0,0.0
1583167269767,6571631.0,3358941.0,0.0
1583167269814,6556146.0,3347931.0,0.0
1583167269865,6548705.0,3345812.0,0.0
1583167269911,6538283.0,3334042.0,0.0
1583167269961,6535319.0,3323918.0,0.0
1583167270011,6508045.0,3305790.0,0.0
1583167270057,6501089.0,3295004.0,0.0
1583167270108,6504107.0,3290967.0,0.0
1583167270150,6497360.0,3286363.0,0.0
1583167270197,6500998.0,3281527.0,0.0
1583167270246,6473515.0,3253430.0,0.0
1583167270300,6444122.0,3230516.0,0.0
1583167270349,6426667.0,3215664.0,0.0
1583167270391,6423801.0,3212245.0,0.0
1583167270445,6419920.0,3208594.0,0.0
1583167270492,6407474.0,3193819.0,0.0
1583167270542,6393640.0,3184284.0,0.0
1583167270590,6392458.0,3180007.0,0.0
1583167270633,6390302.0,3181722.0,0.0
1583167270688,6397069.0,3182858.0,0.0
1583167270735,6393300.0,3178764.0,0.0
1583167270784,6373524.0,3163652.0,0.0
1583167270826,6334046.0,3130124.0,0.0
1583167270881,6307162.0,3108933.0,0.0
1583167270929,6294285.0,3103577.0,0.0
1583167270977,6295127.0,3104154.0,0.0
1583167271027,6288754.0,3059504.0,0.0
1583167271072,6270571.0,3050142.0,0.0
1583167271123,6251038.0,3039924.0,0.0
1583167271170,6225957.0,3029650.0,0.0
1583167271219,6231747.0,3038193.0,0.0
1583167271269,6238160.0,3044904.0,0.0
1583167271315,6248788.0,3051479.0,0.0
1583167271365,6249071.0,3047222.0,0.0
1583167271409,6229706.0,3025556.0,0.0
1583167271460,6205803.0,3009186.0,0.0
1583167271505,6197574.0,3004304.0,0.0
1583167271558,6190750.0,3004505.0,0.0
1583167271603,6180665.0,3003680.0,0.0
1583167271651,6172756.0,2996085.0,0.0
1583167271699,6154853.0,2986983.0,0.0
1583167271751,6147055.0,2982369.0,0.0
1583167271800,6133295.0,2977206.0,0.0
1583167271849,6117059.0,2974866.0,0.0
1583167271897,6115654.0,2971373.0,0.0
1583167271941,6096178.0,2959254.0,0.0
1583167271991,6073532.0,2938924.0,0.0
1583167272042,6051075.0,2927993.0,0.0
1583167272088,6044813.0,2928016.0,0.0
1583167272139,5683698.0,2933522.0,0.0
1583167272188,5641451.0,2930245.0,0.0
1583167272230,5628088.0,2926433.0,0.0
1583167272286,5620080.0,2924413.0,0.0
1583167272333,5617331.0,2925683.0,0.0
1583167272381,5616947.0,2930675.0,0.0
1583167272431,5616048.0,2934288.0,0.0
1583167272473,5615380.0,2939430.0,0.0
1583167272529,5600706.0,2922487.0,0.0
1583167272571,5580231.0,2909285.0,0.0
1583167272624,5569105.0,2910600.0,0.0
1583167272670,5565742.0,2915080.0,0.0
1583167272720,5562680.0,2920675.0,0.0
1583167272770,5562536.0,2917591.0,0.0
1583167272817,5557565.0,2915013.0,0.0
1583167272866,5554176.0,2916640.0,0.0
1583167272911,5555159.0,2924464.0,0.0
1583167272963,5558947.0,2930373.0,0.0
1583167273012,5553648.0,2933069.0,0.0
1583167273060,5545341.0,2925060.0,0.0
1583167273107,5530383.0,2907241.0,0.0
1583167273155,5511162.0,2896772.0,0.0
1583167273205,5507473.0,2897062.0,0.0
1583167273252,5507345.0,2901355.0,0.0
1583167273301,5505479.0,2908304.0,0.0
1583167273352,5503482.0,2910354.0,0.0
1583167273399,5498867.0,2908653.0,0.0
1583167273442,5499338.0,2909626.0,0.0
1583167273489,5494323.0,2911254.0,0.0
1583167273541,5495918.0,2915994.0,0.0
1583167273589,5494865.0,2922912.0,0.0
1583167273635,5493839.0,2924576.0,0.0
1583167273686,5480960.0,2911299.0,0.0
1583167273737,5474007.0,2901170.0,0.0
1583167273788,5473423.0,2904691.0,0.0
1583167273834,5473822.0,2909998.0,0.0
1583167273883,5473507.0,2911410.0,0.0
1583167273931,5471086.0,2912471.0,0.0
1583167273980,5467197.0,2912784.0,0.0
1583167274029,5469862.0,2914448.0,0.0
1583167274071,5469818.0,2920080.0,0.0
1583167274126,5474462.0,2923670.0,0.0
1583167274172,5477626.0,2927294.0,0.0
1583167274221,5476912.0,2932297.0,0.0
1583167274271,5492385.0,2943524.0,0.0
1583167274319,5491302.0,2937906.0,0.0
1583167274367,5487669.0,2930387.0,0.0
1583167274411,5483509.0,2932845.0,0.0
1583167274464,5484336.0,2935253.0,0.0
1583167274512,5487242.0,2935812.0,0.0
1583167274558,5479193.0,2934422.0,0.0
1583167274609,5476216.0,2932786.0,0.0
1583167274654,5481786.0,2936450.0,0.0
1583167274707,5479976.0,2942795.0,0.0
1583167274755,5485532.0,2947646.0,0.0
1583167274803,5491686.0,2951497.0,0.0
1583167274851,5480775.0,2942445.0,0.0
1583167274899,5472125.0,2928812.0,0.0
1583167274945,5467568.0,2925624.0,0.0
1583167274991,5467624.0,2929785.0,0.0
1583167275045,5470730.0,2935921.0,0.0
1583167275093,5471797.0,2938530.0,0.0
1583167275142,5468180.0,2937512.0,0.0
1583167275190,5471285.0,2937364.0,0.0
1583167275233,5469747.0,2937549.0,0.0
1583167275289,5475630.0,2942246.0,0.0
1583167275337,5475816.0,2948345.0,0.0
1583167275380,5479905.0,2952923.0,0.0
1583167275432,5483665.0,2954617.0,0.0
1583167275481,5482910.0,2954424.0,0.0
1583167275529,5471797.0,2939229.0,0.0
1583167275574,5467924.0,2931086.0,0.0
1583167275627,5465930.0,2933158.0,0.0
1583167275674,5466741.0,2936813.0,0.0
1583167275722,5472384.0,2940700.0,0.0
1583167275859,5469603.0,2936665.0,0.0
1583167275859,5467668.0,2934710.0,0.0
1583167275876,5465815.0,2936167.0,0.0
1583167276186,5470402.0,2936167.0,0.0
1583167276187,5473495.0,2940647.0,0.0
1583167276187,5476643.0,2940641.0,0.0
1583167276187,5477826.0,2941242.0,0.0
1583167276230,5473095.0,2934816.0,0.0
1583167276301,5467438.0,2926293.0,0.0
1583167276313,5464176.0,2921136.0,0.0
1583167276352,5479633.0,2932423.0,0.0
1583167276399,5488296.0,2950040.0,0.0
1583167276449,5495690.0,2961178.0,0.0
1583167276494,5500904.0,2963183.0,0.0
1583167276544,5500648.0,2966609.0,0.0
1583167276594,5502315.0,2971723.0,0.0
1583167276643,5503413.0,2969746.0,0.0
1583167276692,5511705.0,2979435.0,0.0
1583167276733,5519654.0,2984858.0,0.0
1583167276787,5517744.0,2989511.0,0.0
1583167276835,5513784.0,2985847.0,0.0
1583167276885,5507274.0,2974411.0,0.0
1583167276933,5507714.0,2966066.0,0.0
1583167276981,5506119.0,2966066.0,0.0
1583167277030,5507545.0,2970333.0,0.0
1583167277078,5514467.0,2968966.0,0.0
1583167277127,5511290.0,2966751.0,0.0
1583167277174,5506263.0,2959402.0,0.0
1583167277225,5502359.0,2957641.0,0.0
1583167277271,5506718.0,2963110.0,0.0
1583167277315,5507942.0,2966194.0,0.0
1583167277369,5505935.0,2967954.0,0.0
1583167277415,5507673.0,2969827.0,0.0
1583167277465,5502359.0,2964679.0,0.0
1583167277514,5491573.0,2955434.0,0.0
1583167277563,5487541.0,2949816.0,0.0
1583167277612,5485204.0,2947803.0,0.0
1583167277658,5487457.0,2951117.0,0.0
1583167277708,5484364.0,2954447.0,0.0
1583167277751,5482810.0,2955129.0,0.0
1583167277805,5481515.0,2954380.0,0.0
1583167277852,5484221.0,2955776.0,0.0
1583167277897,5480732.0,2959847.0,0.0
1583167277945,5481955.0,2963102.0,0.0
1583167277991,5488952.0,2966981.0,0.0
1583167278047,5483609.0,2968208.0,0.0
1583167278094,5476328.0,2961757.0,0.0
1583167278144,5474122.0,2953851.0,0.0
1583167278190,5470858.0,2951072.0,0.0
1583167278235,5470031.0,2948642.0,0.0
1583167278288,5463720.0,2945560.0,0.0
1583167278335,5456624.0,2944727.0,0.0
1583167278385,5455201.0,2943620.0,0.0
1583167278427,5455544.0,2951027.0,0.0
1583167278475,5454033.0,2953837.0,0.0
1583167278523,5456711.0,2950649.0,0.0
1583167278573,5451880.0,2951318.0,0.0
1583167278623,5453447.0,2950353.0,0.0
1583167278671,5444672.0,2940952.0,0.0
1583167278719,5428887.0,2933306.0,0.0
1583167278772,5425397.0,2929666.0,0.0
1583167278818,5422376.0,2930216.0,0.0
1583167278870,5421207.0,2932087.0,0.0
1583167278916,5418017.0,2928589.0,0.0
1583167278965,5414968.0,2926494.0,0.0
1583167279013,5413829.0,2926917.0,0.0
1583167279062,5410152.0,2926449.0,0.0
1583167279111,5407572.0,2932140.0,0.0
1583167279158,5410552.0,2936777.0,0.0
1583167279208,5414397.0,2940493.0,0.0
1583167279257,5414896.0,2940700.0,0.0
1583167279306,5414484.0,2936005.0,0.0
1583167279352,5413841.0,2934903.0,0.0
1583167279398,5418913.0,2939690.0,0.0
1583167279449,5428303.0,2948843.0,0.0
1583167279499,5433203.0,2952842.0,0.0
1583167279548,5429670.0,2954601.0,0.0
1583167279594,5431536.0,2950367.0,0.0
1583167279644,5436195.0,2953941.0,0.0
1583167279691,5438917.0,2959282.0,0.0
1583167279740,5451512.0,2966914.0,0.0
1583167279790,5470845.0,2978750.0,0.0
1583167279836,5497955.0,2991664.0,0.0
1583167279887,5521377.0,3000523.0,0.0
1583167279933,5513600.0,2994645.0,0.0
1583167279980,5495805.0,2978379.0,0.0
1583167280031,5494993.0,2977487.0,0.0
1583167280080,5492285.0,2979301.0,0.0
1583167280128,5484664.0,2975110.0,0.0
1583167280176,5484564.0,2974671.0,0.0
1583167280220,5482055.0,2978440.0,0.0
1583167280273,5488796.0,2982288.0,0.0
1583167280319,5494978.0,2988009.0,0.0
1583167280371,5484948.0,2975646.0,0.0
1583167280419,5470574.0,2963334.0,0.0
1583167280463,5471741.0,2961706.0,0.0
1583167280516,5468692.0,2955560.0,0.0
1583167280565,5468948.0,2961275.0,0.0
1583167280613,5472112.0,2966751.0,0.0
1583167280661,5475261.0,2972895.0,0.0
1583167280711,5477340.0,2974754.0,0.0
1583167280758,5477726.0,2972881.0,0.0
1583167280808,5480916.0,2973781.0,0.0
1583167280855,5496217.0,2983462.0,0.0
1583167280899,5514112.0,2999466.0,0.0
1583167280947,5534144.0,3001740.0,0.0
1583167281000,5562496.0,3011155.0,0.0
1583167281050,5582824.0,3021543.0,0.0
1583167281097,5611988.0,3036196.0,0.0
1583167281147,5636707.0,3052438.0,0.0
1583167281194,5667837.0,3062446.0,0.0
1583167281244,5692129.0,3069826.0,0.0
1583167281291,5705776.0,3069966.0,0.0
1583167281340,5731806.0,3081817.0,0.0
1583167281389,5732518.0,3080376.0,0.0
1583167281431,5719096.0,3077373.0,0.0
1583167281479,5708441.0,3061185.0,0.0
1583167281533,5744558.0,3088430.0,0.0
1583167281577,5889320.0,3174430.0,0.0
1583167281626,6050112.0,3282043.0,0.0
1583167281674,6215375.0,3403792.0,0.0
1583167281727,6320647.0,3467603.0,0.0
1583167281771,6434137.0,3501864.0,0.0
1583167281820,6550663.0,3583451.0,0.0
1583167281872,6682690.0,3661945.0,0.0
1583167281921,6771363.0,3724456.0,0.0
1583167281969,6815472.0,3771276.0,0.0
1583167282017,6845747.0,3822799.0,0.0
1583167282063,6893516.0,3882985.0,0.0
1583167282113,6953126.0,3939559.0,0.0
1583167282161,6994457.0,3968745.0,0.0
1583167282211,7015685.0,3974824.0,0.0
1583167282260,7039889.0,3997761.0,0.0
1583167282302,7065676.0,4033064.0,0.0
1583167282355,7092961.0,4058951.0,0.0
1583167282401,7115955.0,4083388.0,0.0
1583167282453,7141655.0,4099744.0,0.0
1583167282502,7162997.0,4110474.0,0.0
1583167282551,7176460.0,4114314.0,0.0
1583167282597,7190850.0,4109098.0,0.0
1583167282649,7199257.0,4099015.0,0.0
1583167282694,7219502.0,4106075.0,0.0
1583167282742,7238151.0,4125015.0,0.0
1583167282792,7249548.0,4143947.0,0.0
1583167282840,7254464.0,4139154.0,0.0
1583167282889,7265105.0,4149757.0,0.0
1583167282937,7276646.0,4195470.0,0.0
1583167282984,7307591.0,4250231.0,0.0
1583167283033,7341015.0,4338616.0,0.0
1583167283082,7377272.0,4403342.0,0.0
1583167283132,7428533.0,4489912.0,0.0
1583167283179,7475648.0,4547171.0,0.0
1583167283223,7547978.0,4688664.0,0.0
1583167283276,7589296.0,4748950.0,0.0
1583167283322,7598371.0,4796127.0,0.0
1583167283368,7576117.0,4824340.0,0.0
1583167283417,7537635.0,4810451.0,0.0
1583167283469,7484052.0,4786842.0,0.0
1583167283518,7441740.0,4765931.0,0.0
1583167283562,7426508.0,4754885.0,0.0
1583167283609,7408785.0,4733559.0,0.0
1583167283660,7412746.0,4722405.0,0.0
1583167283708,7411051.0,4726170.0,0.0
1583167283756,7440471.0,4771200.0,0.0
1583167283807,7503741.0,4893035.0,0.0
1583167283852,7577640.0,4991859.0,0.0
1583167283904,7698498.0,5104910.0,0.0
1583167283949,7826777.0,5174964.0,0.0
1583167284002,7943703.0,5247762.0,0.0
1583167284049,8031265.0,5299350.0,0.0
1583167284096,8089664.0,5320242.0,0.0
1583167284144,8097413.0,5276196.0,0.0
1583167284195,8088381.0,5205420.0,0.0
1583167284246,8031948.0,5141117.0,0.0
1583167284291,7997698.0,5095769.0,0.0
1583167284340,7970329.0,5058946.0,0.0
1583167284385,7971028.0,5054390.0,0.0
1583167284436,7997071.0,5064360.0,0.0
1583167284486,8010890.0,5070264.0,0.0
1583167284534,8032844.0,5065833.0,0.0
1583167284582,8034997.0,5044258.0,0.0
1583167284628,8026946.0,5010429.0,0.0
1583167284679,7989306.0,4953563.0,0.0
1583167284725,7938360.0,4899017.0,0.0
1583167284775,7892369.0,4854729.0,0.0
1583167284827,7851540.0,4823098.0,0.0
1583167284869,7817602.0,4789818.0,0.0
1583167284923,7779023.0,4755114.0,0.0
1583167284966,7733603.0,4721172.0,0.0
1583167285019,7686302.0,4682971.0,0.0
1583167285068,7648064.0,4648441.0,0.0
1583167285116,7613742.0,4619940.0,0.0
1583167285165,7582656.0,4588501.0,0.0
1583167285210,7528189.0,4528820.0,0.0
1583167285262,7458393.0,4462014.0,0.0
1583167285306,7403543.0,4411717.0,0.0
1583167285358,7372912.0,4377888.0,0.0
1583167285410,7345699.0,4347942.0,0.0
1583167285455,7304384.0,4310078.0,0.0
1583167285503,7266388.0,4270626.0,0.0
1583167285546,7237337.0,4235268.0,0.0
1583167285600,7205396.0,4205803.0,0.0
1583167285652,7183941.0,4181107.0,0.0
1583167285696,7160048.0,4150621.0,0.0
1583167285745,7108887.0,4091885.0,0.0
1583167285790,7056616.0,4034604.0,0.0
1583167285842,7015797.0,3995942.0,0.0
1583167285888,6988771.0,3966429.0,0.0
1583167285939,6972103.0,3947030.0,0.0
1583167285991,6954864.0,3921351.0,0.0
1583167286035,6935331.0,3895923.0,0.0
1583167286085,6922680.0,3873674.0,0.0
1583167286127,6911554.0,3859774.0,0.0
1583167286181,6907207.0,3849786.0,0.0
1583167286229,6896094.0,3834394.0,0.0
1583167286278,6860008.0,3794998.0,0.0
1583167286326,6813806.0,3758841.0,0.0
1583167286374,6790069.0,3737486.0,0.0
1583167286424,6772203.0,3722672.0,0.0
1583167286467,6764495.0,3713879.0,0.0
1583167286521,6747271.0,3699864.0,0.0
1583167286569,6725928.0,3681785.0,0.0
1583167286617,6710714.0,3670304.0,0.0
1583167286667,6703406.0,3665074.0,0.0
1583167286714,6695070.0,3658215.0,0.0
1583167286762,6679797.0,3647746.0,0.0
1583167286806,6644751.0,3617993.0,0.0
1583167286859,6601781.0,3588037.0,0.0
1583167286908,6572889.0,3566201.0,0.0
1583167286951,6558643.0,3555712.0,0.0
1583167287005,6541616.0,3549143.0,0.0
1583167287047,6522055.0,3537672.0,0.0
1583167287102,6503521.0,3522184.0,0.0
1583167287150,6485511.0,3510903.0,0.0
1583167287201,6468331.0,3502669.0,0.0
1583167287248,6458457.0,3495348.0,0.0
1583167287295,6446732.0,3492727.0,0.0
1583167287344,6420546.0,3469968.0,0.0
1583167287388,6375654.0,3441487.0,0.0
1583167287434,6346078.0,3425661.0,0.0
1583167287493,6326090.0,3415393.0,0.0
1583167287532,6315504.0,3415277.0,0.0
1583167287589,6295813.0,3405992.0,0.0
1583167287630,6274644.0,3393682.0,0.0
1583167287683,6259699.0,3385640.0,0.0
1583167287729,6248414.0,3381768.0,0.0
1583167287780,6237829.0,3376749.0,0.0
1583167287829,6228354.0,3375034.0,0.0
1583167287876,6212413.0,3364709.0,0.0
1583167287926,6180669.0,3343577.0,0.0
1583167287974,6153415.0,3327203.0,0.0
1583167288022,6146718.0,3321433.0,0.0
1583167288070,6138030.0,3318312.0,0.0
1583167288118,6123824.0,3315634.0,0.0
1583167288168,6113638.0,3304701.0,0.0
1583167288216,6094976.0,3298432.0,0.0
1583167288266,6089118.0,3295514.0,0.0
1583167288308,6079431.0,3291217.0,0.0
1583167288360,6071411.0,3288376.0,0.0
1583167288411,6059699.0,3284321.0,0.0
1583167288458,6038842.0,3267080.0,0.0
1583167288506,6014551.0,3253768.0,0.0
1583167288553,5999065.0,3246352.0,0.0
1583167288603,5995845.0,3243607.0,0.0
1583167288649,5980188.0,3242731.0,0.0
1583167288699,5970086.0,3235401.0,0.0
1583167288749,5952535.0,3226365.0,0.0
1583167288796,5945638.0,3225933.0,0.0
1583167288846,5934353.0,3222483.0,0.0
1583167288891,5927943.0,3223793.0,0.0
1583167288941,5924183.0,3218486.0,0.0
1583167288989,5907983.0,3211599.0,0.0
1583167289039,5887326.0,3197547.0,0.0
1583167289085,5880414.0,3195773.0,0.0
1583167289134,5877096.0,3199888.0,0.0
1583167289184,5880901.0,3203163.0,0.0
1583167289230,5880501.0,3199607.0,0.0
1583167289280,5868349.0,3195070.0,0.0
1583167289330,5867735.0,3193847.0,0.0
1583167289377,5869859.0,3198596.0,0.0
1583167289427,5880742.0,3207188.0,0.0
1583167289471,5881169.0,3208576.0,0.0
1583167289523,5878448.0,3204675.0,0.0
1583167289570,5861624.0,3192240.0,0.0
1583167289620,5856253.0,3186779.0,0.0
1583167289670,5855669.0,3188849.0,0.0
1583167289713,5854558.0,3190410.0,0.0
1583167289768,5847805.0,3187549.0,0.0
1583167289809,5835453.0,3186586.0,0.0
1583167289863,5830965.0,3183764.0,0.0
1583167289910,5823756.0,3184660.0,0.0
1583167289955,5821048.0,3184341.0,0.0
1583167290009,5820620.0,3189753.0,0.0
1583167290055,5810634.0,3188829.0,0.0
1583167290103,5797027.0,3172282.0,0.0
1583167290153,5790105.0,3157034.0,0.0
1583167290203,5773934.0,3148694.0,0.0
1583167290254,5761326.0,3148462.0,0.0
1583167290299,5764531.0,3155358.0,0.0
1583167290350,5758517.0,3152335.0,0.0
1583167290392,5744842.0,3146333.0,0.0
1583167290446,5743616.0,3145534.0,0.0
1583167290494,5736750.0,3139273.0,0.0
1583167290541,5728186.0,3134004.0,0.0
1583167290591,5715491.0,3123919.0,0.0
1583167290635,5695603.0,3106939.0,0.0
1583167290688,5687569.0,3106515.0,0.0
1583167290732,5725521.0,3087733.0,0.0
1583167290784,5769730.0,3115885.0,0.0
1583167290831,5804423.0,3131995.0,0.0
1583167290881,5841192.0,3132121.0,0.0
1583167290930,5824053.0,3122364.0,0.0
1583167290978,5816104.0,3138466.0,0.0
1583167291026,5923284.0,3230581.0,0.0
1583167291071,5951436.0,3231028.0,0.0
1583167291123,5939340.0,3217891.0,0.0
1583167291171,5913925.0,3192769.0,0.0
1583167291220,5891456.0,3174444.0,0.0
1583167291269,5873505.0,3163932.0,0.0
1583167291315,5860725.0,3160683.0,0.0
1583167291367,5858675.0,3165773.0,0.0
1583167291411,5867379.0,3173063.0,0.0
1583167291462,5884134.0,3188853.0,0.0
1583167291510,5872053.0,3169066.0,0.0
1583167291555,5859886.0,3149620.0,0.0
1583167291604,5844613.0,3134008.0,0.0
1583167291650,5821219.0,3121324.0,0.0
1583167291705,5790005.0,3092169.0,0.0
1583167291752,5757593.0,3067068.0,0.0
1583167291801,5739315.0,3058813.0,0.0
1583167291850,5749102.0,3067989.0,0.0
1583167291897,5776143.0,3087018.0,0.0
1583167291945,5795445.0,3099635.0,0.0
1583167291996,5805048.0,3105974.0,0.0
1583167292044,5805790.0,3107401.0,0.0
1583167292092,5811489.0,3100564.0,0.0
1583167292142,5800005.0,3088461.0,0.0
1583167292190,5793538.0,3078274.0,0.0
1583167292232,5761809.0,3055120.0,0.0
1583167292287,5710548.0,3034524.0,0.0
1583167292333,5668405.0,3017530.0,0.0
1583167292383,5652748.0,3019656.0,0.0
1583167292430,5649344.0,3035802.0,0.0
1583167292479,5660956.0,3061207.0,0.0
1583167292528,5674163.0,3079484.0,0.0
1583167292574,5713853.0,3110826.0,0.0
1583167292626,5747036.0,3123220.0,0.0
1583167292673,5758376.0,3126393.0,0.0
1583167292722,5766996.0,3119853.0,0.0
1583167292770,5756495.0,3104702.0,0.0
1583167292817,5752678.0,3091596.0,0.0
1583167292868,5737162.0,3081803.0,0.0
1583167292914,5723072.0,3074588.0,0.0
1583167292958,5712870.0,3063204.0,0.0
1583167293012,5693440.0,3045000.0,0.0
1583167293061,5672565.0,3033059.0,0.0
1583167293110,5656768.0,3020101.0,0.0
1583167293154,5644316.0,3018621.0,0.0
1583167293206,5635896.0,3017344.0,0.0
1583167293258,5619596.0,3014989.0,0.0
1583167293303,5606233.0,3004944.0,0.0
1583167293351,5586972.0,2989116.0,0.0
1583167293398,5600947.0,2995968.0,0.0
1583167293445,5631508.0,3018548.0,0.0
1583167293497,5665543.0,3060553.0,0.0
1583167293545,5705464.0,3082183.0,0.0
1583167293592,5752079.0,3103463.0,0.0
1583167293642,5772024.0,3122610.0,0.0
1583167293690,5775272.0,3125776.0,0.0
1583167293733,5759272.0,3113220.0,0.0
1583167293787,5739683.0,3094694.0,0.0
1583167293835,5721648.0,3078570.0,0.0
1583167293885,5706644.0,3075309.0,0.0
1583167293932,5709765.0,3079803.0,0.0
1583167293981,5710520.0,3075323.0,0.0
1583167294029,5690503.0,3059258.0,0.0
1583167294075,5672709.0,3042243.0,0.0
1583167294127,5662151.0,3029211.0,0.0
1583167294173,5658462.0,3027159.0,0.0
1583167294223,5655229.0,3019343.0,0.0
1583167294272,5643118.0,3001630.0,0.0
1583167294314,5612615.0,2982229.0,0.0
1583167294369,5589821.0,2962531.0,0.0
1583167294417,5572426.0,2955873.0,0.0
1583167294467,5570216.0,2953301.0,0.0
1583167294513,5571000.0,2957523.0,0.0
1583167294562,5567024.0,2961125.0,0.0
1583167294611,5572183.0,2967649.0,0.0
1583167294655,5577326.0,2970942.0,0.0
1583167294708,5580702.0,2974145.0,0.0
1583167294755,5600378.0,2987444.0,0.0
1583167294804,5609295.0,2982310.0,0.0
1583167294852,5586158.0,2957419.0,0.0
1583167294899,5552793.0,2942098.0,0.0
1583167294950,5539415.0,2954075.0,0.0
1583167295000,5557038.0,2962702.0,0.0
1583167295047,5550627.0,2951824.0,0.0
1583167295094,5535923.0,2947663.0,0.0
1583167295144,5555256.0,2971136.0,0.0
1583167295191,5567283.0,2978052.0,0.0
1583167295235,5563635.0,2969620.0,0.0
1583167295288,5559132.0,2962039.0,0.0
1583167295337,5558776.0,2965451.0,0.0
1583167295387,5555883.0,2958689.0,0.0
1583167295430,5538844.0,2940781.0,0.0
1583167295483,5525708.0,2929019.0,0.0
1583167295531,5519697.0,2925088.0,0.0
1583167295577,5515837.0,2925586.0,0.0
1583167295627,5511818.0,2924606.0,0.0
1583167295676,5505863.0,2922384.0,0.0
1583167295725,5498055.0,2923142.0,0.0
1583167295772,5502430.0,2932230.0,0.0
1583167295815,5509708.0,2945292.0,0.0
1583167295870,5509611.0,2944942.0,0.0
1583167295917,5494138.0,2920035.0,0.0
1583167295963,5467653.0,2888651.0,0.0
1583167296015,5444288.0,2880329.0,0.0
1583167296062,5455116.0,2880060.0,0.0
1583167296112,5456227.0,2872340.0,0.0
1583167296158,5467696.0,2878470.0,0.0
1583167296209,5485847.0,2889526.0,0.0
1583167296258,5512501.0,2901223.0,0.0
1583167296307,5515694.0,2914560.0,0.0
1583167296354,5530583.0,2926411.0,0.0
1583167296403,5533729.0,2937512.0,0.0
1583167296451,5521876.0,2934414.0,0.0
1583167296502,5498439.0,2911016.0,0.0
1583167296542,5462981.0,2876241.0,0.0
1583167296596,5430753.0,2843229.0,0.0
1583167296645,5380774.0,2817393.0,0.0
1583167296693,5341752.0,2814695.0,0.0
1583167296739,5340170.0,2829905.0,0.0
1583167296790,5362324.0,2856462.0,0.0
1583167296838,5383339.0,2886184.0,0.0
1583167296887,5412874.0,2914551.0,0.0
1583167296935,5441879.0,2933857.0,0.0
1583167296985,5454046.0,2931791.0,0.0
1583167297032,5475829.0,2951385.0,0.0
1583167297079,5509680.0,2977324.0,0.0
1583167297130,5543275.0,2992816.0,0.0
1583167297177,5546467.0,2983558.0,0.0
1583167297227,5531650.0,2968297.0,0.0
1583167297273,5536893.0,2953667.0,0.0
1583167297318,5520181.0,2942260.0,0.0
1583167297372,5508185.0,2948035.0,0.0
1583167297420,5537776.0,2951021.0,0.0
1583167297467,5541864.0,2930513.0,0.0
1583167297515,5540282.0,2930661.0,0.0
1583167297563,5544942.0,2938359.0,0.0
1583167297613,5542648.0,2935046.0,0.0
1583167297659,5527674.0,2922680.0,0.0
1583167297710,5516106.0,2911388.0,0.0
1583167297758,5509184.0,2902241.0,0.0
1583167297807,5498854.0,2897113.0,0.0
1583167297855,5491473.0,2893413.0,0.0
1583167297899,5483681.0,2898919.0,0.0
1583167297952,5478766.0,2903911.0,0.0
1583167298000,5480389.0,2898346.0,0.0
1583167298049,5466455.0,2904409.0,0.0
1583167298097,5464064.0,2908816.0,0.0
1583167298146,5458521.0,2893732.0,0.0
1583167298195,5432663.0,2884451.0,0.0
1583167298243,5464033.0,2921187.0,0.0
1583167298290,5533844.0,2974285.0,0.0
1583167298339,5614781.0,3025101.0,0.0
1583167298388,5695162.0,3065337.0,0.0
1583167298436,5761070.0,3098097.0,0.0
1583167298486,5803637.0,3120062.0,0.0
1583167298532,5846807.0,3136906.0,0.0
1583167298582,5891883.0,3161969.0,0.0
1583167298626,5886471.0,3154137.0,0.0
1583167298678,5873820.0,3144248.0,0.0
1583167298728,5874744.0,3140859.0,0.0
1583167298775,5860029.0,3125896.0,0.0
1583167298820,5844597.0,3114237.0,0.0
1583167298872,5834754.0,3099546.0,0.0
1583167298920,5824381.0,3091640.0,0.0
1583167298965,5816704.0,3086254.0,0.0
1583167299017,5806545.0,3084395.0,0.0
1583167299065,5797926.0,3078452.0,0.0
1583167299112,5794350.0,3075301.0,0.0
1583167299162,5794150.0,3076542.0,0.0
1583167299211,5798167.0,3075888.0,0.0
1583167299261,5799377.0,3076252.0,0.0
1583167299310,5794007.0,3073503.0,0.0
1583167299356,5773877.0,3056266.0,0.0
1583167299403,5760655.0,3046227.0,0.0
1583167299453,5752706.0,3041345.0,0.0
1583167299502,5753917.0,3043573.0,0.0
1583167299551,5748546.0,3042488.0,0.0
1583167299598,5756267.0,3048106.0,0.0
1583167299647,5752563.0,3043819.0,0.0
1583167299695,5743488.0,3037385.0,0.0
1583167299742,5743416.0,3039910.0,0.0
1583167299792,5747320.0,3044658.0,0.0
1583167299839,5755371.0,3052550.0,0.0
1583167299890,5744327.0,3040512.0,0.0
1583167299938,5731906.0,3025064.0,0.0
1583167299983,5719838.0,3018185.0,0.0
1583167300034,5717102.0,3020925.0,0.0
1583167300083,5717217.0,3024753.0,0.0
1583167300132,5714923.0,3022732.0,0.0
1583167300180,5708497.0,3021283.0,0.0
1583167300225,5707914.0,3016594.0,0.0
1583167300278,5701672.0,3017463.0,0.0
1583167300324,5708413.0,3020554.0,0.0
1583167300376,5707343.0,3021051.0,0.0
1583167300423,5706247.0,3025533.0,0.0
1583167300467,5692257.0,3010501.0,0.0
1583167300519,5679022.0,3001807.0,0.0
1583167300567,5678479.0,2999245.0,0.0
1583167300612,5679705.0,3003717.0,0.0
1583167300664,5680801.0,3008518.0,0.0
1583167300713,5677739.0,3004021.0,0.0
1583167300762,5668592.0,2997363.0,0.0
1583167300811,5670942.0,3001065.0,0.0
1583167300859,5669987.0,3000909.0,0.0
1583167300904,5662151.0,2998314.0,0.0
1583167300955,5664545.0,2998879.0,0.0
1583167301005,5670059.0,3001658.0,0.0
1583167301053,5665356.0,2999460.0,0.0
1583167301101,5654446.0,2992058.0,0.0
1583167301146,5643845.0,2990744.0,0.0
1583167301198,5639984.0,2986977.0,0.0
1583167301244,5635197.0,2987682.0,0.0
1583167301295,5629071.0,2987719.0,0.0
1583167301343,5629882.0,2985193.0,0.0
1583167301392,5628472.0,2986055.0,0.0
1583167301441,5628672.0,2991717.0,0.0
1583167301485,5631377.0,2995165.0,0.0
1583167301536,5642977.0,3001977.0,0.0
1583167301587,5651082.0,3009410.0,0.0
1583167301629,5644928.0,3004340.0,0.0
1583167301683,5630026.0,2986790.0,0.0
1583167301730,5616532.0,2981069.0,0.0
1583167301775,5617018.0,2980638.0,0.0
1583167301831,5618370.0,2985543.0,0.0
1583167301875,5625922.0,2988062.0,0.0
1583167301925,5620807.0,2990067.0,0.0
1583167301967,5623741.0,2987928.0,0.0
1583167302022,5614110.0,2987459.0,0.0
1583167302065,5619868.0,2990529.0,0.0
1583167302119,5616832.0,2992489.0,0.0
1583167302171,5620608.0,2995655.0,0.0
1583167302214,5623900.0,3001778.0,0.0
1583167302265,5613982.0,2992081.0,0.0
1583167302311,5607516.0,2985825.0,0.0
1583167302360,5605335.0,2984279.0,0.0
1583167302410,5609011.0,2988261.0,0.0
1583167302456,5604823.0,2985809.0,0.0
1583167302508,5602273.0,2986723.0,0.0
1583167302552,5599736.0,2983090.0,0.0
1583167302602,5600291.0,2984531.0,0.0
1583167302647,5602828.0,2987066.0,0.0
1583167302698,5612687.0,2992965.0,0.0
1583167302751,5617802.0,2997802.0,0.0
1583167302794,5624340.0,3000596.0,0.0
1583167302844,5599592.0,2982458.0,0.0
1583167302886,5585702.0,2974953.0,0.0
1583167302941,5582256.0,2969984.0,0.0
1583167302989,5584322.0,2976091.0,0.0
1583167303038,5598640.0,2984206.0,0.0
1583167303087,5600506.0,2986597.0,0.0
1583167303135,5601858.0,2988789.0,0.0
1583167303184,5599851.0,2989815.0,0.0
1583167303226,5602657.0,2988649.0,0.0
1583167303282,5602457.0,2990224.0,0.0
1583167303330,5607116.0,2991597.0,0.0
1583167303376,5622146.0,3004468.0,0.0
1583167303427,5616532.0,2997861.0,0.0
1583167303472,5598397.0,2985921.0,0.0
1583167303523,5589406.0,2981239.0,0.0
1583167303565,5588695.0,2979212.0,0.0
1583167303619,5587655.0,2983848.0,0.0
1583167303669,5588894.0,2981351.0,0.0
1583167303715,5586045.0,2977028.0,0.0
1583167303765,5589534.0,2981670.0,0.0
1583167303811,5596587.0,2987979.0,0.0
1583167303861,5613255.0,2997044.0,0.0
1583167303911,5617559.0,3002030.0,0.0
1583167303957,5621306.0,3003887.0,0.0
1583167304007,5619297.0,3001933.0,0.0
1583167304054,5591956.0,2982414.0,0.0
1583167304103,5581642.0,2976099.0,0.0
1583167304148,5577154.0,2975370.0,0.0
1583167304199,5580403.0,2975817.0,0.0
1583167304248,5573593.0,2975526.0,0.0
1583167304297,5571755.0,2973661.0,0.0
1583167304347,5577098.0,2974494.0,0.0
1583167304393,5573806.0,2977503.0,0.0
1583167304443,5591659.0,2986642.0,0.0
1583167304486,5596574.0,2992623.0,0.0
1583167304538,5598796.0,2991790.0,0.0
1583167304587,5591372.0,2986203.0,0.0
1583167304630,5570216.0,2971499.0,0.0
1583167304684,5558476.0,2963141.0,0.0
1583167304731,5550172.0,2960910.0,0.0
1583167304781,5555356.0,2963831.0,0.0
1583167304830,5562736.0,2970638.0,0.0
1583167304873,5555228.0,2966150.0,0.0
1583167304927,5547463.0,2961580.0,0.0
1583167304970,5549373.0,2962523.0,0.0
1583167305024,5551895.0,2964484.0,0.0
1583167305070,5570101.0,2979687.0,0.0
1583167305120,5575016.0,2982786.0,0.0
1583167305169,5568294.0,2976292.0,0.0
1583167305217,5568550.0,2975252.0,0.0
1583167305270,5567096.0,2973728.0,0.0
1583167305314,5550955.0,2961223.0,0.0
1583167305362,5543987.0,2958177.0,0.0
1583167305410,5544757.0,2958935.0,0.0
1583167305458,5550085.0,2965979.0,0.0
1583167305508,5558620.0,2972048.0,0.0
1583167305556,5555200.0,2968943.0,0.0
1583167305604,5548134.0,2963764.0,0.0
1583167305647,5537592.0,2957181.0,0.0
1583167305701,5534428.0,2957492.0,0.0
1583167305750,5542364.0,2957990.0,0.0
1583167305798,5538544.0,2961995.0,0.0
1583167305847,5547578.0,2966653.0,0.0
1583167305893,5556070.0,2970965.0,0.0
1583167305944,5565201.0,2978885.0,0.0
1583167305989,5562979.0,2971899.0,0.0
1583167306040,5546667.0,2967478.0,0.0
1583167306089,5543375.0,2963267.0,0.0
1583167306137,5538859.0,2964030.0,0.0
1583167306186,5545098.0,2966239.0,0.0
1583167306230,5538816.0,2965926.0,0.0
1583167306284,5538104.0,2962872.0,0.0
1583167306330,5529940.0,2956667.0,0.0
1583167306379,5531507.0,2952395.0,0.0
1583167306429,5534812.0,2948354.0,0.0
1583167306478,5522588.0,2942378.0,0.0
1583167306526,5509283.0,2935283.0,0.0
1583167306571,5511390.0,2946911.0,0.0
1583167306621,5526991.0,2965524.0,0.0
1583167306671,5557081.0,2993158.0,0.0
1583167306719,5585774.0,3025800.0,0.0
1583167306767,5627973.0,3058895.0,0.0
1583167306815,5666726.0,3082829.0,0.0
1583167306864,5658019.0,3072203.0,0.0
1583167306913,5649259.0,3070220.0,0.0
1583167306961,5621050.0,3051576.0,0.0
1583167307009,5600747.0,3026996.0,0.0
1583167307058,5581629.0,3014944.0,0.0
1583167307106,5573309.0,3012670.0,0.0
1583167307150,5567011.0,2999614.0,0.0
1583167307205,5587968.0,3006384.0,0.0
1583167307252,5552138.0,2978862.0,0.0
1583167307300,5497912.0,2932868.0,0.0
1583167307348,5439971.0,2903058.0,0.0
1583167307395,5404410.0,2889088.0,0.0
1583167307446,5427304.0,2911825.0,0.0
1583167307491,5446353.0,2915035.0,0.0
1583167307542,5422005.0,2901987.0,0.0
1583167307590,5406648.0,2900018.0,0.0
1583167307634,5394680.0,2895589.0,0.0
1583167307687,5382113.0,2884384.0,0.0
1583167307731,5369420.0,2875877.0,0.0
1583167307784,5377512.0,2876204.0,0.0
1583167307832,5369620.0,2864820.0,0.0
1583167307880,5349360.0,2851112.0,0.0
1583167307930,5323816.0,2839832.0,0.0
1583167307973,5328616.0,2836266.0,0.0
1583167308023,5317447.0,2814717.0,0.0
1583167308071,5290549.0,2797427.0,0.0
1583167308121,5383411.0,2826540.0,0.0
1583167308171,5529469.0,2925779.0,0.0
1583167308220,5622374.0,2991412.0,0.0
1583167308270,5748247.0,3055930.0,0.0
1583167308311,5960796.0,3201745.0,0.0
1583167308364,6167493.0,3363021.0,0.0
1583167308414,6368345.0,3532820.0,0.0
1583167308462,6520801.0,3650360.0,0.0
1583167308510,6613877.0,3725549.0,0.0
1583167308558,6700856.0,3789874.0,0.0
1583167308607,6792519.0,3853559.0,0.0
1583167308652,6868357.0,3891403.0,0.0
1583167308704,6914703.0,3886982.0,0.0
1583167308752,6930432.0,3886803.0,0.0
1583167308801,6944663.0,3901114.0,0.0
1583167308849,6958325.0,3928161.0,0.0
1583167308893,6966476.0,3940636.0,0.0
1583167308947,6955520.0,3935160.0,0.0
1583167308993,6944606.0,3928013.0,0.0
1583167309043,6934105.0,3911592.0,0.0
1583167309090,6918164.0,3889828.0,0.0
1583167309141,6900641.0,3879113.0,0.0
1583167309188,6898176.0,3875516.0,0.0
1583167309232,6900782.0,3870396.0,0.0
1583167309287,6888330.0,3852253.0,0.0
1583167309332,6850362.0,3831803.0,0.0
1583167309381,6870735.0,3837058.0,0.0
1583167309430,6930060.0,3884389.0,0.0
1583167309477,6999700.0,3912096.0,0.0
1583167309527,7073697.0,3958269.0,0.0
1583167309574,7189783.0,3988845.0,0.0
1583167309623,7213204.0,3988169.0,0.0
1583167309672,7149335.0,3964986.0,0.0
1583167309720,7209300.0,4016278.0,0.0
1583167309767,7203814.0,4139266.0,0.0
1583167309815,7263211.0,4465072.0,0.0
1583167309868,7348579.0,4637080.0,0.0
1583167309913,7477754.0,4703268.0,0.0
1583167309961,7617576.0,5088073.0,0.0
1583167310011,7749588.0,5406459.0,0.0
1583167310055,8122915.0,5908414.0,0.0
1583167310107,8253516.0,6122934.0,0.0
1583167310154,8421276.0,6308744.0,0.0
1583167310205,8545308.0,6442099.0,0.0
1583167310254,8645665.0,6577909.0,0.0
1583167310303,9391524.0,6694294.0,0.0
1583167310350,9481038.0,6774788.0,0.0
1583167310393,9610446.0,6906493.0,0.0
1583167310447,9719965.0,7316510.0,0.0
1583167310494,9788717.0,7515005.0,0.0
1583167310544,9803037.0,7550275.0,0.0
1583167310588,9794816.0,7547250.0,0.0
1583167310634,9789302.0,7546814.0,0.0
1583167310689,9807803.0,7574321.0,0.0
1583167310735,9795712.0,7587957.0,0.0
1583167310785,9819073.0,7607248.0,0.0
1583167310830,9818069.0,7620884.0,0.0
1583167310883,9871750.0,7628690.0,0.0
1583167310931,9849048.0,7607481.0,0.0
1583167310974,9870966.0,7605720.0,0.0
1583167311029,9863148.0,7619678.0,0.0
1583167311074,9858307.0,7630610.0,0.0
1583167311127,9863660.0,7638548.0,0.0
1583167311173,9861083.0,7631568.0,0.0
1583167311222,9849265.0,7643039.0,0.0
1583167311270,9851913.0,7671896.0,0.0
1583167311316,9843091.0,7682058.0,0.0
1583167311367,9836114.0,7672320.0,0.0
1583167311415,9837666.0,7656910.0,0.0
1583167311464,9832553.0,7656589.0,0.0
1583167311512,9783968.0,7632078.0,0.0
1583167311559,9774086.0,7611943.0,0.0
1583167311609,9782124.0,7545607.0,0.0
1583167311655,9711343.0,7578697.0,0.0
1583167311707,9770597.0,7689720.0,0.0
1583167311754,9701536.0,7713475.0,0.0
1583167311805,9689353.0,7747667.0,0.0
1583167311850,9704293.0,7808276.0,0.0
1583167311896,9731840.0,7823119.0,0.0
1583167311948,9735929.0,7842949.0,0.0
1583167311991,9726542.0,7844315.0,0.0
1583167312046,9834637.0,7874481.0,0.0
1583167312092,9798800.0,7727898.0,0.0
1583167312138,9712587.0,7567211.0,0.0
1583167312190,9681572.0,7539328.0,0.0
1583167312235,9713227.0,7513916.0,0.0
1583167312287,9738817.0,7456987.0,0.0
1583167312335,9753685.0,7411628.0,0.0
1583167312384,9768057.0,7344363.0,0.0
1583167312428,9660383.0,7305111.0,0.0
1583167312478,9545770.0,7395709.0,0.0
1583167312529,9509750.0,7493535.0,0.0
1583167312576,9612127.0,7432374.0,0.0
1583167312624,9552272.0,7419102.0,0.0
1583167312673,9371044.0,7294558.0,0.0
1583167312721,9170343.0,7116455.0,0.0
1583167312772,8990723.0,6918191.0,0.0
1583167312819,8834133.0,6732340.0,0.0
1583167312866,8648139.0,6515887.0,0.0
1583167312915,8464534.0,6311632.0,0.0
1583167312966,8341976.0,6177637.0,0.0
1583167313012,8241680.0,6059230.0,0.0
1583167313058,8128324.0,5935049.0,0.0
1583167313109,7982276.0,5813208.0,0.0
1583167313158,7866692.0,5708695.0,0.0
1583167313207,7787421.0,5627342.0,0.0
1583167313255,7698451.0,5546731.0,0.0
1583167313298,7625865.0,5478825.0,0.0
1583167313352,7510646.0,5364210.0,0.0
1583167313401,7429494.0,5283860.0,0.0
1583167313448,7364414.0,5202275.0,0.0
1583167313496,7303043.0,5123348.0,0.0
1583167313547,7216830.0,5044148.0,0.0
1583167313593,7152774.0,4982392.0,0.0
1583167313643,7125815.0,4946395.0,0.0
1583167313690,7087382.0,4923600.0,0.0
1583167313738,7099858.0,4907901.0,0.0
1583167313788,7074107.0,4919909.0,0.0
1583167313834,7139475.0,4983032.0,0.0
1583167313882,7122051.0,5049294.0,0.0
1583167313932,7122143.0,5098968.0,0.0
1583167313979,7159932.0,5155215.0,0.0
1583167314029,7119970.0,5116196.0,0.0
1583167314073,7113120.0,5077425.0,0.0
1583167314126,7053354.0,4976519.0,0.0
1583167314175,6964348.0,4883826.0,0.0
1583167314218,6894483.0,4831302.0,0.0
1583167314268,6783176.0,4733797.0,0.0
1583167314321,6748452.0,4676722.0,0.0
1583167314368,6705329.0,4613715.0,0.0
1583167314417,6703044.0,4626771.0,0.0
1583167314466,6640101.0,4328836.0,0.0
1583167314510,6659738.0,4231328.0,0.0
1583167314559,6587828.0,4143666.0,0.0
1583167314610,6560886.0,4095748.0,0.0
1583167314659,6535040.0,4010351.0,0.0
1583167314707,6557633.0,4006430.0,0.0
1583167314755,6602420.0,4003974.0,0.0
1583167314800,6597179.0,3972565.0,0.0
1583167314852,6624961.0,3951894.0,0.0
1583167314900,6660598.0,3963916.0,0.0
1583167314945,6689493.0,4003453.0,0.0
1583167314997,6718132.0,4029200.0,0.0
1583167315047,6736305.0,4079739.0,0.0
1583167315094,6683611.0,4073941.0,0.0
1583167315140,6664507.0,4058203.0,0.0
1583167315191,6652816.0,4058424.0,0.0
1583167315238,6617856.0,4034499.0,0.0
1583167315284,6574477.0,4004110.0,0.0
1583167315336,6524573.0,3936512.0,0.0
1583167315379,6468243.0,3901104.0,0.0
1583167315428,6440756.0,3864080.0,0.0
1583167315482,6475040.0,3902386.0,0.0
1583167315530,6544610.0,3966352.0,0.0
1583167315578,6530182.0,3931696.0,0.0
1583167315623,6558493.0,3959755.0,0.0
1583167315674,6528045.0,3926485.0,0.0
1583167315723,6517471.0,3910428.0,0.0
1583167315772,6454672.0,3821486.0,0.0
1583167315820,6461541.0,3822624.0,0.0
1583167315869,6521780.0,3824280.0,0.0
1583167315916,6556704.0,3848697.0,0.0
1583167315968,6644906.0,3867548.0,0.0
1583167316013,6804765.0,3894469.0,0.0
1583167316061,6950685.0,3973577.0,0.0
1583167316110,7041027.0,4055062.0,0.0
1583167316154,7110708.0,4136588.0,0.0
1583167316207,7141632.0,4142579.0,0.0
1583167316257,7108791.0,4116545.0,0.0
1583167316301,7039402.0,4076369.0,0.0
1583167316352,6980240.0,4028237.0,0.0
1583167316401,6995016.0,4014002.0,0.0
1583167316450,6967693.0,4019655.0,0.0
1583167316497,6966157.0,4003752.0,0.0
1583167316543,6909663.0,3985105.0,0.0
1583167316594,6874866.0,3953792.0,0.0
1583167316645,6827139.0,3913675.0,0.0
1583167316692,6774866.0,3872680.0,0.0
1583167316736,6729455.0,3832988.0,0.0
1583167316789,6710298.0,3825830.0,0.0
1583167316837,6695154.0,3818636.0,0.0
1583167316887,6677822.0,3796358.0,0.0
1583167316933,6660834.0,3774425.0,0.0
1583167316978,6643810.0,3754112.0,0.0
1583167317031,6652284.0,3772007.0,0.0
1583167317079,6703484.0,3805671.0,0.0
1583167317127,6736889.0,3843226.0,0.0
1583167317175,6808418.0,3888016.0,0.0
1583167317224,6845899.0,3951827.0,0.0
1583167317272,6917753.0,3991866.0,0.0
1583167317322,6940347.0,4018625.0,0.0
1583167317370,6904914.0,3974656.0,0.0
1583167317418,6870337.0,3949370.0,0.0
1583167317462,6862135.0,3941185.0,0.0
1583167317515,6856018.0,3938149.0,0.0
1583167317563,6845403.0,3921659.0,0.0
1583167317613,6830391.0,3917431.0,0.0
1583167317662,6842591.0,3921832.0,0.0
1583167317711,6822226.0,3902021.0,0.0
1583167317759,6855742.0,3939547.0,0.0
1583167317804,6848876.0,3943342.0,0.0
1583167317856,6848384.0,3938352.0,0.0
1583167317904,6845095.0,3922169.0,0.0
1583167317952,6840710.0,3911354.0,0.0
1583167318002,6810446.0,3877940.0,0.0
1583167318050,6777475.0,3851548.0,0.0
1583167318098,6762095.0,3833150.0,0.0
1583167318144,6769933.0,3843718.0,0.0
1583167318194,6773438.0,3854746.0,0.0
1583167318244,6754061.0,3835540.0,0.0
1583167318287,6752689.0,3829481.0,0.0
1583167318340,6745547.0,3823567.0,0.0
1583167318384,6745127.0,3817953.0,0.0
1583167318437,6755501.0,3832506.0,0.0
1583167318485,6757842.0,3822720.0,0.0
1583167318534,6757530.0,3820273.0,0.0
1583167318579,6757566.0,3813762.0,0.0
1583167318627,6743318.0,3804669.0,0.0
1583167318679,6739209.0,3796116.0,0.0
1583167318727,6729547.0,3791859.0,0.0
1583167318775,6716744.0,3816277.0,0.0
1583167318826,6730535.0,3848533.0,0.0
1583167318874,6745275.0,3879606.0,0.0
1583167318921,6717604.0,3872459.0,0.0
1583167318965,6701328.0,3875494.0,0.0
1583167319019,6690441.0,3839904.0,0.0
1583167319068,6713895.0,3851558.0,0.0
1583167319115,6726862.0,3850036.0,0.0
1583167319165,6704836.0,3820938.0,0.0
1583167319208,6717184.0,3847667.0,0.0
1583167319260,6808362.0,3933161.0,0.0
1583167319308,6926739.0,4038111.0,0.0
1583167319357,7161780.0,4157970.0,0.0
1583167319406,7153394.0,4190266.0,0.0
1583167319452,7134198.0,4155264.0,0.0
1583167319503,7187787.0,4148368.0,0.0
1583167319546,7219899.0,4235209.0,0.0
1583167319600,7351867.0,4383166.0,0.0
1583167319647,7608057.0,4594127.0,0.0
1583167319696,7910767.0,4835821.0,0.0
1583167319745,8163433.0,4948516.0,0.0
1583167319792,8341280.0,5060622.0,0.0
1583167319842,8451219.0,5145008.0,0.0
1583167319886,8534235.0,5190895.0,0.0
1583167319939,8569232.0,5175397.0,0.0
1583167319986,8564210.0,5130195.0,0.0
1583167320031,8568976.0,5138275.0,0.0
1583167320081,8593834.0,5161951.0,0.0
1583167320127,8625709.0,5163810.0,0.0
1583167320181,8632595.0,5186464.0,0.0
1583167320224,8665527.0,5201952.0,0.0
1583167320277,8685892.0,5304775.0,0.0
1583167320331,8703773.0,5349918.0,0.0
1583167320375,8693930.0,5301875.0,0.0
1583167320421,8669965.0,5324741.0,0.0
1583167320469,8664047.0,5379740.0,0.0
1583167320522,8711079.0,5456160.0,0.0
1583167320565,8768049.0,5497894.0,0.0
1583167320618,8707830.0,5523640.0,0.0
1583167320666,8730571.0,5604530.0,0.0
1583167320711,8741546.0,5720462.0,0.0
1583167320765,8750224.0,5838270.0,0.0
1583167320807,8840930.0,6012310.0,0.0
1583167320861,8814004.0,6171756.0,0.0
1583167320907,8886209.0,6163588.0,0.0
1583167320958,8734441.0,6063752.0,0.0
1583167321006,8694659.0,5987140.0,0.0
1583167321055,8487220.0,5823360.0,0.0
1583167321104,8532519.0,5785570.0,0.0
1583167321151,8588320.0,5720200.0,0.0
1583167321200,8651024.0,5727180.0,0.0
1583167321248,8580758.0,5618333.0,0.0
1583167321295,8509049.0,5515197.0,0.0
1583167321346,8455785.0,5435509.0,0.0
1583167321394,8437392.0,5404629.0,0.0
1583167321442,8345209.0,5300247.0,0.0
1583167321487,8256748.0,5232870.0,0.0
1583167321538,8072323.0,5097762.0,0.0
1583167321588,8046752.0,5059296.0,0.0
1583167321631,7984469.0,5026918.0,0.0
1583167321684,8016449.0,5053395.0,0.0
1583167321729,8241024.0,5211857.0,0.0
1583167321781,8374505.0,5231884.0,0.0
1583167321830,8359673.0,5227835.0,0.0
1583167321878,8433483.0,5258052.0,0.0
1583167321926,8343857.0,5235434.0,0.0
1583167321974,8467475.0,5317640.0,0.0
1583167322024,8578454.0,5439938.0,0.0
1583167322069,8651516.0,5515091.0,0.0
1583167322120,8749712.0,5706355.0,0.0
1583167322168,8867012.0,5752433.0,0.0
1583167322216,8840470.0,5672578.0,0.0
1583167322265,8881769.0,5837166.0,0.0
1583167322312,8882353.0,5777352.0,0.0
1583167322363,8933861.0,6090845.0,0.0
1583167322411,9119931.0,6224672.0,0.0
1583167322458,9211293.0,6309785.0,0.0
1583167322504,9225888.0,6492110.0,0.0
1583167322556,9249522.0,6655618.0,0.0
1583167322605,9426533.0,6827733.0,0.0
1583167322647,9598027.0,6830570.0,0.0
1583167322701,9602848.0,6811076.0,0.0
1583167322750,9629955.0,6740567.0,0.0
1583167322797,9602957.0,6601361.0,0.0
1583167322848,9601132.0,6544183.0,0.0
1583167322893,9599835.0,6510382.0,0.0
1583167322943,9602684.0,6559854.0,0.0
1583167322989,9642430.0,6685265.0,0.0
1583167323039,9658082.0,6722519.0,0.0
1583167323088,9724698.0,6807645.0,0.0
1583167323136,9721117.0,6879699.0,0.0
1583167323186,9797776.0,6912183.0,0.0
1583167323230,9720477.0,6897282.0,0.0
1583167323282,9753849.0,6999458.0,0.0
1583167323331,9794323.0,7036938.0,0.0
1583167323380,9879476.0,7078112.0,0.0
1583167323428,9915805.0,7493912.0,0.0
1583167323473,9912228.0,7523539.0,0.0
1583167323525,9940227.0,7526491.0,0.0
1583167323570,9908027.0,7484724.0,0.0
1583167323620,9933761.0,7388515.0,0.0
1583167323670,9875567.0,7227856.0,0.0
1583167323718,9690998.0,7029752.0,0.0
1583167323766,9452544.0,6748272.0,0.0
1583167323809,9279261.0,6540747.0,0.0
1583167323863,9146765.0,6318989.0,0.0
1583167323911,9166454.0,6256404.0,0.0
1583167323959,9219771.0,6252013.0,0.0
1583167324009,9232738.0,6208997.0,0.0
1583167324055,9084862.0,6100806.0,0.0
1583167324107,8908327.0,5979256.0,0.0
1583167324150,8755685.0,5862504.0,0.0
1583167324202,8653325.0,5759710.0,0.0
1583167324250,8587808.0,5688489.0,0.0
1583167324293,8453832.0,5579034.0,0.0
1583167324348,8353499.0,5472619.0,0.0
1583167324389,8202026.0,5306002.0,0.0
1583167324443,8021894.0,5123743.0,0.0
1583167324491,7867332.0,4960658.0,0.0
1583167324541,7726194.0,4822695.0,0.0
1583167324589,7604348.0,4704023.0,0.0
1583167324634,7500891.0,4621654.0,0.0
1583167324685,7414846.0,4566716.0,0.0
1583167324731,7464927.0,4433439.0,0.0
1583167324783,7603652.0,4597094.0,0.0
1583167324831,7707874.0,4761216.0,0.0
1583167324880,7893907.0,4996278.0,0.0
1583167324929,8154407.0,5229297.0,0.0
1583167324972,8315434.0,5403366.0,0.0
1583167325020,8351803.0,5353969.0,0.0
1583167325072,8235086.0,5191717.0,0.0
1583167325123,8177969.0,5109040.0,0.0
1583167325172,8096508.0,5033448.0,0.0
1583167325219,8061564.0,5034395.0,0.0
1583167325269,8102278.0,5121510.0,0.0
1583167325310,8106591.0,5260909.0,0.0
1583167325365,8172583.0,5459013.0,0.0
1583167325412,8188675.0,5574051.0,0.0
1583167325461,8197405.0,5724111.0,0.0
1583167325510,8312441.0,5788397.0,0.0
1583167325558,8306760.0,5839488.0,0.0
1583167325606,8426489.0,5966917.0,0.0
1583167325652,8505084.0,6059755.0,0.0
1583167325703,8510437.0,6098513.0,0.0
1583167325751,8507713.0,6163267.0,0.0
1583167325801,8529214.0,6165684.0,0.0
1583167325850,8512774.0,6102320.0,0.0
1583167325894,8524865.0,6163932.0,0.0
1583167325946,8435695.0,6036433.0,0.0
1583167325991,8394397.0,5942125.0,0.0
1583167326044,8326413.0,5829690.0,0.0
1583167326091,8327017.0,5773939.0,0.0
1583167326141,8354999.0,5776077.0,0.0
1583167326189,8310048.0,5716987.0,0.0
1583167326232,8198409.0,5569053.0,0.0
1583167326289,8135922.0,5463333.0,0.0
1583167326336,8103630.0,5360018.0,0.0
1583167326384,8021326.0,5209748.0,0.0
1583167326431,8076268.0,5180787.0,0.0
1583167326480,8218758.0,5249617.0,0.0
1583167326528,8240091.0,5199169.0,0.0
1583167326577,8135030.0,5057166.0,0.0
1583167326626,7945616.0,4882862.0,0.0
1583167326674,7785997.0,4766820.0,0.0
1583167326722,7698651.0,4683112.0,0.0
1583167326771,7665647.0,4615371.0,0.0
1583167326817,7585972.0,4539499.0,0.0
1583167326869,7514463.0,4463769.0,0.0
1583167326914,7457476.0,4409746.0,0.0
1583167326965,7418607.0,4361635.0,0.0
1583167327012,7386715.0,4324954.0,0.0
1583167327062,7359481.0,4301681.0,0.0
1583167327110,7331882.0,4264708.0,0.0
1583167327155,7328065.0,4233354.0,0.0
1583167327206,7349398.0,4242251.0,0.0
1583167327254,7343593.0,4224875.0,0.0
1583167327305,7307480.0,4199126.0,0.0
1583167327352,7281929.0,4198332.0,0.0
1583167327399,7308724.0,4203224.0,0.0
1583167327448,7332450.0,4199243.0,0.0
1583167327494,7371336.0,4187530.0,0.0
1583167327547,7389364.0,4204789.0,0.0
1583167327593,7417839.0,4265186.0,0.0
1583167327643,7489788.0,4292687.0,0.0
1583167327691,7542409.0,4309120.0,0.0
1583167327738,7496930.0,4265022.0,0.0
1583167327788,7420087.0,4223181.0,0.0
1583167327839,7425641.0,4229955.0,0.0
1583167327885,7475321.0,4240652.0,0.0
1583167327932,7461950.0,4215847.0,0.0
1583167327977,7423465.0,4181562.0,0.0
1583167328030,7353271.0,4146482.0,0.0
1583167328076,7297601.0,4118525.0,0.0
1583167328127,7238275.0,4091958.0,0.0
1583167328174,7167826.0,4061479.0,0.0
1583167328223,7120699.0,4036884.0,0.0
1583167328271,7106235.0,4026678.0,0.0
1583167328314,7110472.0,4045060.0,0.0
1583167328369,7187659.0,4109884.0,0.0
1583167328415,7234166.0,4133438.0,0.0
1583167328466,7219058.0,4118513.0,0.0
1583167328515,7178545.0,4092997.0,0.0
1583167328565,7134434.0,4066419.0,0.0
1583167328607,7094068.0,4032845.0,0.0
1583167328656,7013408.0,3973090.0,0.0
1583167328708,6944751.0,3919032.0,0.0
1583167328755,6902321.0,3884269.0,0.0
1583167328807,6898356.0,3879772.0,0.0
1583167328853,6887233.0,3869437.0,0.0
1583167328903,6902685.0,3878662.0,0.0
1583167328950,6904457.0,3889722.0,0.0
1583167328998,6909935.0,3890597.0,0.0
1583167329049,6934705.0,3918052.0,0.0
1583167329096,6963672.0,3946078.0,0.0
1583167329147,6989282.0,3975751.0,0.0
1583167329193,7001025.0,3975717.0,0.0
1583167329242,6989974.0,3965230.0,0.0
1583167329292,6948713.0,3934086.0,0.0
1583167329339,6868201.0,3866365.0,0.0
1583167329387,6813971.0,3828891.0,0.0
1583167329434,6753604.0,3800024.0,0.0
1583167329483,6738825.0,3781818.0,0.0
1583167329532,6728654.0,3778304.0,0.0
1583167329575,6936786.0,3979255.0,0.0
1583167329629,7072918.0,4119424.0,0.0
1583167329672,7263005.0,4237721.0,0.0
1583167329726,7292852.0,4255471.0,0.0
1583167329773,7188575.0,4187482.0,0.0
1583167329823,7127968.0,4133976.0,0.0
1583167329872,7076880.0,4099046.0,0.0
1583167329916,7033813.0,4062319.0,0.0
1583167329968,6973390.0,4005541.0,0.0
1583167330016,6907598.0,3950529.0,0.0
1583167330063,6862247.0,3907659.0,0.0
1583167330113,6882996.0,3913895.0,0.0
1583167330157,6890958.0,3908756.0,0.0
1583167330211,6980204.0,3933945.0,0.0
1583167330257,7011180.0,3977375.0,0.0
1583167330308,7005426.0,3968488.0,0.0
1583167330355,6927763.0,3918216.0,0.0
1583167330405,6918045.0,3903011.0,0.0
1583167330452,6932329.0,3908557.0,0.0
1583167330498,6926703.0,3899203.0,0.0
1583167330549,6919673.0,3881337.0,0.0
1583167330597,6883104.0,3858459.0,0.0
1583167330646,6942575.0,3934623.0,0.0
1583167330694,7079604.0,4091058.0,0.0
1583167330741,7155387.0,4119856.0,0.0
1583167330791,7132737.0,4108657.0,0.0
1583167330842,7099145.0,4063769.0,0.0
1583167330885,7077083.0,4032027.0,0.0
1583167330936,7183970.0,4145794.0,0.0
1583167330982,7395045.0,4389287.0,0.0
1583167331033,7520764.0,4493710.0,0.0
1583167331077,7657517.0,4559001.0,0.0
1583167331131,7715272.0,4575234.0,0.0
1583167331179,7663419.0,4525171.0,0.0
1583167331228,7560638.0,4438416.0,0.0
1583167331275,7432835.0,4335838.0,0.0
1583167331327,7330750.0,4255857.0,0.0
1583167331373,7270367.0,4210138.0,0.0
1583167331419,7228977.0,4166731.0,0.0
1583167331471,7199386.0,4137442.0,0.0
1583167331519,7169102.0,4107117.0,0.0
1583167331569,7155403.0,4083399.0,0.0
1583167331615,7130709.0,4059576.0,0.0
1583167331666,7120682.0,4042082.0,0.0
1583167331714,7118050.0,4029645.0,0.0
1583167331758,7107675.0,4017172.0,0.0
1583167331811,7115493.0,4008345.0,0.0
1583167331859,7091511.0,3986566.0,0.0
1583167331908,7043820.0,3939703.0,0.0
1583167331957,7014872.0,3904436.0,0.0
1583167332007,7000129.0,3889208.0,0.0
1583167332053,6996788.0,3878953.0,0.0
1583167332100,6989702.0,3871983.0,0.0
1583167332149,6986834.0,3864649.0,0.0
1583167332199,6982413.0,3854000.0,0.0
1583167332248,6981865.0,3847447.0,0.0
1583167332297,6992059.0,3846070.0,0.0
1583167332343,6999089.0,3851511.0,0.0
1583167332393,7011784.0,3857561.0,0.0
1583167332441,7032681.0,3856253.0,0.0
1583167332491,7026451.0,3853731.0,0.0
1583167332539,6999965.0,3827993.0,0.0
1583167332587,6961700.0,3798330.0,0.0
1583167332630,6949461.0,3788346.0,0.0
1583167332682,6948824.0,3792841.0,0.0
1583167332732,6952201.0,3793496.0,0.0
1583167332779,6946520.0,3789712.0,0.0
1583167332831,6936313.0,3781772.0,0.0
1583167332878,6934541.0,3773620.0,0.0
1583167332927,6923562.0,3669400.0,0.0
1583167332974,6928036.0,3663748.0,0.0
1583167333020,6928659.0,3658138.0,0.0
1583167333071,6932237.0,3661415.0,0.0
1583167333120,6947744.0,3672035.0,0.0
1583167333169,6948076.0,3676178.0,0.0
1583167333216,6913880.0,3653778.0,0.0
1583167333263,6882540.0,3626548.0,0.0
1583167333314,6865204.0,3618688.0,0.0
1583167333363,6855122.0,3614065.0,0.0
1583167333411,6852749.0,3621052.0,0.0
1583167333459,6850884.0,3624364.0,0.0
1583167333506,6861239.0,3628275.0,0.0
1583167333555,6859342.0,3635462.0,0.0
1583167333602,6860511.0,3638737.0,0.0
1583167333652,6879012.0,3665558.0,0.0
1583167333701,6902449.0,3689000.0,0.0
1583167333750,6924130.0,3711711.0,0.0
1583167333799,6945135.0,3731277.0,0.0
1583167333843,6951561.0,3745668.0,0.0
1583167333895,6922450.0,3718412.0,0.0
1583167333941,6896823.0,3704923.0,0.0
1583167333987,6884036.0,3697208.0,0.0
1583167334040,6882904.0,3698803.0,0.0
1583167334089,6886994.0,3702038.0,0.0
1583167334136,6894191.0,3708269.0,0.0
1583167334182,6894959.0,3712499.0,0.0
1583167334229,6895360.0,3712249.0,0.0
1583167334283,6901989.0,3712847.0,0.0
1583167334331,6906466.0,3718430.0,0.0
1583167334379,6922702.0,3724592.0,0.0
1583167334424,6927655.0,3731035.0,0.0
1583167334475,6936805.0,3735775.0,0.0
1583167334522,6950541.0,3747366.0,0.0
1583167334573,6934593.0,3728390.0,0.0
1583167334622,6899305.0,3703606.0,0.0
1583167334671,6881552.0,3693082.0,0.0
1583167334717,6870265.0,3690187.0,0.0
1583167334768,6878848.0,3692944.0,0.0
1583167334814,6880128.0,3702792.0,0.0
1583167334863,6879159.0,3706337.0,0.0
1583167334913,6881516.0,3710134.0,0.0
1583167334960,6891106.0,3714182.0,0.0
1583167335009,6894355.0,3719462.0,0.0
1583167335057,6907818.0,3731224.0,0.0
1583167335103,6918157.0,3737502.0,0.0
1583167335153,6925755.0,3743093.0,0.0
1583167335203,6942119.0,3750877.0,0.0
1583167335252,6931892.0,3744930.0,0.0
1583167335302,6892747.0,3722642.0,0.0
1583167335345,6871450.0,3705079.0,0.0
1583167335390,6869897.0,3705262.0,0.0
1583167335443,6870977.0,3710307.0,0.0
1583167335489,6876018.0,3720129.0,0.0
1583167335537,6884913.0,3729005.0,0.0
1583167335586,6889406.0,3737526.0,0.0
1583167335634,6900493.0,3747063.0,0.0
1583167335686,6917828.0,3761097.0,0.0
1583167335731,6941371.0,3774360.0,0.0
1583167335779,6958595.0,3789045.0,0.0
1583167335832,6977063.0,3811143.0,0.0
1583167335881,6989958.0,3823721.0,0.0
1583167335928,7003618.0,3830708.0,0.0
1583167335977,6981389.0,3815797.0,0.0
1583167336030,6945335.0,3788838.0,0.0
1583167336069,6929243.0,3774646.0,0.0
1583167336123,6914248.0,3767850.0,0.0
1583167336165,6915672.0,3771040.0,0.0
1583167336219,6919853.0,3778712.0,0.0
1583167336270,6919269.0,3781859.0,0.0
1583167336315,6919397.0,3784547.0,0.0
1583167336367,6922210.0,3787668.0,0.0
1583167336412,6932969.0,3793519.0,0.0
1583167336462,6953626.0,3808394.0,0.0
1583167336506,6965097.0,3819091.0,0.0
1583167336559,6966813.0,3826659.0,0.0
1583167336610,6983197.0,3842125.0,0.0
1583167336655,6979800.0,3833819.0,0.0
1583167336706,6939398.0,3800626.0,0.0
1583167336752,6923106.0,3812469.0,0.0
1583167336797,6957426.0,3900101.0,0.0
1583167336846,6991819.0,4000296.0,0.0
1583167336898,7056971.0,4090207.0,0.0
1583167336948,7054890.0,4099630.0,0.0
1583167336989,7070414.0,4082198.0,0.0
1583167337043,7070470.0,4056669.0,0.0
1583167337086,7079328.0,4043483.0,0.0
1583167337140,7144008.0,4060838.0,0.0
1583167337188,7257691.0,4132000.0,0.0
1583167337238,7357364.0,4220239.0,0.0
1583167337289,7393821.0,4235688.0,0.0
1583167337333,7505440.0,4346266.0,0.0
1583167337382,7508709.0,4367670.0,0.0
1583167337430,7539140.0,4424269.0,0.0
1583167337478,7559781.0,4439690.0,0.0
1583167337531,7605041.0,4440382.0,0.0
1583167337576,7617680.0,4413962.0,0.0
1583167337626,7557697.0,4395973.0,0.0
1583167337669,7534263.0,4374007.0,0.0
1583167337721,7512090.0,4338212.0,0.0
1583167337769,7600531.0,4401598.0,0.0
1583167337817,7703801.0,4631505.0,0.0
1583167337862,7830016.0,4811190.0,0.0
1583167337915,7906838.0,4907422.0,0.0
1583167337965,7983517.0,4984565.0,0.0
1583167338012,7944484.0,4950672.0,0.0
1583167338056,7921598.0,4917418.0,0.0
1583167338107,7878931.0,4875973.0,0.0
1583167338157,7864044.0,4851137.0,0.0
1583167338204,7892739.0,4863386.0,0.0
1583167338254,7927899.0,4860481.0,0.0
1583167338305,7936557.0,4845397.0,0.0
1583167338346,7970349.0,4841756.0,0.0
1583167338401,7968557.0,4867460.0,0.0
1583167338446,7990002.0,4888716.0,0.0
1583167338497,8046953.0,4916880.0,0.0
1583167338547,8049601.0,4897757.0,0.0
1583167338594,8035902.0,4892564.0,0.0
1583167338639,8088799.0,4959028.0,0.0
1583167338687,8125203.0,5041590.0,0.0
1583167338739,8153678.0,5059439.0,0.0
1583167338788,8091795.0,5004686.0,0.0
1583167338837,8003794.0,4964012.0,0.0
1583167338885,7866400.0,4915744.0,0.0
1583167338931,7827895.0,4882976.0,0.0
1583167338981,7822181.0,4903460.0,0.0
1583167339031,7806142.0,4908237.0,0.0
1583167339077,7756370.0,4822790.0,0.0
1583167339128,7738925.0,4804662.0,0.0
1583167339174,7716936.0,4617045.0,0.0
1583167339224,7691290.0,4524470.0,0.0
1583167339269,7737777.0,4715211.0,0.0
1583167339321,7756809.0,4753751.0,0.0
1583167339369,7471012.0,4584701.0,0.0
1583167339417,7469768.0,4501083.0,0.0
1583167339467,7463834.0,4610517.0,0.0
1583167339514,7593974.0,4645063.0,0.0
1583167339562,7581755.0,4615111.0,0.0
1583167339609,7542301.0,4549142.0,0.0
1583167339659,7470736.0,4486328.0,0.0
1583167339709,7404123.0,4442351.0,0.0
1583167339756,7366478.0,4414689.0,0.0
1583167339805,7352359.0,4400924.0,0.0
1583167339851,7352579.0,4395322.0,0.0
1583167339901,7350514.0,4390174.0,0.0
1583167339950,7323099.0,4377916.0,0.0
1583167339994,7275792.0,4324264.0,0.0
1583167340047,7241728.0,4280894.0,0.0
1583167340095,7205507.0,4238626.0,0.0
1583167340145,7161449.0,4205312.0,0.0
1583167340189,7154126.0,4293871.0,0.0
1583167340236,7164261.0,4336532.0,0.0
1583167340285,7127584.0,4339679.0,0.0
1583167340334,7084937.0,4404746.0,0.0
1583167340383,7110488.0,4498533.0,0.0
1583167340431,7175040.0,4543707.0,0.0
1583167340480,7218858.0,4522703.0,0.0
1583167340528,7231225.0,4494632.0,0.0
1583167340576,7178473.0,4449166.0,0.0
1583167340625,7116754.0,4382553.0,0.0
1583167340672,7074435.0,4381947.0,0.0
1583167340727,7026724.0,4340354.0,0.0
1583167340770,6982524.0,4277341.0,0.0
1583167340822,6981956.0,4282014.0,0.0
1583167340871,6950557.0,4268300.0,0.0
1583167340919,6920182.0,4227130.0,0.0
1583167340968,6964752.0,4263255.0,0.0
1583167341015,7046980.0,4333454.0,0.0
1583167341065,7148589.0,4434271.0,0.0
1583167341111,7309472.0,4584163.0,0.0
1583167341161,7454808.0,4662078.0,0.0
1583167341210,7537148.0,4741971.0,0.0
1583167341258,7644386.0,4824515.0,0.0
1583167341311,7725574.0,4893084.0,0.0
1583167341349,7857634.0,4974736.0,0.0
1583167341404,7962916.0,5042023.0,0.0
1583167341451,8061200.0,5100858.0,0.0
1583167341501,8099245.0,5113636.0,0.0
1583167341549,8097785.0,5108321.0,0.0
1583167341598,8125748.0,5136483.0,0.0
1583167341646,8106207.0,5106905.0,0.0
1583167341692,8133074.0,5119609.0,0.0
1583167341743,8162829.0,5167311.0,0.0
1583167341791,8205551.0,5208689.0,0.0
1583167341840,8234446.0,5237367.0,0.0
1583167341889,8280969.0,5233897.0,0.0
1583167341935,8274648.0,5199309.0,0.0
1583167341988,8274904.0,5185594.0,0.0
1583167342031,8271343.0,5185765.0,0.0
1583167342082,8268091.0,5193766.0,0.0
1583167342130,8286559.0,5217401.0,0.0
1583167342179,8321427.0,5263244.0,0.0
1583167342228,8368275.0,5360097.0,0.0
1583167342271,8495622.0,5457562.0,0.0
1583167342327,8614747.0,5511734.0,0.0
1583167342374,8693710.0,5503333.0,0.0
1583167342416,8701656.0,5466063.0,0.0
1583167342471,8728559.0,5457641.0,0.0
1583167342519,8747411.0,5455410.0,0.0
1583167342568,8769421.0,5459531.0,0.0
1583167342610,8748964.0,5434835.0,0.0
1583167342665,8757438.0,5441706.0,0.0
1583167342711,8792526.0,5481567.0,0.0
1583167342758,8810899.0,5565387.0,0.0
1583167342810,8823778.0,5703052.0,0.0
1583167342858,8890354.0,5842854.0,0.0
1583167342908,8951965.0,5873422.0,0.0
1583167342951,8977371.0,5903869.0,0.0
1583167343001,9019894.0,5937168.0,0.0
1583167343052,9041739.0,6070242.0,0.0
1583167343101,9083529.0,6124567.0,0.0
1583167343148,9141264.0,6151950.0,0.0
1583167343192,9159220.0,6200672.0,0.0
1583167343246,9187551.0,6220816.0,0.0
1583167343292,9182454.0,6214288.0,0.0
1583167343343,9171075.0,6205985.0,0.0
1583167343391,9106835.0,6202657.0,0.0
1583167343439,9109832.0,6264643.0,0.0
1583167343488,9106487.0,6324794.0,0.0
1583167343532,9108352.0,6356861.0,0.0
1583167343582,9087602.0,6328227.0,0.0
1583167343628,9048805.0,6277021.0,0.0
1583167343682,8956878.0,6189064.0,0.0
1583167343732,8824034.0,6078006.0,0.0
1583167343777,8654093.0,5931228.0,0.0
1583167343828,8475657.0,5783037.0,0.0
1583167343876,8346230.0,5652257.0,0.0
1583167343925,8231414.0,5533177.0,0.0
1583167343969,8135538.0,5433835.0,0.0
1583167344021,8103903.0,5373484.0,0.0
1583167344070,8026312.0,5284486.0,0.0
1583167344114,7875022.0,5139821.0,0.0
1583167344168,7766928.0,5023861.0,0.0
1583167344213,7712827.0,4935799.0,0.0
1583167344264,7636440.0,4858900.0,0.0
1583167344314,7615179.0,4812795.0,0.0
1583167344360,7651784.0,4830440.0,0.0
1583167344409,7685060.0,4849756.0,0.0
1583167344452,7685228.0,4796025.0,0.0
1583167344507,7713575.0,4815844.0,0.0
1583167344554,7788609.0,4918446.0,0.0
1583167344602,7953106.0,5111035.0,0.0
1583167344651,8023775.0,5240391.0,0.0
1583167344693,8169258.0,5369700.0,0.0
1583167344749,8244109.0,5446272.0,0.0
1583167344792,8335783.0,5533167.0,0.0
1583167344849,8396169.0,5585250.0,0.0
1583167344894,8427986.0,5705788.0,0.0
1583167344943,8485303.0,5840772.0,0.0
1583167344990,8532719.0,5926160.0,0.0
1583167345033,8623061.0,6015601.0,0.0
1583167345087,8685801.0,6080728.0,0.0
1583167345135,8764616.0,6137400.0,0.0
1583167345185,8807194.0,6186867.0,0.0
1583167345232,8861751.0,6232563.0,0.0
1583167345282,8907523.0,6254413.0,0.0
1583167345330,8937094.0,6201278.0,0.0
1583167345377,8903706.0,6095605.0,0.0
1583167345426,8783721.0,5955309.0,0.0
1583167345474,8576338.0,5772504.0,0.0
1583167345524,8412606.0,5629624.0,0.0
1583167345571,8204435.0,5457517.0,0.0
1583167345619,7996740.0,5274328.0,0.0
1583167345669,7795331.0,5109378.0,0.0
1583167345715,7641317.0,4963592.0,0.0
1583167345766,7491961.0,4831141.0,0.0
1583167345813,7326368.0,4703001.0,0.0
1583167345863,7167130.0,4577242.0,0.0
1583167345911,7015125.0,4471650.0,0.0
1583167345954,6877479.0,4378252.0,0.0
1583167346004,6761074.0,4297872.0,0.0
1583167346052,6664031.0,4219830.0,0.0
1583167346102,6583279.0,4147779.0,0.0
1583167346149,6518400.0,4082826.0,0.0
1583167346198,6461321.0,4018014.0,0.0
1583167346247,6409009.0,3953015.0,0.0
1583167346295,6299690.0,3851324.0,0.0
1583167346344,6156455.0,3733892.0,0.0
1583167346391,6067081.0,3639826.0,0.0
1583167346443,5996708.0,3565591.0,0.0
1583167346492,5953017.0,3415793.0,0.0
1583167346540,5921801.0,3366607.0,0.0
1583167346589,5882528.0,3315642.0,0.0
1583167346635,5839021.0,3267626.0,0.0
1583167346684,5479211.0,3231217.0,0.0
1583167346731,5404910.0,3208254.0,0.0
1583167346781,5387554.0,3183349.0,0.0
1583167346828,5370717.0,3155929.0,0.0
1583167346878,5348457.0,3129532.0,0.0
1583167346926,5328580.0,3105816.0,0.0
1583167346974,5299414.0,3082670.0,0.0
1583167347023,5251948.0,3042958.0,0.0
1583167347070,5156000.0,2979043.0,0.0
1583167347119,5081299.0,2940416.0,0.0
1583167347168,5038242.0,2918284.0,0.0
1583167347215,5015584.0,2908489.0,0.0
1583167347268,5015256.0,2904482.0,0.0
1583167347320,5015556.0,2909381.0,0.0
1583167347365,5003544.0,2896898.0,0.0
1583167347412,5003337.0,2897237.0,0.0
1583167347462,5024393.0,2911894.0,0.0
1583167347511,5062272.0,2931685.0,0.0
1583167347558,5126724.0,2992845.0,0.0
1583167347609,5195904.0,3048289.0,0.0
1583167347654,5305865.0,3145077.0,0.0
1583167347706,5386567.0,3208445.0,0.0
1583167347753,5451185.0,3265763.0,0.0
1583167347798,5458678.0,3263744.0,0.0
1583167347848,5436814.0,3238456.0,0.0
1583167347898,5457294.0,3287651.0,0.0
1583167347947,5539940.0,3415448.0,0.0
1583167347994,5664780.0,3576860.0,0.0
1583167348043,5846621.0,3736261.0,0.0
1583167348092,5968268.0,3836255.0,0.0
1583167348138,6054119.0,3884783.0,0.0
1583167348189,6099094.0,3926221.0,0.0
1583167348233,6155012.0,3961640.0,0.0
1583167348282,6197905.0,4025140.0,0.0
1583167348330,6260797.0,4047869.0,0.0
1583167348379,6323825.0,4086263.0,0.0
1583167348427,6356800.0,4109990.0,0.0
1583167348476,6377799.0,4100723.0,0.0
1583167348525,6363264.0,4095764.0,0.0
1583167348572,6281673.0,4035325.0,0.0
1583167348622,6173710.0,3920499.0,0.0
1583167348669,6048105.0,3822394.0,0.0
1583167348719,5960145.0,3743483.0,0.0
1583167348769,5897388.0,3683762.0,0.0
1583167348819,5851387.0,3632357.0,0.0
1583167348868,5799072.0,3577977.0,0.0
1583167348915,5751810.0,3528706.0,0.0
1583167348963,5730673.0,3484424.0,0.0
1583167349007,5690232.0,3428632.0,0.0
1583167349059,5673767.0,3394582.0,0.0
1583167349109,5679396.0,3371670.0,0.0
1583167349158,5700342.0,3358579.0,0.0
1583167349207,5728974.0,3363738.0,0.0
1583167349254,5776044.0,3377564.0,0.0
1583167349298,5814345.0,3395813.0,0.0
1583167349351,5800947.0,3400104.0,0.0
1583167349400,5740425.0,3358086.0,0.0
1583167349449,5651328.0,3290721.0,0.0
1583167349495,5613614.0,3249796.0,0.0
1583167349547,5640396.0,3238578.0,0.0
1583167349593,5596957.0,3210187.0,0.0
1583167349639,5653971.0,3270375.0,0.0
1583167349691,5768455.0,3325015.0,0.0
1583167349739,5944418.0,3440178.0,0.0
1583167349789,6077572.0,3532015.0,0.0
1583167349835,6158232.0,3560112.0,0.0
1583167349878,6172000.0,3542349.0,0.0
1583167349932,6210562.0,3553282.0,0.0
1583167349981,6257043.0,3590227.0,0.0
1583167350029,6319126.0,3658589.0,0.0
1583167350078,6415689.0,3815070.0,0.0
1583167350123,6495707.0,3927643.0,0.0
1583167350175,6532145.0,3999991.0,0.0
1583167350220,6556529.0,4063301.0,0.0
1583167350271,6622668.0,4144006.0,0.0
1583167350324,6746973.0,4245934.0,0.0
1583167350369,6843771.0,4264866.0,0.0
1583167350417,6957403.0,4336038.0,0.0
1583167350461,7111256.0,4446971.0,0.0
1583167350513,7248206.0,4595035.0,0.0
1583167350561,7398978.0,4783746.0,0.0
1583167350611,7551227.0,5041164.0,0.0
1583167350659,7735165.0,5175704.0,0.0
1583167350711,7854742.0,5286334.0,0.0
1583167350752,7974390.0,5314543.0,0.0
1583167350800,8023296.0,5339497.0,0.0
1583167350852,8083968.0,5308109.0,0.0
1583167350901,8115955.0,5307420.0,0.0
1583167350951,8071817.0,5221599.0,0.0
1583167350998,8517233.0,5097831.0,0.0
1583167351043,8258554.0,4957952.0,0.0
1583167351094,8198539.0,4880091.0,0.0
1583167351142,8115438.0,4788536.0,0.0
1583167351191,8065329.0,4741928.0,0.0
1583167351241,8029745.0,4688130.0,0.0
1583167351289,7921841.0,4579718.0,0.0
1583167351338,7806941.0,4513672.0,0.0
1583167351383,7630830.0,4386241.0,0.0
1583167351429,7498024.0,4292618.0,0.0
1583167351483,7402295.0,4227772.0,0.0
1583167351531,7278152.0,4137541.0,0.0
1583167351579,7234181.0,4091227.0,0.0
1583167351624,7217102.0,4069347.0,0.0
1583167351676,7103482.0,4012021.0,0.0
1583167351723,6953291.0,3921913.0,0.0
1583167351773,6789710.0,3826086.0,0.0
1583167351823,6713245.0,3776166.0,0.0
1583167351871,6741090.0,3851505.0,0.0
1583167351919,6706592.0,3914089.0,0.0
1583167351963,6769536.0,4050917.0,0.0
1583167352011,6810123.0,4151200.0,0.0
1583167352063,6815418.0,4127183.0,0.0
