time,value,value2,value3
1582913613858,6544066.0,7503456.0,0.0
1582913613907,6466549.0,7340610.0,0.0
1582913613964,6389177.0,7177437.0,0.0
1582913614014,6335513.0,7058400.0,0.0
1582913614080,6284699.0,6966477.0,0.0
1582913614100,6277992.0,6939290.0,0.0
1582913614172,6281862.0,6907592.0,0.0
1582913614195,6267353.0,6831250.0,0.0
1582913614240,6226939.0,6742653.0,0.0
1582913614293,6216183.0,6717528.0,0.0
1582913614337,6265216.0,6795352.0,0.0
1582913614387,6233755.0,6740368.0,0.0
1582913614435,6228151.0,6738882.0,0.0
1582913614484,6217169.0,6686274.0,0.0
1582913614536,6238278.0,6719160.0,0.0
1582913614581,6253070.0,6843122.0,0.0
1582913614633,6305239.0,7016757.0,0.0
1582913614680,6311613.0,7062008.0,0.0
1582913614730,6292844.0,6999261.0,0.0
1582913614779,6226274.0,6864880.0,0.0
1582913614827,6188757.0,6806528.0,0.0
1582913614878,6149188.0,6742117.0,0.0
1582913614923,6130843.0,6709840.0,0.0
1582913614974,6104096.0,6670986.0,0.0
1582913615020,6088151.0,6644570.0,0.0
1582913615069,6075660.0,6621730.0,0.0
1582913615120,6060275.0,6606165.0,0.0
1582913615168,6041088.0,6576066.0,0.0
1582913615217,6008996.0,6516082.0,0.0
1582913615266,5971942.0,6458160.0,0.0
1582913615311,5939686.0,6423536.0,0.0
1582913615366,5920938.0,6409616.0,0.0
1582913615415,5904840.0,6388704.0,0.0
1582913615457,5878246.0,6361293.0,0.0
1582913615511,5863500.0,6337861.0,0.0
1582913615563,5844029.0,6329240.0,0.0
1582913615608,5828392.0,6310821.0,0.0
1582913615659,5819227.0,6299928.0,0.0
1582913615704,5808625.0,6292480.0,0.0
1582913615754,5797205.0,6277178.0,0.0
1582913615797,5785058.0,6252544.0,0.0
1582913615852,5749369.0,6192690.0,0.0
1582913615902,5710370.0,6149000.0,0.0
1582913615948,5681661.0,6128162.0,0.0
1582913615996,5666144.0,6115890.0,0.0
1582913616040,5659413.0,6149978.0,0.0
1582913616097,5642400.0,6161821.0,0.0
1582913616136,5612966.0,6191445.0,0.0
1582913616191,5617681.0,6251725.0,0.0
1582913616243,5648953.0,6305034.0,0.0
1582913616282,5688797.0,6322858.0,0.0
1582913616335,5700157.0,6288397.0,0.0
1582913616381,5698758.0,6251266.0,0.0
1582913616435,5686173.0,6214357.0,0.0
1582913616484,5654924.0,6134514.0,0.0
1582913616531,5612053.0,6064928.0,0.0
1582913616584,5582645.0,6034341.0,0.0
1582913616628,5579272.0,6061530.0,0.0
1582913616680,5570427.0,6084458.0,0.0
1582913616726,5630515.0,6224538.0,0.0
1582913616775,5689747.0,6344984.0,0.0
1582913616818,5872512.0,6744818.0,0.0
1582913616868,5888123.0,6719160.0,0.0
1582913616920,6036268.0,6908778.0,0.0
1582913616969,6012938.0,6815162.0,0.0
1582913617019,6097542.0,6994704.0,0.0
1582913617066,6212170.0,7238714.0,0.0
1582913617117,6264695.0,7358997.0,0.0
1582913617160,6338470.0,7493050.0,0.0
1582913617219,6399697.0,7607709.0,0.0
1582913617257,6442342.0,7690728.0,0.0
1582913617304,6467963.0,7730826.0,0.0
1582913617359,6516236.0,7794717.0,0.0
1582913617401,6498321.0,7737224.0,0.0
1582913617451,6524974.0,7770349.0,0.0
1582913617501,6510645.0,7713925.0,0.0
1582913617549,6512437.0,7712885.0,0.0
1582913617597,6490698.0,7669002.0,0.0
1582913617646,6454274.0,7591088.0,0.0
1582913617699,6429388.0,7540541.0,0.0
1582913617747,6424960.0,7518666.0,0.0
1582913617797,6388488.0,7442845.0,0.0
1582913617840,6344714.0,7342181.0,0.0
1582913617894,6309286.0,7286173.0,0.0
1582913617940,6289152.0,7248213.0,0.0
1582913617991,6296797.0,7268856.0,0.0
1582913618040,6272851.0,7227509.0,0.0
1582913618088,6239690.0,7144373.0,0.0
1582913618138,6209666.0,7054749.0,0.0
1582913618184,6199739.0,7010213.0,0.0
1582913618228,6192605.0,6994541.0,0.0
1582913618278,6192153.0,6971301.0,0.0
1582913618330,6187451.0,6945776.0,0.0
1582913618380,6180258.0,6930104.0,0.0
1582913618428,6181041.0,6924450.0,0.0
1582913618476,6173454.0,6882704.0,0.0
1582913618523,6158423.0,6849741.0,0.0
1582913618569,6141459.0,6827021.0,0.0
1582913618622,6139808.0,6833253.0,0.0
1582913618670,6137587.0,6830538.0,0.0
1582913618714,6146278.0,6837453.0,0.0
1582913618764,6145139.0,6831384.0,0.0
1582913618814,6141256.0,6825285.0,0.0
1582913618861,6136081.0,6821917.0,0.0
1582913618909,6159125.0,6912504.0,0.0
1582913618964,6173324.0,7000464.0,0.0
1582913619010,6168480.0,7039181.0,0.0
1582913619054,6167577.0,7090589.0,0.0
1582913619101,6187012.0,7186074.0,0.0
1582913619151,6250709.0,7377592.0,0.0
1582913619198,6315473.0,7510282.0,0.0
1582913619247,6427916.0,7627389.0,0.0
1582913619299,6409134.0,7542010.0,0.0
1582913619344,6224066.0,7110581.0,0.0
1582913619400,6172672.0,6912413.0,0.0
1582913619448,6139202.0,6832498.0,0.0
1582913619498,6121239.0,6782157.0,0.0
1582913619539,6117083.0,6771770.0,0.0
1582913619594,6112430.0,6800768.0,0.0
1582913619642,6120776.0,6789594.0,0.0
1582913619691,6120290.0,6781432.0,0.0
1582913619741,6150897.0,6798053.0,0.0
1582913619788,6137610.0,6748069.0,0.0
1582913619838,6131686.0,6684210.0,0.0
1582913619886,6133171.0,6621568.0,0.0
1582913619934,6129444.0,6590952.0,0.0
1582913619982,6144320.0,6579168.0,0.0
1582913620031,6164467.0,6575042.0,0.0
1582913620083,6183974.0,6563229.0,0.0
1582913620123,6198720.0,6555498.0,0.0
1582913620173,6210568.0,6537037.0,0.0
1582913620224,6230062.0,6550957.0,0.0
1582913620268,6253070.0,6550853.0,0.0
1582913620316,6262617.0,6555706.0,0.0
1582913620367,6270690.0,6547528.0,0.0
1582913620420,6291776.0,6581202.0,0.0
1582913620466,6299195.0,6574168.0,0.0
1582913620519,6310248.0,6579984.0,0.0
1582913620562,6298720.0,6574197.0,0.0
1582913620615,6305902.0,6618866.0,0.0
1582913620662,6313275.0,6667352.0,0.0
1582913620711,6285233.0,6651992.0,0.0
1582913620760,6248012.0,6587392.0,0.0
1582913620806,6256610.0,6541592.0,0.0
1582913620859,6225181.0,6463189.0,0.0
1582913620902,6249105.0,6500010.0,0.0
1582913620955,6182013.0,6416309.0,0.0
1582913621002,6142385.0,6384861.0,0.0
1582913621051,6116550.0,6342210.0,0.0
1582913621101,6080422.0,6300018.0,0.0
1582913621148,6057781.0,6281317.0,0.0
1582913621193,6026272.0,6231960.0,0.0
1582913621242,5991592.0,6161912.0,0.0
1582913621290,5937678.0,6092842.0,0.0
1582913621338,5893858.0,6046274.0,0.0
1582913621392,5855652.0,6004141.0,0.0
1582913621441,5826587.0,5969829.0,0.0
1582913621490,5779810.0,5925589.0,0.0
1582913621537,5749939.0,5885640.0,0.0
1582913621581,5713777.0,5839752.0,0.0
1582913621636,5675867.0,5804578.0,0.0
1582913621683,5646173.0,5774082.0,0.0
1582913621732,5589875.0,5733034.0,0.0
1582913621781,5551456.0,5706616.0,0.0
1582913621830,5553000.0,5720197.0,0.0
1582913621874,5579605.0,5751421.0,0.0
1582913621923,5659852.0,5802858.0,0.0
1582913621978,5686993.0,5897245.0,0.0
1582913622023,5636439.0,5853658.0,0.0
1582913622072,5602389.0,5806701.0,0.0
1582913622121,5617171.0,5853717.0,0.0
1582913622170,5648465.0,5876928.0,0.0
1582913622218,5679488.0,5932357.0,0.0
1582913622265,5639133.0,5886485.0,0.0
1582913622310,5664352.0,5920069.0,0.0
1582913622363,5656682.0,5915677.0,0.0
1582913622412,5668174.0,5923986.0,0.0
1582913622462,5652074.0,5885536.0,0.0
1582913622510,5645188.0,5883264.0,0.0
1582913622558,5675225.0,5893757.0,0.0
1582913622605,5760388.0,5948384.0,0.0
1582913622656,5851652.0,6030616.0,0.0
1582913622703,5915074.0,6137141.0,0.0
1582913622753,5976157.0,6233501.0,0.0
1582913622802,6026638.0,6321877.0,0.0
1582913622849,6072953.0,6391554.0,0.0
1582913622900,6107822.0,6448053.0,0.0
1582913622943,6148285.0,6499296.0,0.0
1582913622997,6178963.0,6557976.0,0.0
1582913623044,6206839.0,6605970.0,0.0
1582913623088,6233920.0,6645314.0,0.0
1582913623141,6262129.0,6680277.0,0.0
1582913623184,6284936.0,6711576.0,0.0
1582913623235,6303101.0,6746762.0,0.0
1582913623283,6321361.0,6785824.0,0.0
1582913623331,6331430.0,6812240.0,0.0
1582913623384,6346222.0,6846522.0,0.0
1582913623434,6361252.0,6885226.0,0.0
1582913623482,6373849.0,6909074.0,0.0
1582913623529,6383716.0,6937064.0,0.0
1582913623580,6393772.0,6966301.0,0.0
1582913623624,6399707.0,6983248.0,0.0
1582913623677,6408339.0,7004544.0,0.0
1582913623724,6417706.0,7027221.0,0.0
1582913623767,6423594.0,7048442.0,0.0
1582913623816,6430670.0,7065226.0,0.0
1582913623866,6436192.0,7091021.0,0.0
1582913623916,6449834.0,7114706.0,0.0
1582913623965,6450297.0,7138746.0,0.0
1582913624013,6460864.0,7158114.0,0.0
1582913624064,6466039.0,7176472.0,0.0
1582913624114,6469518.0,7189264.0,0.0
1582913624162,6472366.0,7200085.0,0.0
1582913624209,6475430.0,7205352.0,0.0
1582913624254,6468913.0,7197101.0,0.0
1582913624307,6465196.0,7182573.0,0.0
1582913624352,6441333.0,7169378.0,0.0
1582913624405,6416684.0,7134562.0,0.0
1582913624454,6380036.0,7078808.0,0.0
1582913624502,6342423.0,7001354.0,0.0
1582913624545,6323379.0,6881976.0,0.0
1582913624597,6344561.0,6787976.0,0.0
1582913624647,6312492.0,6702226.0,0.0
1582913624697,6324770.0,6745250.0,0.0
1582913624744,6360622.0,6789594.0,0.0
1582913624794,6368305.0,6781920.0,0.0
1582913624842,6276674.0,6575309.0,0.0
1582913624891,6221644.0,6573706.0,0.0
1582913624940,6271140.0,6638992.0,0.0
1582913624987,6324388.0,6663952.0,0.0
1582913625037,6146491.0,6495274.0,0.0
1582913625085,6117523.0,6442680.0,0.0
1582913625135,6092507.0,6403040.0,0.0
1582913625182,6056023.0,6341037.0,0.0
1582913625225,5981179.0,6255554.0,0.0
1582913625276,5975790.0,6219760.0,0.0
1582913625327,6022592.0,6258789.0,0.0
1582913625379,5935886.0,6162786.0,0.0
1582913625425,5896992.0,6129232.0,0.0
1582913625475,5923492.0,6137514.0,0.0
1582913625523,5930675.0,6138568.0,0.0
1582913625567,5944055.0,6149562.0,0.0
1582913625621,5926257.0,6134946.0,0.0
1582913625670,5963050.0,6162490.0,0.0
1582913625718,5912283.0,6123117.0,0.0
1582913625765,5906240.0,6098690.0,0.0
1582913625816,5897051.0,6098632.0,0.0
1582913625863,5895509.0,6122080.0,0.0
1582913625911,5934105.0,6205616.0,0.0
1582913625962,6056832.0,6346632.0,0.0
1582913626008,5887957.0,6214448.0,0.0
1582913626059,5899936.0,6177418.0,0.0
1582913626109,5983460.0,6225666.0,0.0
1582913626150,6066519.0,6271805.0,0.0
1582913626203,6057164.0,6234200.0,0.0
1582913626247,6068561.0,6230741.0,0.0
1582913626296,6107549.0,6271850.0,0.0
1582913626351,5960473.0,6173621.0,0.0
1582913626399,5974483.0,6181709.0,0.0
1582913626446,5986284.0,6200512.0,0.0
1582913626491,5956676.0,6213928.0,0.0
1582913626544,5936087.0,6252141.0,0.0
1582913626592,5955310.0,6291498.0,0.0
1582913626643,5906299.0,6267992.0,0.0
1582913626689,5897717.0,6217354.0,0.0
1582913626739,5920832.0,6216464.0,0.0
1582913626787,5951012.0,6225666.0,0.0
1582913626838,5988089.0,6232968.0,0.0
1582913626880,6071980.0,6283514.0,0.0
1582913626932,6013508.0,6187421.0,0.0
1582913626981,5955001.0,6111408.0,0.0
1582913627030,5939389.0,6066664.0,0.0
1582913627080,5930852.0,6056128.0,0.0
1582913627126,5959714.0,6072021.0,0.0
1582913627178,6015289.0,6123578.0,0.0
1582913627224,5999867.0,6118917.0,0.0
1582913627267,5964059.0,6078152.0,0.0
1582913627316,5954882.0,6054496.0,0.0
1582913627369,5954336.0,6037264.0,0.0
1582913627419,5969984.0,6038229.0,0.0
1582913627467,6003701.0,6055253.0,0.0
1582913627517,5994713.0,6045829.0,0.0
1582913627564,5971076.0,5984744.0,0.0
1582913627608,5980147.0,5958906.0,0.0
1582913627663,5938700.0,5922621.0,0.0
1582913627711,5915251.0,5915141.0,0.0
1582913627756,5921674.0,5925472.0,0.0
1582913627806,5931611.0,5937120.0,0.0
1582913627858,5914624.0,5923765.0,0.0
1582913627904,5896029.0,5912501.0,0.0
1582913627949,5883980.0,5911149.0,0.0
1582913628002,5884680.0,5919877.0,0.0
1582913628050,5887970.0,5923037.0,0.0
1582913628094,5890451.0,5909784.0,0.0
1582913628149,5875146.0,5855024.0,0.0
1582913628198,5849467.0,5799712.0,0.0
1582913628240,5817802.0,5768533.0,0.0
1582913628290,5800789.0,5748661.0,0.0
1582913628337,5780654.0,5744312.0,0.0
1582913628389,5756659.0,5716144.0,0.0
1582913628440,5734267.0,5689477.0,0.0
1582913628488,5723797.0,5684533.0,0.0
1582913628537,5717243.0,5682768.0,0.0
1582913628586,5701369.0,5679237.0,0.0
1582913628630,5686363.0,5681165.0,0.0
1582913628684,5677659.0,5640576.0,0.0
1582913628731,5648110.0,5587981.0,0.0
1582913628781,5613678.0,5556802.0,0.0
1582913628828,5590683.0,5543490.0,0.0
1582913628874,5586432.0,5545464.0,0.0
1582913628926,5599219.0,5554264.0,0.0
1582913628971,5597094.0,5549944.0,0.0
1582913629024,5567234.0,5519597.0,0.0
1582913629072,5534146.0,5497336.0,0.0
1582913629123,5511374.0,5477389.0,0.0
1582913629169,5484305.0,5470370.0,0.0
1582913629219,5453947.0,5410741.0,0.0
1582913629261,5418152.0,5346882.0,0.0
1582913629310,5395534.0,5312837.0,0.0
1582913629357,5357341.0,5288677.0,0.0
1582913629412,5328942.0,5274965.0,0.0
1582913629460,5302762.0,5260925.0,0.0
1582913629509,5293371.0,5253562.0,0.0
1582913629560,5267729.0,5237032.0,0.0
1582913629606,5270850.0,5242538.0,0.0
1582913629650,5282022.0,5246306.0,0.0
1582913629704,5298822.0,5285693.0,0.0
1582913629752,5317580.0,5285560.0,0.0
1582913629801,5294227.0,5244733.0,0.0
1582913629849,5272761.0,5235621.0,0.0
1582913629900,5278459.0,5248370.0,0.0
1582913629947,5290120.0,5290026.0,0.0
1582913629991,5314933.0,5325392.0,0.0
1582913630044,5317117.0,5330528.0,0.0
1582913630094,5307214.0,5334104.0,0.0
1582913630142,5309862.0,5341122.0,0.0
1582913630190,5320704.0,5357464.0,0.0
1582913630240,5334700.0,5385674.0,0.0
1582913630281,5344947.0,5384042.0,0.0
1582913630331,5322566.0,5325037.0,0.0
1582913630379,5289774.0,5280856.0,0.0
1582913630434,5269508.0,5272722.0,0.0
1582913630482,5269544.0,5286080.0,0.0
1582913630530,5276394.0,5306218.0,0.0
1582913630580,5280313.0,5317733.0,0.0
1582913630627,5282438.0,5319306.0,0.0
1582913630674,5276061.0,5317570.0,0.0
1582913630724,5268878.0,5322069.0,0.0
1582913630774,5255308.0,5320600.0,0.0
1582913630823,5239543.0,5309928.0,0.0
1582913630871,5216283.0,5247360.0,0.0
1582913630915,5182709.0,5173261.0,0.0
1582913630967,5149834.0,5142749.0,0.0
1582913631014,5141512.0,5139173.0,0.0
1582913631064,5145762.0,5150184.0,0.0
1582913631116,5142688.0,5143312.0,0.0
1582913631162,5145179.0,5129986.0,0.0
1582913631210,5135219.0,5107725.0,0.0
1582913631256,5111415.0,5081725.0,0.0
1582913631302,5104422.0,5082184.0,0.0
1582913631354,5124166.0,5101952.0,0.0
1582913631405,5124533.0,5072597.0,0.0
1582913631454,5144420.0,5063752.0,0.0
1582913631503,5186508.0,5103778.0,0.0
1582913631550,5214254.0,5144322.0,0.0
1582913631596,5243805.0,5167296.0,0.0
1582913631643,5281856.0,5214146.0,0.0
1582913631694,5304330.0,5229194.0,0.0
1582913631745,5317973.0,5228557.0,0.0
1582913631789,5340364.0,5252421.0,0.0
1582913631836,5356533.0,5287400.0,0.0
1582913631886,5377892.0,5307880.0,0.0
1582913631937,5398658.0,5307568.0,0.0
1582913631984,5399214.0,5271032.0,0.0
1582913632036,5402944.0,5266432.0,0.0
1582913632084,5409853.0,5284848.0,0.0
1582913632136,5415349.0,5303562.0,0.0
1582913632177,5422355.0,5320272.0,0.0
1582913632224,5431972.0,5325125.0,0.0
1582913632277,5438370.0,5332664.0,0.0
1582913632321,5452309.0,5356512.0,0.0
1582913632376,5465416.0,5390928.0,0.0
1582913632421,5484494.0,5411736.0,0.0
1582913632471,5493305.0,5403349.0,0.0
1582913632519,5486312.0,5378448.0,0.0
1582913632571,5482916.0,5375213.0,0.0
1582913632616,5485006.0,5390024.0,0.0
1582913632667,5489220.0,5410013.0,0.0
1582913632716,5489102.0,5415624.0,0.0
1582913632766,5493885.0,5421960.0,0.0
1582913632815,5495703.0,5426160.0,0.0
1582913632863,5497128.0,5437274.0,0.0
1582913632912,5499336.0,5446922.0,0.0
1582913632960,5508977.0,5459802.0,0.0
1582913633009,5511577.0,5447648.0,0.0
1582913633059,5506792.0,5414776.0,0.0
1582913633106,5495953.0,5405872.0,0.0
1582913633156,5496806.0,5419450.0,0.0
1582913633204,5501224.0,5423488.0,0.0
1582913633253,5506613.0,5438938.0,0.0
1582913633295,5510329.0,5439797.0,0.0
1582913633343,5512098.0,5443954.0,0.0
1582913633401,5521216.0,5461538.0,0.0
1582913633440,5529077.0,5474376.0,0.0
1582913633496,5532211.0,5487005.0,0.0
1582913633543,5547763.0,5505512.0,0.0
1582913633592,5545591.0,5478992.0,0.0
1582913633636,5538278.0,5450498.0,0.0
1582913633690,5532401.0,5450274.0,0.0
1582913633743,5535251.0,5461480.0,0.0
1582913633787,5538634.0,5477552.0,0.0
1582913633836,5543144.0,5485848.0,0.0
1582913633880,5547229.0,5483280.0,0.0
1582913633932,5549544.0,5494218.0,0.0
1582913633979,5553710.0,5503360.0,0.0
1582913634029,5563993.0,5524256.0,0.0
1582913634081,5577990.0,5542064.0,0.0
1582913634122,5587987.0,5555970.0,0.0
1582913634176,5588582.0,5526304.0,0.0
1582913634223,5585969.0,5513986.0,0.0
1582913634278,5585696.0,5518394.0,0.0
1582913634317,5589209.0,5536085.0,0.0
1582913634363,5596844.0,5546234.0,0.0
1582913634418,5603278.0,5550821.0,0.0
1582913634460,5607697.0,5556624.0,0.0
1582913634516,5609405.0,5556802.0,0.0
1582913634558,5607458.0,5568154.0,0.0
1582913634612,5610129.0,5573096.0,0.0
1582913634661,5616162.0,5583826.0,0.0
1582913634709,5615936.0,5585029.0,0.0
1582913634759,5614297.0,5547274.0,0.0
1582913634806,5602126.0,5522757.0,0.0
1582913634856,5592369.0,5525472.0,0.0
1582913634903,5600311.0,5534674.0,0.0
1582913634952,5599349.0,5544290.0,0.0
1582913635000,5604420.0,5546696.0,0.0
1582913635048,5604064.0,5545522.0,0.0
1582913635094,5606662.0,5555525.0,0.0
1582913635142,5612552.0,5566360.0,0.0
1582913635192,5616885.0,5573704.0,0.0
1582913635239,5616352.0,5585680.0,0.0
1582913635288,5623865.0,5587224.0,0.0
1582913635337,5616672.0,5546426.0,0.0
1582913635383,5602472.0,5516464.0,0.0
1582913635434,5595955.0,5508629.0,0.0
1582913635482,5596821.0,5512533.0,0.0
1582913635532,5595099.0,5520858.0,0.0
1582913635579,5594779.0,5515293.0,0.0
1582913635628,5594720.0,5509816.0,0.0
1582913635679,5598909.0,5515485.0,0.0
1582913635725,5604644.0,5525605.0,0.0
1582913635775,5608836.0,5536144.0,0.0
1582913635822,5611281.0,5537434.0,0.0
1582913635872,5609252.0,5545256.0,0.0
1582913635920,5608087.0,5521645.0,0.0
1582913635968,5600537.0,5479349.0,0.0
1582913636019,5607208.0,5472106.0,0.0
1582913636065,5625314.0,5495376.0,0.0
1582913636118,5662144.0,5551133.0,0.0
1582913636161,5694150.0,5590386.0,0.0
1582913636216,5734493.0,5635514.0,0.0
1582913636259,5754606.0,5631658.0,0.0
1582913636306,5759569.0,5609040.0,0.0
1582913636357,5795424.0,5635026.0,0.0
1582913636403,5803982.0,5620349.0,0.0
1582913636454,5821851.0,5639314.0,0.0
1582913636506,5849371.0,5663298.0,0.0
1582913636556,5858193.0,5691093.0,0.0
1582913636600,5886711.0,5720776.0,0.0
1582913636647,5891709.0,5733997.0,0.0
1582913636703,5899249.0,5761808.0,0.0
1582913636749,5902203.0,5793272.0,0.0
1582913636794,5905053.0,5794370.0,0.0
1582913636840,5906182.0,5786192.0,0.0
1582913636890,5901408.0,5796848.0,0.0
1582913636936,5900804.0,5801493.0,0.0
1582913636987,5901267.0,5810826.0,0.0
1582913637037,5914350.0,5832317.0,0.0
1582913637089,5918173.0,5830536.0,0.0
1582913637138,5921723.0,5835952.0,0.0
1582913637184,5908947.0,5818856.0,0.0
1582913637235,5904044.0,5763218.0,0.0
1582913637289,5889239.0,5678048.0,0.0
1582913637325,5885892.0,5669530.0,0.0
1582913637375,5885819.0,5682176.0,0.0
1582913637424,5897337.0,5708605.0,0.0
1582913637477,5923385.0,5740512.0,0.0
1582913637524,5932704.0,5766306.0,0.0
1582913637576,5956520.0,5800186.0,0.0
1582913637621,5980123.0,5855053.0,0.0
1582913637672,6002218.0,5893874.0,0.0
1582913637721,6029382.0,5938264.0,0.0
1582913637770,6065819.0,5982786.0,0.0
1582913637819,6079306.0,6021296.0,0.0
1582913637866,6091997.0,6058056.0,0.0
1582913637917,6085550.0,6057597.0,0.0
1582913637962,6083353.0,6048173.0,0.0
1582913638013,6082796.0,6070522.0,0.0
1582913638055,6084791.0,6098304.0,0.0
1582913638107,6089220.0,6122762.0,0.0
1582913638157,6077821.0,6115994.0,0.0
1582913638204,6075517.0,6117389.0,0.0
1582913638254,6086560.0,6129722.0,0.0
1582913638306,6108844.0,6158482.0,0.0
1582913638348,6137800.0,6211002.0,0.0
1582913638397,6160311.0,6241901.0,0.0
1582913638451,6205094.0,6298920.0,0.0
1582913638500,6232377.0,6336584.0,0.0
1582913638545,6277600.0,6392533.0,0.0
1582913638597,6291882.0,6427810.0,0.0
1582913638640,6288546.0,6445277.0,0.0
1582913638694,6282052.0,6456986.0,0.0
1582913638742,6291692.0,6474794.0,0.0
1582913638790,6303101.0,6514272.0,0.0
1582913638841,6315579.0,6555557.0,0.0
1582913638883,6324341.0,6596280.0,0.0
1582913638937,6334327.0,6599781.0,0.0
1582913638986,6331274.0,6592674.0,0.0
1582913639029,6326242.0,6586960.0,0.0
1582913639082,6318560.0,6582746.0,0.0
1582913639131,6314427.0,6585581.0,0.0
1582913639180,6309642.0,6586752.0,0.0
1582913639227,6306129.0,6584600.0,0.0
1582913639274,6306129.0,6583250.0,0.0
1582913639321,6301689.0,6573173.0,0.0
1582913639368,6295136.0,6560648.0,0.0
1582913639422,6288842.0,6556330.0,0.0
1582913639471,6287144.0,6556626.0,0.0
1582913639520,6287394.0,6554920.0,0.0
1582913639565,6282764.0,6555306.0,0.0
1582913639617,6284710.0,6558050.0,0.0
1582913639662,6281113.0,6560960.0,0.0
1582913639714,6279761.0,6560901.0,0.0
1582913639762,6279605.0,6566984.0,0.0
1582913639811,6280507.0,6572906.0,0.0
1582913639861,6280093.0,6579941.0,0.0
1582913639908,6279891.0,6577760.0,0.0
1582913639957,6279035.0,6590477.0,0.0
1582913640006,6276221.0,6576349.0,0.0
1582913640048,6271093.0,6563941.0,0.0
1582913640096,6269538.0,6557442.0,0.0
1582913640145,6265265.0,6570205.0,0.0
1582913640197,6273004.0,6580058.0,0.0
1582913640247,6274073.0,6585890.0,0.0
1582913640292,6285233.0,6602378.0,0.0
1582913640343,6296025.0,6651397.0,0.0
1582913640388,6291752.0,6655642.0,0.0
1582913640438,6272209.0,6645344.0,0.0
1582913640491,6249783.0,6604458.0,0.0
1582913640540,6241175.0,6569181.0,0.0
1582913640582,6236081.0,6532405.0,0.0
1582913640637,6233184.0,6514048.0,0.0
1582913640687,6237090.0,6471842.0,0.0
1582913640733,6230086.0,6403888.0,0.0
1582913640781,6238871.0,6414008.0,0.0
1582913640831,6264919.0,6458722.0,0.0
1582913640880,6286457.0,6511629.0,0.0
1582913640923,6303018.0,6556701.0,0.0
1582913640978,6289271.0,6579213.0,0.0
1582913641024,6316885.0,6628826.0,0.0
1582913641073,6314630.0,6639080.0,0.0
1582913641122,6300537.0,6642168.0,0.0
1582913641170,6289934.0,6638650.0,0.0
1582913641220,6282705.0,6635178.0,0.0
1582913641265,6276221.0,6635520.0,0.0
1582913641311,6269337.0,6638768.0,0.0
1582913641358,6258248.0,6599293.0,0.0
1582913641409,6249058.0,6558896.0,0.0
1582913641460,6244119.0,6556226.0,0.0
1582913641509,6240866.0,6569776.0,0.0
1582913641560,6237388.0,6581914.0,0.0
1582913641604,6235178.0,6577032.0,0.0
1582913641657,6232200.0,6583264.0,0.0
1582913641704,6232827.0,6600226.0,0.0
1582913641754,6235428.0,6623053.0,0.0
1582913641802,6234752.0,6635221.0,0.0
1582913641849,6237482.0,6649632.0,0.0
1582913641895,6240665.0,6661120.0,0.0
1582913641945,6242254.0,6670810.0,0.0
1582913641999,6247609.0,6651562.0,0.0
1582913642044,6231641.0,6624224.0,0.0
1582913642093,6229220.0,6624952.0,0.0
1582913642144,6224945.0,6641618.0,0.0
1582913642189,6224115.0,6653445.0,0.0
1582913642241,6225241.0,6654173.0,0.0
1582913642293,6220042.0,6655256.0,0.0
1582913642332,6224149.0,6667618.0,0.0
1582913642378,6224968.0,6678349.0,0.0
1582913642430,6227475.0,6698442.0,0.0
1582913642479,6227165.0,6708266.0,0.0
1582913642527,6230276.0,6715525.0,0.0
1582913642580,6230146.0,6722186.0,0.0
1582913642625,6228851.0,6733629.0,0.0
1582913642677,6226440.0,6707301.0,0.0
1582913642724,6220718.0,6684048.0,0.0
1582913642773,6216040.0,6687208.0,0.0
1582913642822,6209939.0,6695429.0,0.0
1582913642865,6207801.0,6705834.0,0.0
1582913642921,6205356.0,6699274.0,0.0
1582913642966,6204381.0,6698160.0,0.0
1582913643017,6202327.0,6704957.0,0.0
1582913643065,6203016.0,6711829.0,0.0
1582913643110,6209809.0,6724296.0,0.0
1582913643158,6208774.0,6744210.0,0.0
1582913643207,6212859.0,6753456.0,0.0
1582913643257,6214592.0,6760402.0,0.0
1582913643301,6214508.0,6752477.0,0.0
1582913643352,6203586.0,6707242.0,0.0
1582913643398,6186656.0,6694405.0,0.0
1582913643454,6189186.0,6710106.0,0.0
1582913643501,6188603.0,6720050.0,0.0
1582913643550,6185290.0,6723984.0,0.0
1582913643598,6183688.0,6720138.0,0.0
1582913643646,6181800.0,6732576.0,0.0
1582913643697,6185506.0,6743498.0,0.0
1582913643744,6181004.0,6757893.0,0.0
1582913643791,6189410.0,6770938.0,0.0
1582913643842,6191773.0,6780450.0,0.0
1582913643891,6193352.0,6789474.0,0.0
1582913643938,6184744.0,6750533.0,0.0
1582913643986,6167814.0,6710210.0,0.0
1582913644036,6155136.0,6714114.0,0.0
1582913644083,6158636.0,6732858.0,0.0
1582913644133,6171080.0,6751304.0,0.0
1582913644182,6171483.0,6752848.0,0.0
1582913644230,6171008.0,6760757.0,0.0
1582913644273,6177337.0,6775925.0,0.0
1582913644324,6193292.0,6795426.0,0.0
1582913644370,6198694.0,6811440.0,0.0
1582913644418,6207052.0,6822330.0,0.0
1582913644470,6210449.0,6834930.0,0.0
1582913644521,6209856.0,6842501.0,0.0
1582913644568,6208989.0,6815906.0,0.0
1582913644619,6187464.0,6763829.0,0.0
1582913644666,6173514.0,6744626.0,0.0
1582913644717,6157973.0,6744344.0,0.0
1582913644763,6157380.0,6745013.0,0.0
1582913644809,6149294.0,6729117.0,0.0
1582913644861,6147584.0,6723850.0,0.0
1582913644911,6142551.0,6720866.0,0.0
1582913644958,6145009.0,6721000.0,0.0
1582913645005,6143453.0,6722944.0,0.0
1582913645057,6142894.0,6729562.0,0.0
1582913645104,6146564.0,6733184.0,0.0
1582913645150,6150540.0,6734565.0,0.0
1582913645201,6153284.0,6710272.0,0.0
1582913645249,6137386.0,6649453.0,0.0
1582913645294,6128718.0,6638592.0,0.0
1582913645341,6131033.0,6657186.0,0.0
1582913645390,6137610.0,6678274.0,0.0
1582913645440,6147037.0,6695312.0,0.0
1582913645488,6160953.0,6723685.0,0.0
1582913645540,6177181.0,6753917.0,0.0
1582913645590,6184840.0,6783434.0,0.0
1582913645638,6228268.0,6840496.0,0.0
1582913645685,6258532.0,6884453.0,0.0
1582913645730,6292025.0,6931589.0,0.0
1582913645783,6302888.0,6957085.0,0.0
1582913645829,6295586.0,6934008.0,0.0
1582913645881,6276411.0,6886130.0,0.0
1582913645928,6264992.0,6887512.0,0.0
1582913645976,6263270.0,6908466.0,0.0
1582913646026,6246933.0,6918245.0,0.0
1582913646076,6231771.0,6881205.0,0.0
1582913646124,6224482.0,6858274.0,0.0
1582913646170,6216706.0,6852621.0,0.0
1582913646221,6197425.0,6846626.0,0.0
1582913646270,6186739.0,6846893.0,0.0
1582913646312,6172563.0,6854373.0,0.0
1582913646359,6170048.0,6862357.0,0.0
1582913646410,6163505.0,6850157.0,0.0
1582913646462,6149898.0,6792709.0,0.0
1582913646513,6131972.0,6762464.0,0.0
1582913646561,6122058.0,6766621.0,0.0
1582913646609,6118355.0,6787130.0,0.0
1582913646659,6118033.0,6799432.0,0.0
1582913646706,6123104.0,6799834.0,0.0
1582913646757,6133301.0,6819424.0,0.0
1582913646805,6139748.0,6841906.0,0.0
1582913646851,6141043.0,6860458.0,0.0
1582913646897,6139025.0,6866157.0,0.0
1582913646950,6138478.0,6870832.0,0.0
1582913646999,6147880.0,6884989.0,0.0
1582913647046,6157653.0,6911584.0,0.0
1582913647098,6176648.0,6892066.0,0.0
1582913647145,6171840.0,6818816.0,0.0
1582913647194,6181527.0,6807906.0,0.0
1582913647235,6267923.0,6940298.0,0.0
1582913647284,6306521.0,7030618.0,0.0
1582913647334,6307483.0,7060613.0,0.0
1582913647381,6310617.0,7070408.0,0.0
1582913647432,6321883.0,7074042.0,0.0
1582913647481,6348953.0,7075632.0,0.0
1582913647534,6375607.0,7096453.0,0.0
1582913647582,6390246.0,7094730.0,0.0
1582913647630,6401132.0,7096794.0,0.0
1582913647679,6416411.0,7117200.0,0.0
1582913647727,6430577.0,7127586.0,0.0
1582913647776,6441450.0,7146392.0,0.0
1582913647824,6460661.0,7163472.0,0.0
1582913647872,6473269.0,7182157.0,0.0
1582913647922,6484537.0,7204698.0,0.0
1582913647971,6497561.0,7225624.0,0.0
1582913648020,6499259.0,7240554.0,0.0
1582913648067,6509444.0,7265010.0,0.0
1582913648115,6513030.0,7281290.0,0.0
1582913648161,6515891.0,7272594.0,0.0
1582913648211,6495790.0,7245762.0,0.0
1582913648259,6479003.0,7232437.0,0.0
1582913648307,6443054.0,7139000.0,0.0
1582913648354,6387302.0,6956402.0,0.0
1582913648401,6346626.0,6749538.0,0.0
1582913648457,6277576.0,6556090.0,0.0
1582913648504,6202553.0,6408368.0,0.0
1582913648553,6120324.0,6284018.0,0.0
1582913648602,6027257.0,6163693.0,0.0
1582913648646,5917092.0,6022586.0,0.0
1582913648699,5826101.0,5896072.0,0.0
1582913648747,5750451.0,5798346.0,0.0
1582913648793,5694816.0,5709957.0,0.0
1582913648844,5637032.0,5635189.0,0.0
1582913648893,5598363.0,5569816.0,0.0
1582913648942,5563340.0,5503226.0,0.0
1582913648990,5530833.0,5440050.0,0.0
1582913649041,5486169.0,5374781.0,0.0
1582913649087,5414126.0,5240728.0,0.0
1582913649133,5325593.0,5114032.0,0.0
1582913649184,5256437.0,5023608.0,0.0
1582913649234,5201634.0,4954957.0,0.0
1582913649282,5156578.0,4902642.0,0.0
1582913649324,5110976.0,4836781.0,0.0
1582913649375,5060019.0,4765472.0,0.0
1582913649422,5011782.0,4703232.0,0.0
1582913649474,4969681.0,4637634.0,0.0
1582913649524,4924531.0,4353499.0,0.0
1582913649572,4895372.0,3621827.0,0.0
1582913649622,4895240.0,4215936.0,0.0
1582913649671,4914118.0,4245178.0,0.0
1582913649718,4950316.0,4276232.0,0.0
1582913649767,4947705.0,4229835.0,0.0
1582913649814,4922986.0,4189419.0,0.0
1582913649864,4905260.0,4175481.0,0.0
1582913649912,4918807.0,4193609.0,0.0
1582913649963,4955328.0,4244764.0,0.0
1582913650010,5003803.0,4330672.0,0.0
1582913650058,5016945.0,4400619.0,0.0
1582913650108,5028390.0,4427599.0,0.0
1582913650157,5008053.0,4388628.0,0.0
1582913650200,4979891.0,4341422.0,0.0
1582913650248,4946304.0,4295834.0,0.0
1582913650299,4919709.0,4266823.0,0.0
1582913650346,4897757.0,4241596.0,0.0
1582913650396,4892878.0,4232821.0,0.0
1582913650443,4890515.0,4225664.0,0.0
1582913650496,4875272.0,4176406.0,0.0
1582913650545,4845875.0,4125675.0,0.0
1582913650591,4804725.0,4081068.0,0.0
1582913650639,4814069.0,4092655.0,0.0
1582913650691,4888413.0,4156257.0,0.0
1582913650735,4950425.0,4213615.0,0.0
1582913650787,4995089.0,4258462.0,0.0
1582913650835,5008622.0,4279159.0,0.0
1582913650885,4961132.0,4244792.0,0.0
1582913650935,4920851.0,4211208.0,0.0
1582913650977,4911840.0,4218363.0,0.0
1582913651030,4919616.0,4260628.0,0.0
1582913651081,4925943.0,4267034.0,0.0
1582913651127,4909250.0,4219635.0,0.0
1582913651181,4848546.0,4137916.0,0.0
1582913651223,4770675.0,4060263.0,0.0
1582913651275,4707526.0,4017093.0,0.0
1582913651316,4663349.0,3993725.0,0.0
1582913651365,4653410.0,3983863.0,0.0
1582913651416,4664488.0,3988506.0,0.0
1582913651468,4650229.0,3985105.0,0.0
1582913651520,4649956.0,3997387.0,0.0
1582913651564,4666197.0,4015648.0,0.0
1582913651615,4688292.0,4034748.0,0.0
1582913651656,4718412.0,4055476.0,0.0
1582913651711,4747428.0,4082996.0,0.0
1582913651759,4784731.0,4102326.0,0.0
1582913651808,4823970.0,4120551.0,0.0
1582913651857,4791963.0,4101981.0,0.0
1582913651900,4763528.0,4089305.0,0.0
1582913651954,4742894.0,4075522.0,0.0
1582913651997,4717416.0,4068577.0,0.0
1582913652051,4686963.0,4061584.0,0.0
1582913652101,4660486.0,4048099.0,0.0
1582913652148,4631957.0,4031733.0,0.0
1582913652198,4611144.0,4024827.0,0.0
1582913652245,4626592.0,4037946.0,0.0
1582913652289,4656413.0,4061545.0,0.0
1582913652336,4663656.0,4077602.0,0.0
1582913652385,4653826.0,4081387.0,0.0
1582913652441,4653553.0,4070542.0,0.0
1582913652487,4644234.0,4035701.0,0.0
1582913652537,4636612.0,4023710.0,0.0
1582913652584,4647628.0,4034661.0,0.0
1582913652634,4661698.0,4059243.0,0.0
1582913652677,4687852.0,4087513.0,0.0
1582913652731,4706860.0,4096654.0,0.0
1582913652781,4709058.0,4096644.0,0.0
1582913652828,4692541.0,4092570.0,0.0
1582913652878,4681536.0,4099880.0,0.0
1582913652925,4670186.0,4112093.0,0.0
1582913652974,4671302.0,4129324.0,0.0
1582913653017,4673510.0,4121272.0,0.0
1582913653071,4698502.0,4105303.0,0.0
1582913653120,4719219.0,4112314.0,0.0
1582913653169,4696021.0,4108405.0,0.0
1582913653217,4702016.0,4121244.0,0.0
1582913653266,4717772.0,4131443.0,0.0
1582913653315,4731069.0,4139294.0,0.0
1582913653356,4740317.0,4142443.0,0.0
1582913653404,4764038.0,4156747.0,0.0
1582913653459,4793649.0,4179035.0,0.0
1582913653501,4817512.0,4213335.0,0.0
1582913653558,4828256.0,4224394.0,0.0
1582913653604,4841079.0,4228805.0,0.0
1582913653648,4813892.0,4200391.0,0.0
1582913653696,4762566.0,4166773.0,0.0
1582913653750,4728160.0,4146210.0,0.0
1582913653801,4698359.0,4130616.0,0.0
1582913653847,4679733.0,4131829.0,0.0
1582913653897,4710350.0,4153695.0,0.0
1582913653938,4739688.0,4182619.0,0.0
1582913653994,4729762.0,4187975.0,0.0
1582913654040,4729252.0,4190632.0,0.0
1582913654090,4745862.0,4198792.0,0.0
1582913654139,4760168.0,4213306.0,0.0
1582913654187,4781587.0,4216196.0,0.0
1582913654231,4776339.0,4183824.0,0.0
1582913654278,4801365.0,4196508.0,0.0
1582913654328,4803906.0,4212189.0,0.0
1582913654377,4821205.0,4225462.0,0.0
1582913654424,4824672.0,4241787.0,0.0
1582913654476,4799537.0,4235239.0,0.0
1582913654522,4766662.0,4225154.0,0.0
1582913654577,4748296.0,4223536.0,0.0
1582913654618,4736601.0,4227051.0,0.0
1582913654673,4735936.0,4232618.0,0.0
1582913654721,4790395.0,4273785.0,0.0
1582913654769,4788710.0,4268757.0,0.0
1582913654819,4776469.0,4242627.0,0.0
1582913654867,4761094.0,4219973.0,0.0
1582913654912,4770854.0,4225326.0,0.0
1582913654960,4783662.0,4235690.0,0.0
1582913655014,4803942.0,4255485.0,0.0
1582913655060,4820386.0,4276039.0,0.0
1582913655111,4884567.0,4325587.0,0.0
1582913655161,4940736.0,4375230.0,0.0
1582913655207,4960836.0,4414971.0,0.0
1582913655251,4958318.0,4444858.0,0.0
1582913655301,4956622.0,4456350.0,0.0
1582913655349,4931191.0,4440208.0,0.0
1582913655399,4889885.0,4392230.0,0.0
1582913655444,4781514.0,4299792.0,0.0
1582913655500,4755752.0,4258846.0,0.0
1582913655541,4779816.0,4274218.0,0.0
1582913655590,4834929.0,4337375.0,0.0
1582913655638,4869465.0,4367717.0,0.0
1582913655687,4886408.0,4387423.0,0.0
1582913655738,4918617.0,4398886.0,0.0
1582913655790,4937209.0,4419931.0,0.0
1582913655840,4967709.0,4450108.0,0.0
1582913655887,4985269.0,4474699.0,0.0
1582913655938,5012625.0,4498490.0,0.0
1582913655981,5017207.0,4468169.0,0.0
1582913656030,5006867.0,4438810.0,0.0
1582913656079,4992761.0,4410800.0,0.0
1582913656126,4965277.0,4396275.0,0.0
1582913656176,4942779.0,4389957.0,0.0
1582913656223,4929422.0,4406842.0,0.0
1582913656274,4922786.0,4404896.0,0.0
1582913656321,4922666.0,4401958.0,0.0
1582913656367,4979108.0,4432540.0,0.0
1582913656419,4983121.0,4450031.0,0.0
1582913656464,4985625.0,4468534.0,0.0
1582913656516,4986743.0,4477830.0,0.0
1582913656563,4999031.0,4459355.0,0.0
1582913656614,5002995.0,4436248.0,0.0
1582913656661,5004729.0,4438830.0,0.0
1582913656709,5020804.0,4454568.0,0.0
1582913656758,5052290.0,4498318.0,0.0
1582913656806,5041190.0,4484254.0,0.0
1582913656856,5007686.0,4459375.0,0.0
1582913656903,4997201.0,4433349.0,0.0
1582913656957,4982278.0,4419508.0,0.0
1582913657003,4970167.0,4420933.0,0.0
1582913657053,4960349.0,4434937.0,0.0
1582913657102,4956183.0,4440110.0,0.0
1582913657150,4948121.0,4402661.0,0.0
1582913657199,4949986.0,4376183.0,0.0
1582913657241,4971379.0,4391239.0,0.0
1582913657292,4969646.0,4413460.0,0.0
1582913657351,4971485.0,4420742.0,0.0
1582913657387,4987786.0,4431587.0,0.0
1582913657435,5004610.0,4446362.0,0.0
1582913657490,5020793.0,4469768.0,0.0
1582913657539,5047541.0,4490390.0,0.0
1582913657581,5070062.0,4513989.0,0.0
1582913657636,5106926.0,4559654.0,0.0
1582913657682,5173721.0,4606667.0,0.0
1582913657732,5148825.0,4575508.0,0.0
1582913657776,5121305.0,4535062.0,0.0
1582913657830,5085034.0,4506985.0,0.0
1582913657879,5064804.0,4499395.0,0.0
1582913657927,5052087.0,4497363.0,0.0
1582913657976,5045083.0,4501534.0,0.0
1582913658023,5096716.0,4536218.0,0.0
1582913658073,5114632.0,4585457.0,0.0
1582913658121,5129354.0,4617744.0,0.0
1582913658170,5153860.0,4631363.0,0.0
1582913658219,5178506.0,4633916.0,0.0
1582913658262,5184893.0,4632760.0,0.0
1582913658317,5204128.0,4653594.0,0.0
1582913658361,5223515.0,4667648.0,0.0
1582913658407,5251782.0,4709556.0,0.0
1582913658457,5279172.0,4757668.0,0.0
1582913658510,5274875.0,4753536.0,0.0
1582913658559,5290071.0,4752583.0,0.0
1582913658602,5287174.0,4736390.0,0.0
1582913658657,5266777.0,4726653.0,0.0
1582913658707,5249753.0,4721664.0,0.0
1582913658753,5243080.0,4721221.0,0.0
1582913658802,5243293.0,4727877.0,0.0
1582913658851,5277297.0,4744645.0,0.0
1582913658900,5298536.0,4755915.0,0.0
1582913658941,5301659.0,4767512.0,0.0
1582913658996,5304460.0,4749568.0,0.0
1582913659043,5314850.0,4740455.0,0.0
1582913659088,5315076.0,4737605.0,0.0
1582913659141,5321034.0,4746341.0,0.0
1582913659184,5333489.0,4768408.0,0.0
1582913659239,5335496.0,4799173.0,0.0
1582913659284,5359466.0,4825630.0,0.0
1582913659336,5349102.0,4820748.0,0.0
1582913659378,5355904.0,4799953.0,0.0
1582913659426,5332029.0,4760673.0,0.0
1582913659475,5311882.0,4743558.0,0.0
1582913659529,5299724.0,4731083.0,0.0
1582913659579,5282865.0,4722058.0,0.0
1582913659624,5274316.0,4716732.0,0.0
1582913659676,5310574.0,4736111.0,0.0
1582913659723,5323338.0,4749259.0,0.0
1582913659773,5325203.0,4760624.0,0.0
1582913659821,5317700.0,4765267.0,0.0
1582913659868,5330641.0,4772039.0,0.0
1582913659915,5339116.0,4778252.0,0.0
1582913659965,5361235.0,4799971.0,0.0
1582913660016,5381525.0,4790725.0,0.0
1582913660063,5403217.0,4816038.0,0.0
1582913660113,5409128.0,4832170.0,0.0
1582913660160,5394039.0,4836920.0,0.0
1582913660204,5411859.0,4830524.0,0.0
1582913660258,5396260.0,4821644.0,0.0
1582913660307,5372573.0,4810317.0,0.0
1582913660355,5355110.0,4807830.0,0.0
1582913660397,5350491.0,4809362.0,0.0
1582913660446,5341990.0,4809575.0,0.0
1582913660498,5373013.0,4826575.0,0.0
1582913660543,5386156.0,4820449.0,0.0
1582913660597,5394169.0,4831555.0,0.0
1582913660645,5380729.0,4810384.0,0.0
1582913660695,5391748.0,4808746.0,0.0
1582913660743,5397186.0,4826940.0,0.0
1582913660790,5426877.0,4867395.0,0.0
1582913660841,5455406.0,4918127.0,0.0
1582913660885,5502826.0,4981380.0,0.0
1582913660936,5563244.0,5046684.0,0.0
1582913660984,5570380.0,5065506.0,0.0
1582913661035,5578726.0,5045115.0,0.0
1582913661082,5562402.0,5026929.0,0.0
1582913661128,5541696.0,5010352.0,0.0
1582913661182,5498517.0,4962714.0,0.0
1582913661226,5474440.0,4940974.0,0.0
1582913661278,5467577.0,4933134.0,0.0
1582913661325,5475662.0,4898247.0,0.0
1582913661368,5500452.0,4935513.0,0.0
1582913661417,5499752.0,4944036.0,0.0
1582913661467,5497128.0,4941590.0,0.0
1582913661520,5513405.0,4947860.0,0.0
1582913661566,5541755.0,4960932.0,0.0
1582913661618,5561026.0,4985656.0,0.0
1582913661661,5582562.0,4999084.0,0.0
1582913661715,5642007.0,5054295.0,0.0
1582913661762,5707780.0,5140124.0,0.0
1582913661806,5765516.0,5197657.0,0.0
1582913661860,5744953.0,5165793.0,0.0
1582913661908,5705501.0,5122990.0,0.0
1582913661958,5673802.0,5097725.0,0.0
1582913662007,5647837.0,5077999.0,0.0
1582913662055,5628829.0,5065967.0,0.0
1582913662102,5615936.0,5054439.0,0.0
1582913662145,5626632.0,5059100.0,0.0
1582913662193,5657619.0,5071073.0,0.0
1582913662248,5680996.0,5097541.0,0.0
1582913662298,5654545.0,5064706.0,0.0
1582913662341,5623236.0,5043303.0,0.0
1582913662390,5624923.0,5042505.0,0.0
1582913662436,5641354.0,5054140.0,0.0
1582913662487,5677469.0,5084586.0,0.0
1582913662540,5686897.0,5110536.0,0.0
1582913662587,5687895.0,5138409.0,0.0
1582913662638,5686114.0,5144324.0,0.0
1582913662684,5686980.0,5146752.0,0.0
1582913662733,5676650.0,5133527.0,0.0
1582913662782,5662391.0,5112297.0,0.0
1582913662828,5645900.0,5098745.0,0.0
1582913662880,5628270.0,5086291.0,0.0
1582913662927,5617395.0,5078836.0,0.0
1582913662977,5625420.0,5083046.0,0.0
1582913663024,5645747.0,5078249.0,0.0
1582913663073,5645011.0,5093333.0,0.0
1582913663122,5622892.0,5087534.0,0.0
1582913663171,5610937.0,5076284.0,0.0
1582913663219,5626775.0,5064957.0,0.0
1582913663266,5636439.0,5076900.0,0.0
1582913663318,5655517.0,5074358.0,0.0
1582913663366,5619746.0,5037149.0,0.0
1582913663409,5593710.0,5012096.0,0.0
1582913663456,5597890.0,5023386.0,0.0
1582913663512,5590777.0,5015507.0,0.0
1582913663560,5579784.0,5000037.0,0.0
1582913663607,5564812.0,4997032.0,0.0
1582913663658,5552940.0,4995423.0,0.0
1582913663705,5540759.0,4991445.0,0.0
1582913663755,5533493.0,4995039.0,0.0
1582913663803,5536603.0,4972885.0,0.0
1582913663850,5558734.0,4931795.0,0.0
1582913663900,5544699.0,4933152.0,0.0
1582913663949,5531142.0,4924734.0,0.0
1582913663998,5486692.0,4920911.0,0.0
1582913664045,5497792.0,4926275.0,0.0
1582913664094,5531272.0,4961865.0,0.0
1582913664142,5556168.0,4996906.0,0.0
1582913664192,5583797.0,5025320.0,0.0
1582913664240,5605809.0,5056721.0,0.0
1582913664288,5623272.0,5074694.0,0.0
1582913664339,5634361.0,5079722.0,0.0
1582913664380,5618843.0,5051481.0,0.0
1582913664429,5587927.0,5028809.0,0.0
1582913664479,5564776.0,5012868.0,0.0
1582913664528,5542848.0,5006029.0,0.0
1582913664577,5521098.0,5002282.0,0.0
1582913664624,5523946.0,5003544.0,0.0
1582913664678,5550080.0,5018087.0,0.0
1582913664725,5575212.0,5053389.0,0.0
1582913664769,5564989.0,5046993.0,0.0
1582913664822,5550993.0,5037476.0,0.0
1582913664870,5564160.0,5038545.0,0.0
1582913664916,5581303.0,5037919.0,0.0
1582913664968,5587180.0,5034587.0,0.0
1582913665018,5602709.0,5054921.0,0.0
1582913665065,5624068.0,5081293.0,0.0
1582913665114,5610747.0,5074781.0,0.0
1582913665162,5623724.0,5095614.0,0.0
1582913665211,5617324.0,5095614.0,0.0
1582913665260,5598007.0,5086754.0,0.0
1582913665307,5585649.0,5087351.0,0.0
1582913665354,5573171.0,5091858.0,0.0
1582913665398,5575249.0,5090887.0,0.0
1582913665449,5584556.0,5081138.0,0.0
1582913665499,5615805.0,5088392.0,0.0
1582913665547,5607304.0,5107781.0,0.0
1582913665596,5592036.0,5108427.0,0.0
1582913665646,5592392.0,5107212.0,0.0
1582913665699,5603825.0,5117403.0,0.0
1582913665744,5632819.0,5150470.0,0.0
1582913665791,5654141.0,5178124.0,0.0
1582913665842,5671022.0,5221302.0,0.0
1582913665890,5719545.0,5275761.0,0.0
1582913665940,5730980.0,5297058.0,0.0
1582913665988,5728403.0,5274548.0,0.0
1582913666034,5727596.0,5253849.0,0.0
1582913666085,5699398.0,5224838.0,0.0
1582913666132,5676770.0,5213145.0,0.0
1582913666182,5658760.0,5209774.0,0.0
1582913666231,5650459.0,5205410.0,0.0
1582913666280,5661928.0,5218249.0,0.0
1582913666328,5703377.0,5262346.0,0.0
1582913666373,5704526.0,5275983.0,0.0
1582913666419,5715735.0,5276533.0,0.0
1582913666472,5710760.0,5254765.0,0.0
1582913666522,5704576.0,5238274.0,0.0
1582913666571,5704989.0,5242715.0,0.0
1582913666620,5711353.0,5258298.0,0.0
1582913666666,5709418.0,5274471.0,0.0
1582913666718,5717469.0,5313347.0,0.0
1582913666764,5707863.0,5323093.0,0.0
1582913666813,5712019.0,5307528.0,0.0
1582913666862,5694092.0,5277131.0,0.0
1582913666911,5673220.0,5261381.0,0.0
1582913666960,5665420.0,5259859.0,0.0
1582913667007,5655317.0,5248967.0,0.0
1582913667054,5646103.0,5229259.0,0.0
1582913667104,5658035.0,5225010.0,0.0
1582913667153,5668448.0,5254505.0,0.0
1582913667196,5665740.0,5257029.0,0.0
1582913667250,5686030.0,5266131.0,0.0
1582913667299,5684676.0,5253725.0,0.0
1582913667347,5680000.0,5258934.0,0.0
1582913667393,5685638.0,5273807.0,0.0
1582913667438,5706664.0,5297540.0,0.0
1582913667500,5708469.0,5314858.0,0.0
1582913667535,5715059.0,5279258.0,0.0
1582913667589,5696217.0,5251230.0,0.0
1582913667634,5677766.0,5229943.0,0.0
1582913667687,5663959.0,5216853.0,0.0
1582913667734,5648051.0,5208704.0,0.0
1582913667785,5635537.0,5213500.0,0.0
1582913667834,5630112.0,5212875.0,0.0
1582913667882,5630585.0,5218153.0,0.0
1582913667925,5652004.0,5222304.0,0.0
1582913667973,5675607.0,5247723.0,0.0
1582913668027,5676354.0,5253050.0,0.0
1582913668074,5653120.0,5218279.0,0.0
1582913668124,5641497.0,5196848.0,0.0
1582913668173,5633661.0,5188390.0,0.0
1582913668221,5646946.0,5206278.0,0.0
1582913668270,5674406.0,5236752.0,0.0
1582913668316,5692418.0,5271659.0,0.0
1582913668366,5702011.0,5292078.0,0.0
1582913668415,5701440.0,5283372.0,0.0
1582913668457,5704526.0,5274904.0,0.0
1582913668506,5692714.0,5277486.0,0.0
1582913668555,5673267.0,5268953.0,0.0
1582913668610,5662024.0,5259485.0,0.0
1582913668655,5646257.0,5235539.0,0.0
1582913668706,5634730.0,5231051.0,0.0
1582913668756,5688168.0,5289825.0,0.0
1582913668797,5694269.0,5320492.0,0.0
1582913668853,5707840.0,5353597.0,0.0
1582913668898,5723618.0,5352403.0,0.0
1582913668950,5735136.0,5348648.0,0.0
1582913668999,5735219.0,5344158.0,0.0
1582913669048,5756029.0,5358693.0,0.0
1582913669091,5770336.0,5353281.0,0.0
1582913669138,5791315.0,5373913.0,0.0
1582913669197,5791338.0,5382320.0,0.0
1582913669236,5789320.0,5368720.0,0.0
1582913669290,5782707.0,5366158.0,0.0
1582913669343,5754606.0,5357354.0,0.0
1582913669381,5729947.0,5350891.0,0.0
1582913669433,5712445.0,5342569.0,0.0
1582913669478,5704420.0,5335856.0,0.0
1582913669534,5703387.0,5337927.0,0.0
1582913669577,5748526.0,5358904.0,0.0
1582913669631,5737201.0,5339641.0,0.0
1582913669680,5717267.0,5315041.0,0.0
1582913669728,5696347.0,5298860.0,0.0
1582913669780,5698496.0,5295449.0,0.0
1582913669826,5706547.0,5301701.0,0.0
1582913669874,5715938.0,5315224.0,0.0
1582913669919,5723940.0,5319405.0,0.0
1582913669972,5764281.0,5365455.0,0.0
1582913670016,5821472.0,5390980.0,0.0
1582913670062,5804458.0,5383929.0,0.0
1582913670118,5781211.0,5371946.0,0.0
1582913670162,5754523.0,5353973.0,0.0
1582913670212,5730884.0,5321370.0,0.0
1582913670259,5709847.0,5297040.0,0.0
1582913670308,5693154.0,5280597.0,0.0
1582913670357,5690873.0,5273614.0,0.0
1582913670404,5686754.0,5251653.0,0.0
1582913670452,5686777.0,5261517.0,0.0
1582913670499,5677006.0,5248898.0,0.0
1582913670555,5658641.0,5241366.0,0.0
1582913670604,5654758.0,5237331.0,0.0
1582913670647,5659270.0,5220957.0,0.0
1582913670701,5645794.0,5177014.0,0.0
1582913670749,5631168.0,5156827.0,0.0
1582913670797,5651944.0,5174530.0,0.0
1582913670844,5644535.0,5172469.0,0.0
1582913670895,5655174.0,5182437.0,0.0
1582913670943,5651767.0,5177333.0,0.0
1582913670992,5629945.0,5171370.0,0.0
1582913671039,5614664.0,5173461.0,0.0
1582913671090,5607018.0,5172575.0,0.0
1582913671139,5600870.0,5166352.0,0.0
1582913671186,5604347.0,5124829.0,0.0
1582913671236,5624627.0,5108618.0,0.0
1582913671282,5623475.0,5112240.0,0.0
1582913671333,5601390.0,5096443.0,0.0
1582913671378,5583464.0,5102713.0,0.0
1582913671423,5586515.0,5099940.0,0.0
1582913671472,5608646.0,5115997.0,0.0
1582913671523,5628580.0,5138035.0,0.0
1582913671576,5653868.0,5177228.0,0.0
1582913671621,5687846.0,5241088.0,0.0
1582913671671,5683170.0,5254196.0,0.0
1582913671721,5675963.0,5208098.0,0.0
1582913671769,5657062.0,5155632.0,0.0
1582913671816,5629173.0,5131861.0,0.0
1582913671865,5605975.0,5121178.0,0.0
1582913671915,5596725.0,5123789.0,0.0
1582913671959,5589412.0,5121824.0,0.0
1582913672014,5568635.0,5090828.0,0.0
1582913672058,5530476.0,5057501.0,0.0
1582913672108,5536603.0,5045306.0,0.0
1582913672158,5526926.0,5030781.0,0.0
1582913672200,5531379.0,5027431.0,0.0
1582913672255,5539654.0,5014032.0,0.0
1582913672301,5539084.0,5003148.0,0.0
1582913672352,5542267.0,5003292.0,0.0
1582913672398,5554163.0,5017297.0,0.0
1582913672442,5613109.0,5079434.0,0.0
1582913672492,5685568.0,5129827.0,0.0
1582913672544,5692881.0,5147367.0,0.0
1582913672590,5680746.0,5160216.0,0.0
1582913672639,5647385.0,5141048.0,0.0
1582913672691,5619995.0,5127960.0,0.0
1582913672740,5606412.0,5110353.0,0.0
1582913672789,5578442.0,5057444.0,0.0
1582913672838,5544166.0,5015247.0,0.0
1582913672887,5582408.0,5017788.0,0.0
1582913672931,5602092.0,5044315.0,0.0
1582913672982,5573254.0,5042543.0,0.0
1582913673033,5548059.0,5045288.0,0.0
1582913673080,5559718.0,5040810.0,0.0
1582913673129,5571246.0,5058310.0,0.0
1582913673179,5586884.0,5083064.0,0.0
1582913673227,5603089.0,5111952.0,0.0
1582913673277,5623462.0,5102762.0,0.0
1582913673320,5591965.0,5031533.0,0.0
1582913673373,5570867.0,4998410.0,0.0
1582913673418,5552701.0,4989094.0,0.0
1582913673464,5525467.0,4981140.0,0.0
1582913673514,5507456.0,4991483.0,0.0
1582913673563,5496226.0,4990559.0,0.0
1582913673619,5482892.0,4978220.0,0.0
1582913673664,5481563.0,4984250.0,0.0
1582913673714,5519091.0,5000094.0,0.0
1582913673760,5525954.0,5016354.0,0.0
1582913673811,5501960.0,4970756.0,0.0
1582913673860,5454410.0,4925677.0,0.0
1582913673908,5452142.0,4912983.0,0.0
1582913673957,5467814.0,4937622.0,0.0
1582913673999,5500868.0,4976266.0,0.0
1582913674054,5534216.0,5028943.0,0.0
1582913674101,5606675.0,5126456.0,0.0
1582913674150,5703054.0,5178546.0,0.0
1582913674203,5709847.0,5190702.0,0.0
1582913674247,5682338.0,5199112.0,0.0
1582913674297,5662227.0,5193110.0,0.0
1582913674339,5631357.0,5161691.0,0.0
1582913674389,5607861.0,5107057.0,0.0
1582913674442,5570333.0,5057030.0,0.0
1582913674484,5557250.0,5046820.0,0.0
1582913674539,5590658.0,5076553.0,0.0
1582913674587,5574013.0,5091907.0,0.0
1582913674637,5562105.0,5097465.0,0.0
1582913674681,5554969.0,5073403.0,0.0
1582913674733,5568422.0,5087313.0,0.0
1582913674782,5595099.0,5132227.0,0.0
1582913674831,5594779.0,5129039.0,0.0
1582913674880,5667426.0,5141666.0,0.0
1582913674923,5672614.0,5153397.0,0.0
1582913674978,5678171.0,5140394.0,0.0
1582913675022,5651921.0,5111893.0,0.0
1582913675074,5639133.0,5114851.0,0.0
1582913675122,5628723.0,5120725.0,0.0
1582913675170,5608040.0,5107415.0,0.0
1582913675220,5592759.0,5101328.0,0.0
1582913675266,5578668.0,5085511.0,0.0
1582913675317,5574073.0,5079086.0,0.0
1582913675361,5586741.0,5067172.0,0.0
1582913675412,5593781.0,5067798.0,0.0
1582913675456,5590244.0,5045432.0,0.0
1582913675504,5568622.0,5025987.0,0.0
1582913675554,5574240.0,5033750.0,0.0
1582913675603,5591394.0,5058783.0,0.0
1582913675653,5616019.0,5091330.0,0.0
1582913675700,5639776.0,5132698.0,0.0
1582913675750,5679001.0,5202318.0,0.0
1582913675801,5727441.0,5272823.0,0.0
1582913675851,5704420.0,5268616.0,0.0
1582913675900,5693058.0,5253465.0,0.0
1582913675948,5679131.0,5237408.0,0.0
1582913675998,5662261.0,5210372.0,0.0
1582913676043,5644561.0,5199313.0,0.0
1582913676094,5628556.0,5185328.0,0.0
1582913676142,5633292.0,5191117.0,0.0
1582913676184,5688036.0,5259138.0,0.0
1582913676240,5683526.0,5280625.0,0.0
1582913676286,5693141.0,5324625.0,0.0
1582913676336,5717623.0,5332043.0,0.0
1582913676382,5730944.0,5320397.0,0.0
1582913676430,5729292.0,5297771.0,0.0
1582913676476,5739741.0,5281850.0,0.0
1582913676525,5743054.0,5297627.0,0.0
1582913676579,5830470.0,5361170.0,0.0
1582913676625,5870990.0,5437637.0,0.0
1582913676677,5800695.0,5420472.0,0.0
1582913676723,5803876.0,5396354.0,0.0
1582913676774,5775300.0,5378440.0,0.0
1582913676822,5739445.0,5348128.0,0.0
1582913676871,5715509.0,5339997.0,0.0
1582913676916,5703530.0,5305699.0,0.0
1582913676965,5699185.0,5266322.0,0.0
1582913677013,5738056.0,5282948.0,0.0
1582913677062,5750688.0,5305910.0,0.0
1582913677110,5751246.0,5326136.0,0.0
1582913677158,5769802.0,5361178.0,0.0
1582913677207,5766715.0,5358904.0,0.0
1582913677256,5771298.0,5359108.0,0.0
1582913677305,5783788.0,5380230.0,0.0
1582913677354,5782839.0,5401969.0,0.0
1582913677406,5800089.0,5429296.0,0.0
1582913677449,5776119.0,5364232.0,0.0
1582913677496,5754843.0,5303251.0,0.0
1582913677547,5742365.0,5265696.0,0.0
1582913677597,5714679.0,5233574.0,0.0
1582913677645,5693760.0,5213222.0,0.0
1582913677694,5682208.0,5213935.0,0.0
1582913677740,5663020.0,5203561.0,0.0
1582913677791,5652230.0,5193159.0,0.0
1582913677839,5678801.0,5221629.0,0.0
1582913677892,5688928.0,5233613.0,0.0
1582913677936,5674705.0,5205727.0,0.0
1582913677982,5651897.0,5176043.0,0.0
1582913678037,5661109.0,5167672.0,0.0
1582913678085,5685794.0,5181811.0,0.0
1582913678135,5701143.0,5210140.0,0.0
1582913678182,5675950.0,5210814.0,0.0
1582913678230,5654045.0,5196328.0,0.0
1582913678280,5666619.0,5189932.0,0.0
1582913678325,5655317.0,5182014.0,0.0
1582913678379,5661181.0,5172065.0,0.0
1582913678421,5643549.0,5160236.0,0.0
1582913678468,5628507.0,5157867.0,0.0
1582913678516,5624008.0,5144450.0,0.0
1582913678564,5602792.0,5115814.0,0.0
1582913678621,5587513.0,5085578.0,0.0
1582913678665,5594920.0,5105613.0,0.0
1582913678718,5600904.0,5128220.0,0.0
1582913678766,5600714.0,5120148.0,0.0
1582913678814,5603125.0,5109032.0,0.0
1582913678863,5595076.0,5100893.0,0.0
1582913678907,5592974.0,5104755.0,0.0
1582913678961,5607921.0,5120341.0,0.0
1582913679006,5623699.0,5094662.0,0.0
1582913679057,5609821.0,5059023.0,0.0
1582913679101,5590314.0,5041320.0,0.0
1582913679155,5590611.0,5038478.0,0.0
1582913679198,5594993.0,5037834.0,0.0
1582913679247,5575142.0,5038102.0,0.0
1582913679300,5557499.0,5039104.0,0.0
1582913679346,5550043.0,5048697.0,0.0
1582913679399,5543822.0,5045625.0,0.0
1582913679440,5549450.0,5050855.0,0.0
1582913679490,5579438.0,5065179.0,0.0
1582913679539,5560989.0,5058281.0,0.0
1582913679590,5537672.0,5015602.0,0.0
1582913679640,5520232.0,4974291.0,0.0
1582913679686,5507918.0,4962366.0,0.0
1582913679737,5518498.0,4974917.0,0.0
1582913679785,5538598.0,5002156.0,0.0
1582913679836,5579249.0,5063184.0,0.0
1582913679882,5729139.0,5231609.0,0.0
1582913679928,5847995.0,5345661.0,0.0
1582913679980,5876072.0,5412065.0,0.0
1582913680029,5839517.0,5402152.0,0.0
1582913680077,5819869.0,5354300.0,0.0
1582913680126,5788620.0,5290402.0,0.0
1582913680175,5759140.0,5239651.0,0.0
1582913680224,5738316.0,5221457.0,0.0
1582913680266,5735882.0,5223133.0,0.0
1582913680321,5777079.0,5278594.0,0.0
1582913680370,5771488.0,5308568.0,0.0
1582913680412,5782624.0,5328044.0,0.0
1582913680459,5795780.0,5315041.0,0.0
1582913680509,5788145.0,5298647.0,0.0
1582913680562,5787505.0,5290384.0,0.0
1582913680606,5789213.0,5276956.0,0.0
1582913680656,5789890.0,5277131.0,0.0
1582913680709,5804055.0,5323960.0,0.0
1582913680751,5827276.0,5379413.0,0.0
1582913680804,5840539.0,5387926.0,0.0
1582913680855,5839197.0,5394005.0,0.0
1582913680904,5821578.0,5383332.0,0.0
1582913680946,5804731.0,5362748.0,0.0
1582913681001,5786400.0,5348455.0,0.0
1582913681049,5772686.0,5334093.0,0.0
1582913681097,5776202.0,5290036.0,0.0
1582913681145,5791172.0,5291463.0,0.0
1582913681189,5767368.0,5305573.0,0.0
1582913681237,5750890.0,5307221.0,0.0
1582913681286,5752908.0,5302462.0,0.0
1582913681337,5757657.0,5301180.0,0.0
1582913681389,5769885.0,5318007.0,0.0
1582913681431,5791635.0,5358279.0,0.0
1582913681480,5807688.0,5393889.0,0.0
1582913681535,5814395.0,5392367.0,0.0
1582913681583,5824023.0,5348888.0,0.0
1582913681629,5812900.0,5307345.0,0.0
1582913681680,5787825.0,5301875.0,0.0
1582913681728,5757301.0,5291877.0,0.0
1582913681777,5733034.0,5287080.0,0.0
1582913681825,5721243.0,5291656.0,0.0
1582913681876,5709194.0,5292117.0,0.0
1582913681923,5742069.0,5323093.0,0.0
1582913681969,5768640.0,5354774.0,0.0
1582913682023,5771251.0,5393531.0,0.0
1582913682069,5796206.0,5408298.0,0.0
1582913682119,5794581.0,5397424.0,0.0
1582913682165,5799306.0,5398743.0,0.0
1582913682210,5795304.0,5411900.0,0.0
1582913682263,5793143.0,5440314.0,0.0
1582913682309,5826707.0,5508886.0,0.0
1582913682355,5870587.0,5604502.0,0.0
1582913682409,5890402.0,5633889.0,0.0
1582913682457,5884561.0,5607911.0,0.0
1582913682499,5863571.0,5572918.0,0.0
1582913682552,5825674.0,5528391.0,0.0
1582913682604,5801002.0,5508616.0,0.0
1582913682650,5782423.0,5464078.0,0.0
1582913682701,5753608.0,5425164.0,0.0
1582913682750,5775310.0,5439611.0,0.0
1582913682792,5793073.0,5498743.0,0.0
1582913682846,5794035.0,5504444.0,0.0
1582913682893,5797501.0,5497644.0,0.0
1582913682938,5792123.0,5480673.0,0.0
1582913682991,5789440.0,5488830.0,0.0
1582913683041,5800315.0,5518266.0,0.0
1582913683088,5815238.0,5527407.0,0.0
1582913683138,5820546.0,5505590.0,0.0
1582913683185,5815987.0,5502537.0,0.0
1582913683230,5794592.0,5477735.0,0.0
1582913683282,5769422.0,5459059.0,0.0
1582913683331,5744194.0,5437397.0,0.0
1582913683380,5715699.0,5421283.0,0.0
1582913683422,5689331.0,5411612.0,0.0
1582913683472,5677209.0,5411236.0,0.0
1582913683519,5664755.0,5412768.0,0.0
1582913683571,5679381.0,5427774.0,0.0
1582913683622,5690946.0,5428670.0,0.0
1582913683670,5654058.0,5382534.0,0.0
1582913683719,5607470.0,5336549.0,0.0
1582913683768,5576851.0,5307365.0,0.0
1582913683818,5574869.0,5308828.0,0.0
1582913683864,5587726.0,5330261.0,0.0
1582913683911,5597593.0,5360341.0,0.0
1582913683962,5593900.0,5393166.0,0.0
1582913684011,5613834.0,5442935.0,0.0
1582913684060,5621420.0,5445063.0,0.0
1582913684109,5620482.0,5443878.0,0.0
1582913684155,5623808.0,5421291.0,0.0
1582913684205,5598056.0,5395805.0,0.0
1582913684252,5576162.0,5375077.0,0.0
1582913684303,5555848.0,5369943.0,0.0
1582913684351,5535854.0,5356862.0,0.0
1582913684401,5543880.0,5371696.0,0.0
1582913684442,5559731.0,5389362.0,0.0
1582913684492,5554912.0,5388178.0,0.0
1582913684539,5539714.0,5369549.0,0.0
1582913684593,5508241.0,5350294.0,0.0
1582913684638,5504121.0,5319269.0,0.0
1582913684691,5490468.0,5292781.0,0.0
1582913684741,5493589.0,5293466.0,0.0
1582913684788,5496083.0,5298456.0,0.0
1582913684833,5520196.0,5322351.0,0.0
1582913684885,5498694.0,5295884.0,0.0
1582913684936,5485693.0,5289593.0,0.0
1582913684982,5472718.0,5278874.0,0.0
1582913685031,5451940.0,5268518.0,0.0
1582913685081,5440164.0,5266659.0,0.0
1582913685129,5438359.0,5272535.0,0.0
1582913685172,5425608.0,5251701.0,0.0
1582913685225,5407633.0,5234238.0,0.0
1582913685273,5440804.0,5266208.0,0.0
1582913685322,5423684.0,5259454.0,0.0
1582913685371,5412821.0,5255507.0,0.0
1582913685416,5397708.0,5247010.0,0.0
1582913685462,5407953.0,5248089.0,0.0
1582913685513,5426201.0,5257510.0,0.0
1582913685558,5440081.0,5280280.0,0.0
1582913685614,5452379.0,5281570.0,0.0
1582913685662,5492699.0,5293706.0,0.0
1582913685711,5528375.0,5301760.0,0.0
1582913685759,5532970.0,5320600.0,0.0
1582913685807,5523306.0,5336173.0,0.0
1582913685853,5499264.0,5325348.0,0.0
1582913685905,5478417.0,5318893.0,0.0
1582913685954,5471270.0,5314454.0,0.0
1582913686002,5464337.0,5315677.0,0.0
1582913686051,5469715.0,5319722.0,0.0
1582913686094,5522867.0,5367545.0,0.0
1582913686149,5514675.0,5349727.0,0.0
1582913686194,5501461.0,5333014.0,0.0
1582913686246,5495547.0,5309021.0,0.0
1582913686295,5500332.0,5298186.0,0.0
1582913686336,5496772.0,5292145.0,0.0
1582913686387,5520362.0,5310090.0,0.0
1582913686448,5541685.0,5328969.0,0.0
1582913686482,5572375.0,5349601.0,0.0
1582913686534,5588842.0,5354947.0,0.0
1582913686579,5588889.0,5359319.0,0.0
1582913686629,5570227.0,5342945.0,0.0
1582913686676,5545128.0,5318981.0,0.0
1582913686725,5520149.0,5296674.0,0.0
1582913686774,5500678.0,5287013.0,0.0
1582913686823,5483212.0,5283334.0,0.0
1582913686874,5485504.0,5291761.0,0.0
1582913686925,5520682.0,5340903.0,0.0
1582913686975,5531142.0,5357143.0,0.0
1582913687019,5526513.0,5349822.0,0.0
1582913687072,5519756.0,5329962.0,0.0
1582913687115,5529657.0,5323528.0,0.0
1582913687168,5515814.0,5290278.0,0.0
1582913687221,5497294.0,5263760.0,0.0
1582913687261,5486739.0,5252742.0,0.0
1582913687316,5513629.0,5274038.0,0.0
1582913687360,5516492.0,5274038.0,0.0
1582913687411,5515850.0,5268500.0,0.0
1582913687463,5505307.0,5260389.0,0.0
1582913687502,5488733.0,5249544.0,0.0
1582913687557,5475816.0,5244930.0,0.0
1582913687598,5470094.0,5251586.0,0.0
1582913687648,5467648.0,5243668.0,0.0
1582913687697,5461403.0,5211036.0,0.0
1582913687747,5466818.0,5207635.0,0.0
1582913687797,5476326.0,5229683.0,0.0
1582913687841,5482796.0,5237753.0,0.0
1582913687896,5474521.0,5232948.0,0.0
1582913687940,5480625.0,5227168.0,0.0
1582913687994,5486835.0,5234123.0,0.0
1582913688036,5499692.0,5245287.0,0.0
1582913688091,5512371.0,5257760.0,0.0
1582913688142,5540450.0,5258780.0,0.0
1582913688188,5526180.0,5211940.0,0.0
1582913688239,5521275.0,5206471.0,0.0
1582913688283,5500132.0,5198648.0,0.0
1582913688334,5475662.0,5178827.0,0.0
1582913688376,5452285.0,5165234.0,0.0
1582913688430,5456987.0,5175560.0,0.0
1582913688478,5459515.0,5188120.0,0.0
1582913688521,5464704.0,5191241.0,0.0
1582913688578,5492663.0,5232562.0,0.0
1582913688623,5500249.0,5246356.0,0.0
1582913688674,5500475.0,5205449.0,0.0
1582913688717,5478726.0,5158465.0,0.0
1582913688770,5471104.0,5140760.0,0.0
1582913688820,5471234.0,5138525.0,0.0
1582913688867,5480305.0,5153387.0,0.0
1582913688917,5480198.0,5172343.0,0.0
1582913688964,5478333.0,5173443.0,0.0
1582913689014,5467707.0,5176072.0,0.0
1582913689056,5470165.0,5166864.0,0.0
1582913689110,5455086.0,5141599.0,0.0
1582913689158,5438715.0,5125946.0,0.0
1582913689207,5426404.0,5117431.0,0.0
1582913689257,5420953.0,5118569.0,0.0
1582913689305,5418152.0,5116074.0,0.0
1582913689354,5419517.0,5113175.0,0.0
1582913689396,5455799.0,5143621.0,0.0
1582913689444,5445329.0,5137920.0,0.0
1582913689496,5439142.0,5130445.0,0.0
1582913689541,5426474.0,5113935.0,0.0
1582913689590,5420490.0,5104572.0,0.0
1582913689640,5409640.0,5076746.0,0.0
1582913689693,5399927.0,5043323.0,0.0
1582913689737,5387545.0,5015718.0,0.0
1582913689790,5392305.0,5019735.0,0.0
1582913689848,5388531.0,5020149.0,0.0
1582913689886,5378118.0,5003928.0,0.0
1582913689937,5382261.0,5003505.0,0.0
1582913689984,5386310.0,5003253.0,0.0
1582913690034,5375411.0,5006770.0,0.0
1582913690076,5371374.0,5014688.0,0.0
1582913690132,5374141.0,5022634.0,0.0
1582913690178,5372573.0,5007368.0,0.0
1582913690229,5399927.0,5010960.0,0.0
1582913690272,5387522.0,4998456.0,0.0
1582913690324,5368940.0,4990116.0,0.0
1582913690373,5352793.0,4977499.0,0.0
1582913690419,5357258.0,4973683.0,0.0
1582913690464,5372940.0,4986264.0,0.0
1582913690513,5399784.0,5007290.0,0.0
1582913690562,5413604.0,5030243.0,0.0
1582913690617,5451620.0,5056605.0,0.0
1582913690659,5484625.0,5040934.0,0.0
1582913690713,5491820.0,5041840.0,0.0
1582913690760,5481787.0,5036235.0,0.0
1582913690810,5468526.0,5030475.0,0.0
1582913690858,5454124.0,5029674.0,0.0
1582913690907,5443534.0,5035637.0,0.0
1582913690953,5431556.0,5040087.0,0.0
1582913691002,5447074.0,5047426.0,0.0
1582913691053,5476588.0,5074732.0,0.0
1582913691099,5470592.0,5080263.0,0.0
1582913691150,5462056.0,5046048.0,0.0
1582913691199,5437267.0,5002676.0,0.0
1582913691247,5442075.0,4989691.0,0.0
1582913691296,5443261.0,4997591.0,0.0
1582913691337,5457617.0,5025369.0,0.0
1582913691390,5472386.0,5042379.0,0.0
1582913691437,5508644.0,5078981.0,0.0
1582913691483,5522713.0,5074320.0,0.0
1582913691533,5527332.0,5085338.0,0.0
1582913691582,5520469.0,5086543.0,0.0
1582913691634,5500868.0,5069309.0,0.0
1582913691677,5481431.0,5031610.0,0.0
1582913691731,5455383.0,4998168.0,0.0
1582913691781,5435379.0,4983720.0,0.0
1582913691829,5445708.0,4981369.0,0.0
1582913691878,5466235.0,5002715.0,0.0
1582913691926,5462839.0,5012087.0,0.0
1582913691976,5441290.0,5000943.0,0.0
1582913692020,5434666.0,4991985.0,0.0
1582913692072,5447061.0,5003861.0,0.0
1582913692120,5462269.0,5017490.0,0.0
1582913692169,5470865.0,5000712.0,0.0
1582913692220,5470937.0,4983190.0,0.0
1582913692264,5482440.0,4985329.0,0.0
1582913692316,5454244.0,4965150.0,0.0
1582913692361,5448403.0,4957513.0,0.0
1582913692413,5435842.0,4948853.0,0.0
1582913692455,5417047.0,4944904.0,0.0
1582913692508,5414638.0,4945076.0,0.0
1582913692552,5418306.0,4948102.0,0.0
1582913692602,5414150.0,4960873.0,0.0
1582913692651,5429312.0,4968175.0,0.0
1582913692701,5429704.0,4955615.0,0.0
1582913692745,5423221.0,4931553.0,0.0
1582913692794,5385751.0,4906934.0,0.0
1582913692842,5364262.0,4887304.0,0.0
1582913692891,5356616.0,4878636.0,0.0
1582913692940,5362054.0,4879502.0,0.0
1582913692995,5373013.0,4873059.0,0.0
1582913693044,5459242.0,4937025.0,0.0
1582913693092,5581326.0,5084836.0,0.0
1582913693141,5683287.0,5190509.0,0.0
1582913693188,5743980.0,5294053.0,0.0
1582913693238,5797395.0,5375183.0,0.0
1582913693280,5827466.0,5415580.0,0.0
1582913693335,5859298.0,5450274.0,0.0
1582913693381,5897917.0,5487945.0,0.0
1582913693431,5930080.0,5522052.0,0.0
1582913693481,5971575.0,5576232.0,0.0
1582913693522,5995569.0,5621599.0,0.0
1582913693573,6013437.0,5667206.0,0.0
1582913693620,6044388.0,5702507.0,0.0
1582913693676,6063136.0,5732376.0,0.0
1582913693724,6065177.0,5800964.0,0.0
1582913693771,6066555.0,5812939.0,0.0
1582913693821,6062577.0,5798645.0,0.0
1582913693869,6026901.0,5756379.0,0.0
1582913693918,5985075.0,5712656.0,0.0
1582913693966,5944125.0,5625953.0,0.0
1582913694016,5948780.0,5598396.0,0.0
1582913694062,5935840.0,5531617.0,0.0
1582913694112,5880514.0,5506515.0,0.0
1582913694161,5896791.0,5469836.0,0.0
1582913694210,5863690.0,5449244.0,0.0
1582913694259,5847366.0,5431629.0,0.0
1582913694301,5830600.0,5419904.0,0.0
1582913694356,5834745.0,5430983.0,0.0
1582913694403,5830387.0,5410824.0,0.0
1582913694448,5828558.0,5389826.0,0.0
1582913694495,5831432.0,5393739.0,0.0
1582913694543,5836740.0,5405972.0,0.0
1582913694598,5851556.0,5415797.0,0.0
1582913694645,5838971.0,5395592.0,0.0
1582913694696,5818148.0,5333042.0,0.0
1582913694742,5796765.0,5321734.0,0.0
1582913694792,5778647.0,5329558.0,0.0
1582913694841,5770788.0,5335336.0,0.0
1582913694888,5764674.0,5333855.0,0.0
1582913694939,5762762.0,5337904.0,0.0
1582913694985,5759069.0,5344428.0,0.0
1582913695038,5751543.0,5354615.0,0.0
1582913695084,5783112.0,5365526.0,0.0
1582913695133,5796160.0,5348985.0,0.0
1582913695181,5780405.0,5337203.0,0.0
1582913695230,5765719.0,5323668.0,0.0
1582913695279,5760731.0,5307623.0,0.0
1582913695325,5773388.0,5315697.0,0.0
1582913695376,5786483.0,5330984.0,0.0
1582913695424,5791054.0,5342472.0,0.0
1582913695470,5810393.0,5365120.0,0.0
1582913695515,5818931.0,5389192.0,0.0
1582913695564,5840360.0,5380406.0,0.0
1582913695620,5837166.0,5346497.0,0.0
1582913695663,5816913.0,5322254.0,0.0
1582913695715,5790662.0,5299844.0,0.0
1582913695764,5769945.0,5292426.0,0.0
1582913695813,5744810.0,5281629.0,0.0
1582913695861,5729292.0,5277444.0,0.0
1582913695908,5736025.0,5279492.0,0.0
1582913695955,5741237.0,5292267.0,0.0
1582913696004,5759116.0,5305723.0,0.0
1582913696051,5754523.0,5289736.0,0.0
1582913696103,5764008.0,5266058.0,0.0
1582913696154,5755603.0,5240482.0,0.0
1582913696203,5752765.0,5233223.0,0.0
1582913696245,5752539.0,5251019.0,0.0
1582913696300,5775607.0,5287123.0,0.0
1582913696347,5793986.0,5326947.0,0.0
1582913696396,5805431.0,5330147.0,0.0
1582913696444,5797572.0,5313253.0,0.0
1582913696487,5770491.0,5286704.0,0.0
1582913696536,5754011.0,5277624.0,0.0
1582913696585,5747993.0,5287033.0,0.0
1582913696637,5746472.0,5277681.0,0.0
1582913696684,5743029.0,5269032.0,0.0
1582913696734,5773958.0,5302456.0,0.0
1582913696779,5787598.0,5347425.0,0.0
1582913696834,5792230.0,5364305.0,0.0
1582913696881,5810822.0,5367946.0,0.0
1582913696926,5824642.0,5367742.0,0.0
1582913696979,5833486.0,5378167.0,0.0
1582913697025,5846820.0,5402219.0,0.0
1582913697076,5870990.0,5433551.0,0.0
1582913697124,5903569.0,5435901.0,0.0
1582913697174,5912000.0,5433449.0,0.0
1582913697221,5890568.0,5416602.0,0.0
1582913697265,5880181.0,5417957.0,0.0
1582913697319,5866837.0,5411535.0,0.0
1582913697366,5851163.0,5404513.0,0.0
1582913697417,5841333.0,5410801.0,0.0
1582913697471,5836834.0,5417539.0,0.0
1582913697507,5841286.0,5430859.0,0.0
1582913697555,5876049.0,5480362.0,0.0
1582913697607,5880121.0,5490946.0,0.0
1582913697656,5885452.0,5474200.0,0.0
1582913697702,5885868.0,5468875.0,0.0
1582913697757,5891554.0,5450512.0,0.0
1582913697804,5900162.0,5461298.0,0.0
1582913697854,5917568.0,5488016.0,0.0
1582913697895,5930009.0,5521735.0,0.0
1582913697948,5966387.0,5572073.0,0.0
1582913697998,5988635.0,5606233.0,0.0
1582913698046,6027827.0,5635055.0,0.0
1582913698097,6021973.0,5650850.0,0.0
1582913698143,6006717.0,5614092.0,0.0
1582913698194,5980800.0,5568400.0,0.0
1582913698244,5954941.0,5539181.0,0.0
1582913698286,5940125.0,5530441.0,0.0
1582913698339,5929819.0,5525861.0,0.0
1582913698386,5948838.0,5553700.0,0.0
1582913698436,5968608.0,5594981.0,0.0
1582913698477,5984682.0,5622481.0,0.0
1582913698527,6000117.0,5626788.0,0.0
1582913698579,5999771.0,5593002.0,0.0
1582913698629,5991379.0,5544608.0,0.0
1582913698678,5980870.0,5534602.0,0.0
1582913698725,5990203.0,5557713.0,0.0
1582913698776,5996518.0,5605825.0,0.0
1582913698823,6036422.0,5663583.0,0.0
1582913698871,6055300.0,5702885.0,0.0
1582913698917,6045826.0,5686999.0,0.0
1582913698971,6013045.0,5682035.0,0.0
1582913699019,6005636.0,5672695.0,0.0
1582913699065,6001090.0,5666783.0,0.0
1582913699116,5994762.0,5653168.0,0.0
1582913699163,5983910.0,5632125.0,0.0
1582913699206,5992458.0,5636049.0,0.0
1582913699254,6023541.0,5657012.0,0.0
1582913699310,6067148.0,5682070.0,0.0
1582913699359,6064644.0,5681300.0,0.0
1582913699406,6047808.0,5689419.0,0.0
1582913699456,6034784.0,5697808.0,0.0
1582913699497,6030521.0,5688978.0,0.0
1582913699548,6035805.0,5685845.0,0.0
1582913699601,6045397.0,5687700.0,0.0
1582913699646,6032053.0,5605644.0,0.0
1582913699697,6005019.0,5529730.0,0.0
1582913699745,5979008.0,5474720.0,0.0
1582913699795,5970163.0,5461388.0,0.0
1582913699842,5945907.0,5444055.0,0.0
1582913699888,5928930.0,5451054.0,0.0
1582913699941,5915763.0,5456199.0,0.0
1582913699988,5911428.0,5459986.0,0.0
1582913700031,5917461.0,5465878.0,0.0
1582913700079,5940315.0,5445321.0,0.0
1582913700131,5945811.0,5425568.0,0.0
1582913700179,5942547.0,5428756.0,0.0
1582913700230,5944695.0,5432567.0,0.0
1582913700281,5930745.0,5436298.0,0.0
1582913700328,5930615.0,5458301.0,0.0
1582913700378,5948851.0,5498408.0,0.0
1582913700425,5998229.0,5592393.0,0.0
1582913700474,6056915.0,5693783.0,0.0
1582913700517,6160881.0,5825603.0,0.0
1582913700568,6131462.0,5868263.0,0.0
1582913700614,6097222.0,5750499.0,0.0
1582913700667,6053649.0,5627558.0,0.0
1582913700713,6005862.0,5580667.0,0.0
1582913700766,5983353.0,5559590.0,0.0
1582913700816,5968915.0,5548838.0,0.0
1582913700863,5959833.0,5551778.0,0.0
1582913700910,5974282.0,5558844.0,0.0
1582913700955,5988458.0,5598023.0,0.0
1582913701009,6013614.0,5646927.0,0.0
1582913701057,6020251.0,5601901.0,0.0
1582913701100,5975694.0,5529559.0,0.0
1582913701151,5945124.0,5508664.0,0.0
1582913701198,5936896.0,5513187.0,0.0
1582913701254,5946097.0,5552276.0,0.0
1582913701300,5978628.0,5605091.0,0.0
1582913701349,6016192.0,5679016.0,0.0
1582913701397,6011086.0,5657443.0,0.0
1582913701445,6010956.0,5638751.0,0.0
1582913701491,5992661.0,5606651.0,0.0
1582913701536,5957672.0,5548407.0,0.0
1582913701585,5922909.0,5485586.0,0.0
1582913701640,5890378.0,5443535.0,0.0
1582913701688,5861873.0,5421576.0,0.0
1582913701738,5868889.0,5445241.0,0.0
1582913701780,5880002.0,5483810.0,0.0
1582913701829,5886116.0,5502785.0,0.0
1582913701882,5870540.0,5477422.0,0.0
1582913701932,5849075.0,5443025.0,0.0
1582913701980,5838602.0,5440075.0,0.0
1582913702031,5840787.0,5417675.0,0.0
1582913702073,5816307.0,5388367.0,0.0
1582913702119,5811558.0,5393783.0,0.0
1582913702170,5834329.0,5436332.0,0.0
1582913702219,5808791.0,5421045.0,0.0
1582913702268,5804066.0,5403688.0,0.0
1582913702317,5787884.0,5387282.0,0.0
1582913702368,5770088.0,5378056.0,0.0
1582913702416,5761574.0,5382702.0,0.0
1582913702465,5753145.0,5396282.0,0.0
1582913702511,5750984.0,5400726.0,0.0
1582913702557,5770645.0,5405350.0,0.0
1582913702604,5783515.0,5435914.0,0.0
1582913702660,5769826.0,5417665.0,0.0
1582913702708,5765064.0,5398091.0,0.0
1582913702753,5743421.0,5364146.0,0.0
1582913702804,5740738.0,5359443.0,0.0
1582913702855,5741250.0,5376709.0,0.0
1582913702902,5755270.0,5412496.0,0.0
1582913702951,5773435.0,5453021.0,0.0
1582913702994,5800053.0,5444315.0,0.0
1582913703047,5773412.0,5360223.0,0.0
1582913703092,5738080.0,5319541.0,0.0
1582913703144,5701832.0,5291160.0,0.0
1582913703192,5666523.0,5279209.0,0.0
1582913703243,5645949.0,5280509.0,0.0
1582913703290,5639656.0,5290764.0,0.0
1582913703337,5630478.0,5296893.0,0.0
1582913703388,5658854.0,5312938.0,0.0
1582913703433,5683633.0,5354967.0,0.0
1582913703484,5670193.0,5308178.0,0.0
1582913703530,5628283.0,5237835.0,0.0
1582913703576,5591264.0,5192584.0,0.0
1582913703631,5588036.0,5195050.0,0.0
1582913703678,5579795.0,5211704.0,0.0
1582913703726,5573348.0,5221825.0,0.0
1582913703774,5569821.0,5240561.0,0.0
1582913703824,5611684.0,5268987.0,0.0
1582913703873,5634135.0,5299029.0,0.0
1582913703922,5653026.0,5289837.0,0.0
1582913703965,5638980.0,5243885.0,0.0
1582913704015,5603931.0,5194112.0,0.0
1582913704066,5574869.0,5175499.0,0.0
1582913704113,5555278.0,5171644.0,0.0
1582913704164,5548192.0,5178518.0,0.0
1582913704213,5560183.0,5195717.0,0.0
1582913704255,5594291.0,5261433.0,0.0
1582913704310,5606199.0,5285258.0,0.0
1582913704354,5629612.0,5284906.0,0.0
1582913704405,5623392.0,5255779.0,0.0
1582913704457,5612789.0,5223702.0,0.0
1582913704499,5602092.0,5194756.0,0.0
1582913704546,5595182.0,5213242.0,0.0
1582913704596,5593817.0,5258132.0,0.0
1582913704645,5634112.0,5350070.0,0.0
1582913704694,5678871.0,5412733.0,0.0
1582913704745,5648490.0,5369112.0,0.0
1582913704795,5634254.0,5329196.0,0.0
1582913704843,5602376.0,5284670.0,0.0
1582913704892,5583475.0,5275975.0,0.0
1582913704934,5560064.0,5222152.0,0.0
1582913704989,5514259.0,5150104.0,0.0
1582913705041,5506993.0,5127444.0,0.0
1582913705081,5552548.0,5207226.0,0.0
1582913705129,5571449.0,5230803.0,0.0
1582913705176,5570820.0,5215437.0,0.0
1582913705225,5557819.0,5206572.0,0.0
1582913705274,5543549.0,5205294.0,0.0
1582913705329,5547918.0,5226325.0,0.0
1582913705380,5563257.0,5239893.0,0.0
1582913705425,5547040.0,5190436.0,0.0
1582913705475,5540140.0,5187315.0,0.0
1582913705517,5518937.0,5167833.0,0.0
1582913705565,5502660.0,5156368.0,0.0
1582913705621,5483865.0,5148702.0,0.0
1582913705669,5455170.0,5134059.0,0.0
1582913705720,5436317.0,5136048.0,0.0
1582913705765,5425038.0,5144960.0,0.0
1582913705815,5416584.0,5144937.0,0.0
1582913705857,5441137.0,5150386.0,0.0
1582913705911,5438585.0,5111411.0,0.0
1582913705958,5397981.0,5070728.0,0.0
1582913706008,5367136.0,5038841.0,0.0
1582913706060,5347428.0,5016872.0,0.0
1582913706103,5340172.0,5020862.0,0.0
1582913706154,5346632.0,5039339.0,0.0
1582913706198,5357911.0,5062723.0,0.0
1582913706253,5384755.0,5099040.0,0.0
1582913706296,5410137.0,5156412.0,0.0
1582913706348,5406707.0,5096315.0,0.0
1582913706397,5369440.0,5012870.0,0.0
1582913706445,5310314.0,4959150.0,0.0
1582913706488,5271848.0,4936332.0,0.0
1582913706536,5253373.0,4941543.0,0.0
1582913706585,5249230.0,4956131.0,0.0
1582913706638,5241062.0,4962259.0,0.0
1582913706688,5280823.0,5015188.0,0.0
1582913706736,5303025.0,5055869.0,0.0
1582913706785,5316832.0,5061591.0,0.0
1582913706835,5297184.0,4987666.0,0.0
1582913706877,5254276.0,4920129.0,0.0
1582913706932,5223765.0,4882419.0,0.0
1582913706979,5218647.0,4880847.0,0.0
1582913707028,5222327.0,4895829.0,0.0
1582913707078,5262208.0,4953429.0,0.0
1582913707125,5288539.0,5034014.0,0.0
1582913707170,5278129.0,5004795.0,0.0
1582913707218,5291959.0,5003698.0,0.0
1582913707268,5274555.0,4990650.0,0.0
1582913707316,5254596.0,4979638.0,0.0
1582913707364,5227635.0,4939497.0,0.0
1582913707414,5202429.0,4900024.0,0.0
1582913707461,5180727.0,4886048.0,0.0
1582913707514,5206809.0,4920423.0,0.0
1582913707556,5246120.0,4972515.0,0.0
1582913707605,5255368.0,5003314.0,0.0
1582913707661,5253124.0,5011319.0,0.0
1582913707707,5254026.0,5001348.0,0.0
1582913707756,5262242.0,4999121.0,0.0
1582913707804,5259037.0,4968602.0,0.0
1582913707854,5232384.0,4915356.0,0.0
1582913707898,5217649.0,4897332.0,0.0
1582913707951,5228061.0,4937213.0,0.0
1582913708001,5238830.0,4951324.0,0.0
1582913708047,5247496.0,4945444.0,0.0
1582913708096,5230103.0,4932441.0,0.0
1582913708144,5194594.0,4922729.0,0.0
1582913708194,5180904.0,4921305.0,0.0
1582913708237,5172273.0,4934137.0,0.0
1582913708290,5167370.0,4918895.0,0.0
1582913708340,5155948.0,4878687.0,0.0
1582913708387,5176821.0,4886593.0,0.0
1582913708436,5187528.0,4936557.0,0.0
1582913708480,5205433.0,4966036.0,0.0
1582913708527,5220665.0,4984443.0,0.0
1582913708576,5233772.0,4987282.0,0.0
1582913708630,5246310.0,4991193.0,0.0
1582913708680,5262611.0,5005486.0,0.0
1582913708727,5289548.0,5032736.0,0.0
1582913708774,5329405.0,5042596.0,0.0
1582913708822,5379460.0,5059399.0,0.0
1582913708873,5358766.0,5092811.0,0.0
1582913708921,5356379.0,5134228.0,0.0
1582913708965,5362077.0,5160348.0,0.0
1582913709019,5364358.0,5177230.0,0.0
1582913709062,5355833.0,5173497.0,0.0
1582913709116,5341290.0,5155419.0,0.0
1582913709158,5328430.0,5136536.0,0.0
1582913709213,5335449.0,5139374.0,0.0
1582913709263,5368834.0,5148058.0,0.0
1582913709309,5348021.0,5130814.0,0.0
1582913709358,5316725.0,5101041.0,0.0
1582913709404,5292339.0,5079163.0,0.0
1582913709455,5282188.0,5070874.0,0.0
1582913709497,5283031.0,5073972.0,0.0
1582913709546,5306348.0,5088605.0,0.0
1582913709595,5322472.0,5093670.0,0.0
1582913709644,5351368.0,5140187.0,0.0
1582913709697,5388981.0,5168591.0,0.0
1582913709745,5385098.0,5134748.0,0.0
1582913709795,5348448.0,5081593.0,0.0
1582913709839,5295662.0,5056085.0,0.0
1582913709891,5254869.0,5036954.0,0.0
1582913709940,5238830.0,5037700.0,0.0
1582913709988,5228228.0,5029705.0,0.0
1582913710038,5223752.0,5027411.0,0.0
1582913710081,5272691.0,5076020.0,0.0
1582913710135,5267217.0,5083426.0,0.0
1582913710180,5274946.0,5094574.0,0.0
1582913710231,5255784.0,5049561.0,0.0
1582913710274,5235541.0,5019879.0,0.0
1582913710329,5221271.0,5011693.0,0.0
1582913710377,5217815.0,5019111.0,0.0
1582913710421,5230722.0,5040900.0,0.0
1582913710475,5252601.0,5067607.0,0.0
1582913710525,5296435.0,5090527.0,0.0
1582913710565,5313794.0,5076664.0,0.0
1582913710615,5307287.0,5082420.0,0.0
1582913710669,5286214.0,5083436.0,0.0
1582913710716,5259321.0,5053246.0,0.0
1582913710761,5219633.0,5015584.0,0.0
1582913710816,5178779.0,4983448.0,0.0
1582913710863,5159142.0,4979909.0,0.0
1582913710911,5203805.0,5012689.0,0.0
1582913710960,5220059.0,5037452.0,0.0
1582913711004,5226709.0,5049402.0,0.0
1582913711056,5207475.0,5033402.0,0.0
1582913711099,5203093.0,5026121.0,0.0
1582913711154,5200874.0,5014826.0,0.0
1582913711201,5185676.0,4975557.0,0.0
1582913711251,5161969.0,4958799.0,0.0
1582913711300,5167121.0,4976902.0,0.0
1582913711342,5208008.0,5020082.0,0.0
1582913711397,5248625.0,5021293.0,0.0
1582913711441,5232038.0,5020852.0,0.0
1582913711490,5214372.0,5025172.0,0.0
1582913711536,5185760.0,5008855.0,0.0
1582913711584,5166967.0,5004627.0,0.0
1582913711634,5158513.0,4994551.0,0.0
1582913711681,5127170.0,4952964.0,0.0
1582913711737,5127479.0,4952964.0,0.0
1582913711782,5125461.0,4960585.0,0.0
1582913711834,5105051.0,4959059.0,0.0
1582913711882,5085924.0,4947039.0,0.0
1582913711931,5082150.0,4940277.0,0.0
1582913711975,5084785.0,4940267.0,0.0
1582913712029,5104932.0,4954152.0,0.0
1582913712077,5120213.0,4973464.0,0.0
1582913712123,5153171.0,5005803.0,0.0
1582913712174,5165030.0,4995683.0,0.0
1582913712222,5135645.0,4984206.0,0.0
1582913712270,5122348.0,4974856.0,0.0
1582913712320,5100433.0,4963311.0,0.0
1582913712369,5079739.0,4956300.0,0.0
1582913712411,5074871.0,4958494.0,0.0
1582913712462,5071618.0,4960292.0,0.0
1582913712510,5072426.0,4960144.0,0.0
1582913712556,5120782.0,5002613.0,0.0
1582913712606,5128096.0,4997412.0,0.0
1582913712656,5104386.0,4985065.0,0.0
1582913712704,5077102.0,4964045.0,0.0
1582913712751,5056445.0,4953157.0,0.0
1582913712802,5042852.0,4934477.0,0.0
1582913712853,5044311.0,4942142.0,0.0
1582913712901,5049013.0,4953870.0,0.0
1582913712950,5071524.0,4977796.0,0.0
1582913712999,5098841.0,4990254.0,0.0
1582913713042,5089580.0,4977783.0,0.0
1582913713096,5101205.0,4990311.0,0.0
1582913713143,5087955.0,4979512.0,0.0
1582913713194,5055899.0,4960483.0,0.0
1582913713242,5025649.0,4953585.0,0.0
1582913713291,5018632.0,4951495.0,0.0
1582913713339,5021314.0,4962135.0,0.0
1582913713381,5057288.0,4983153.0,0.0
1582913713437,5073339.0,4997786.0,0.0
1582913713485,5096490.0,5013977.0,0.0
1582913713528,5082553.0,4999426.0,0.0
1582913713576,5076509.0,4993670.0,0.0
1582913713626,5069220.0,4978891.0,0.0
1582913713679,5059342.0,4976144.0,0.0
1582913713725,5055460.0,4977286.0,0.0
1582913713776,5094139.0,4991443.0,0.0
1582913713823,5152029.0,5020218.0,0.0
1582913713874,5194487.0,5031594.0,0.0
1582913713921,5193536.0,5055089.0,0.0
1582913713966,5177081.0,5057578.0,0.0
1582913714019,5151972.0,5045999.0,0.0
1582913714064,5139564.0,5035349.0,0.0
1582913714117,5117137.0,5010507.0,0.0
1582913714164,5093939.0,4996339.0,0.0
1582913714214,5120117.0,5019371.0,0.0
1582913714264,5137546.0,5044845.0,0.0
1582913714309,5154500.0,5066272.0,0.0
1582913714355,5160934.0,5066329.0,0.0
1582913714404,5173341.0,5057217.0,0.0
1582913714458,5181521.0,5056583.0,0.0
1582913714503,5205990.0,5070242.0,0.0
1582913714547,5220925.0,5064159.0,0.0
1582913714595,5248115.0,5096813.0,0.0
1582913714644,5285038.0,5137688.0,0.0
1582913714699,5291436.0,5159783.0,0.0
1582913714744,5311526.0,5164678.0,0.0
1582913714796,5308996.0,5162676.0,0.0
1582913714843,5291722.0,5147288.0,0.0
1582913714893,5274886.0,5141103.0,0.0
1582913714941,5266777.0,5137869.0,0.0
1582913714990,5269152.0,5134047.0,0.0
1582913715039,5300234.0,5143365.0,0.0
1582913715086,5307500.0,5145197.0,0.0
1582913715136,5299914.0,5157782.0,0.0
1582913715184,5301433.0,5149470.0,0.0
1582913715233,5311799.0,5145321.0,0.0
1582913715282,5316689.0,5146292.0,0.0
1582913715324,5336672.0,5159964.0,0.0
1582913715379,5358493.0,5181289.0,0.0
1582913715426,5388388.0,5236039.0,0.0
1582913715477,5439355.0,5285280.0,0.0
1582913715517,5453971.0,5278248.0,0.0
1582913715566,5470451.0,5272039.0,0.0
1582913715616,5469975.0,5258776.0,0.0
1582913715667,5449341.0,5235675.0,0.0
1582913715720,5426950.0,5226370.0,0.0
1582913715766,5424029.0,5221802.0,0.0
1582913715816,5426414.0,5219078.0,0.0
1582913715863,5458816.0,5245106.0,0.0
1582913715913,5470355.0,5271021.0,0.0
1582913715962,5477751.0,5277411.0,0.0
1582913716004,5465879.0,5242721.0,0.0
1582913716052,5460834.0,5223962.0,0.0
1582913716107,5452213.0,5212123.0,0.0
1582913716152,5464098.0,5222763.0,0.0
1582913716204,5482250.0,5241589.0,0.0
1582913716254,5534705.0,5281617.0,0.0
1582913716295,5605902.0,5323544.0,0.0
1582913716344,5615210.0,5341092.0,0.0
1582913716393,5596642.0,5356131.0,0.0
1582913716440,5583394.0,5357962.0,0.0
1582913716496,5566344.0,5337984.0,0.0
1582913716539,5539916.0,5303677.0,0.0
1582913716587,5516087.0,5281176.0,0.0
1582913716637,5500072.0,5271655.0,0.0
1582913716690,5535748.0,5303970.0,0.0
1582913716740,5535904.0,5306571.0,0.0
1582913716786,5534668.0,5307997.0,0.0
1582913716835,5525917.0,5298781.0,0.0
1582913716883,5534918.0,5287271.0,0.0
1582913716933,5532008.0,5269822.0,0.0
1582913716976,5534432.0,5249674.0,0.0
1582913717031,5554899.0,5258969.0,0.0
1582913717079,5583121.0,5297594.0,0.0
1582913717126,5619069.0,5321236.0,0.0
1582913717177,5614011.0,5318964.0,0.0
1582913717223,5607221.0,5311410.0,0.0
1582913717267,5586752.0,5302444.0,0.0
1582913717320,5566048.0,5290266.0,0.0
1582913717373,5557582.0,5288334.0,0.0
1582913717412,5546291.0,5258979.0,0.0
1582913717461,5543003.0,5234659.0,0.0
1582913717509,5577254.0,5268421.0,0.0
1582913717557,5575758.0,5290561.0,0.0
1582913717607,5585269.0,5315990.0,0.0
1582913717656,5592142.0,5314803.0,0.0
1582913717707,5601830.0,5302840.0,0.0
1582913717759,5607398.0,5296961.0,0.0
1582913717805,5622632.0,5311559.0,0.0
1582913717856,5662510.0,5337067.0,0.0
1582913717903,5771168.0,5393127.0,0.0
1582913717951,5830506.0,5468840.0,0.0
1582913718000,5802440.0,5493762.0,0.0
1582913718050,5760541.0,5496068.0,0.0
1582913718095,5759889.0,5505249.0,0.0
1582913718142,5760874.0,5496496.0,0.0
1582913718192,5742839.0,5470084.0,0.0
1582913718239,5721553.0,5453608.0,0.0
1582913718290,5704029.0,5438978.0,0.0
1582913718340,5719095.0,5448634.0,0.0
1582913718388,5742935.0,5458629.0,0.0
1582913718437,5746508.0,5463446.0,0.0
1582913718485,5720804.0,5422311.0,0.0
1582913718529,5697416.0,5383257.0,0.0
1582913718576,5701762.0,5365120.0,0.0
1582913718629,5711948.0,5366658.0,0.0
1582913718680,5720307.0,5371418.0,0.0
1582913718727,5738304.0,5384647.0,0.0
1582913718777,5755616.0,5386365.0,0.0
1582913718824,5768733.0,5370987.0,0.0
1582913718870,5749525.0,5344778.0,0.0
1582913718917,5717184.0,5309387.0,0.0
1582913718970,5696121.0,5295796.0,0.0
1582913719020,5682314.0,5290063.0,0.0
1582913719068,5673090.0,5286570.0,0.0
1582913719118,5672817.0,5286162.0,0.0
1582913719164,5715392.0,5336829.0,0.0
1582913719210,5705358.0,5349109.0,0.0
1582913719261,5707912.0,5358336.0,0.0
1582913719309,5708375.0,5319925.0,0.0
1582913719359,5705169.0,5272039.0,0.0
1582913719406,5702105.0,5249188.0,0.0
1582913719457,5712149.0,5261173.0,0.0
1582913719503,5722052.0,5282045.0,0.0
1582913719550,5748753.0,5339554.0,0.0
1582913719595,5769256.0,5383606.0,0.0
1582913719644,5781224.0,5383720.0,0.0
1582913719699,5775822.0,5367686.0,0.0
1582913719746,5758856.0,5350229.0,0.0
1582913719790,5734470.0,5319235.0,0.0
1582913719841,5715522.0,5280554.0,0.0
1582913719893,5695765.0,5246260.0,0.0
1582913719941,5685911.0,5238243.0,0.0
1582913719983,5719867.0,5279886.0,0.0
1582913720038,5714880.0,5303507.0,0.0
1582913720085,5732132.0,5321463.0,0.0
1582913720130,5739112.0,5311660.0,0.0
1582913720183,5742033.0,5308346.0,0.0
1582913720232,5746912.0,5312044.0,0.0
1582913720279,5741866.0,5286704.0,0.0
1582913720329,5722918.0,5240539.0,0.0
1582913720377,5699541.0,5198872.0,0.0
1582913720426,5703270.0,5211920.0,0.0
1582913720472,5695682.0,5200702.0,0.0
1582913720518,5685578.0,5178032.0,0.0
1582913720567,5659650.0,5148724.0,0.0
1582913720615,5643076.0,5138797.0,0.0
1582913720670,5632770.0,5145988.0,0.0
1582913720716,5631072.0,5156073.0,0.0
1582913720766,5620874.0,5141081.0,0.0
1582913720813,5635893.0,5127694.0,0.0
1582913720863,5626229.0,5133958.0,0.0
1582913720912,5636806.0,5139328.0,0.0
1582913720961,5646423.0,5138683.0,0.0
1582913721009,5655850.0,5140786.0,0.0
1582913721052,5674489.0,5164385.0,0.0
1582913721101,5695541.0,5199075.0,0.0
1582913721152,5727786.0,5252874.0,0.0
1582913721198,5755579.0,5284963.0,0.0
1582913721248,5748729.0,5260099.0,0.0
1582913721300,5737747.0,5218218.0,0.0
1582913721350,5721267.0,5210969.0,0.0
1582913721392,5698745.0,5198069.0,0.0
1582913721445,5677602.0,5188841.0,0.0
1582913721495,5658510.0,5190087.0,0.0
1582913721543,5644288.0,5186501.0,0.0
1582913721588,5641354.0,5181220.0,0.0
1582913721635,5663069.0,5203947.0,0.0
1582913721689,5661312.0,5184794.0,0.0
1582913721733,5629269.0,5138696.0,0.0
1582913721785,5594837.0,5088355.0,0.0
1582913721833,5578050.0,5062316.0,0.0
1582913721883,5571616.0,5058572.0,0.0
1582913721932,5589815.0,5082827.0,0.0
1582913721976,5604477.0,5101992.0,0.0
1582913722028,5630039.0,5148407.0,0.0
1582913722076,5654141.0,5188841.0,0.0
1582913722125,5663080.0,5178305.0,0.0
1582913722175,5645593.0,5132804.0,0.0
1582913722222,5597973.0,5066770.0,0.0
1582913722273,5545318.0,5024788.0,0.0
1582913722317,5518771.0,5013558.0,0.0
1582913722369,5504501.0,5017561.0,0.0
1582913722415,5493162.0,5016805.0,0.0
1582913722465,5528151.0,5035166.0,0.0
1582913722515,5542148.0,5049912.0,0.0
1582913722557,5535415.0,5059770.0,0.0
1582913722604,5506982.0,5047956.0,0.0
1582913722656,5491891.0,5006504.0,0.0
1582913722701,5474557.0,4962779.0,0.0
1582913722757,5467731.0,4952421.0,0.0
1582913722801,5465346.0,4961117.0,0.0
1582913722854,5482382.0,4999515.0,0.0
1582913722897,5516753.0,5037801.0,0.0
1582913722951,5535867.0,5046361.0,0.0
1582913722998,5549924.0,5061863.0,0.0
1582913723049,5537732.0,5063751.0,0.0
1582913723095,5503193.0,5051879.0,0.0
1582913723142,5481420.0,5043726.0,0.0
1582913723192,5461000.0,4997717.0,0.0
1582913723239,5424113.0,4957295.0,0.0
1582913723288,5429751.0,4950432.0,0.0
1582913723335,5457664.0,4984047.0,0.0
1582913723388,5464253.0,5015866.0,0.0
1582913723441,5457617.0,5007488.0,0.0
1582913723485,5457510.0,4997593.0,0.0
1582913723535,5466485.0,5003054.0,0.0
1582913723576,5485587.0,5035099.0,0.0
1582913723625,5507362.0,5056119.0,0.0
1582913723680,5523829.0,5046428.0,0.0
1582913723729,5538218.0,5052907.0,0.0
1582913723780,5561166.0,5057340.0,0.0
1582913723825,5553213.0,5068840.0,0.0
1582913723875,5535392.0,5065402.0,0.0
1582913723918,5508347.0,5056526.0,0.0
1582913723971,5486645.0,5059602.0,0.0
1582913724015,5472136.0,5062564.0,0.0
1582913724068,5474024.0,5065888.0,0.0
1582913724120,5513915.0,5101279.0,0.0
1582913724163,5536817.0,5115436.0,0.0
1582913724215,5516846.0,5085021.0,0.0
1582913724257,5494254.0,5053858.0,0.0
1582913724311,5483272.0,5039101.0,0.0
1582913724356,5482929.0,5048374.0,0.0
1582913724408,5497568.0,5063141.0,0.0
1582913724459,5523319.0,5091126.0,0.0
1582913724506,5612612.0,5147684.0,0.0
1582913724550,5630988.0,5203474.0,0.0
1582913724597,5699447.0,5242664.0,0.0
1582913724645,5676960.0,5246813.0,0.0
1582913724697,5658807.0,5262518.0,0.0
1582913724748,5639466.0,5224708.0,0.0
1582913724799,5614474.0,5187043.0,0.0
1582913724845,5585292.0,5169564.0,0.0
1582913724896,5577800.0,5164848.0,0.0
1582913724942,5600405.0,5201371.0,0.0
1582913724987,5621704.0,5248623.0,0.0
1582913725038,5628544.0,5276993.0,0.0
1582913725089,5637888.0,5285315.0,0.0
1582913725138,5659470.0,5282635.0,0.0
1582913725185,5659210.0,5275952.0,0.0
1582913725235,5667925.0,5258018.0,0.0
1582913725277,5682813.0,5271734.0,0.0
1582913725331,5709964.0,5336966.0,0.0
1582913725381,5746449.0,5415493.0,0.0
1582913725428,5786496.0,5440719.0,0.0
1582913725477,5783812.0,5423884.0,0.0
1582913725525,5766169.0,5418274.0,0.0
1582913725568,5737676.0,5400771.0,0.0
1582913725616,5720721.0,5378846.0,0.0
1582913725670,5706926.0,5372107.0,0.0
1582913725718,5700100.0,5343049.0,0.0
1582913725763,5707686.0,5321939.0,0.0
1582913725817,5736595.0,5358098.0,0.0
1582913725864,5746306.0,5377184.0,0.0
1582913725914,5753894.0,5388265.0,0.0
1582913725960,5774681.0,5393162.0,0.0
1582913726011,5764484.0,5394688.0,0.0
1582913726060,5767381.0,5408109.0,0.0
1582913726101,5779786.0,5432102.0,0.0
1582913726156,5796017.0,5459330.0,0.0
1582913726198,5840467.0,5473769.0,0.0
1582913726254,5876654.0,5464531.0,0.0
1582913726299,5851069.0,5458958.0,0.0
1582913726350,5819144.0,5453677.0,0.0
1582913726399,5797002.0,5442472.0,0.0
1582913726447,5778624.0,5431007.0,0.0
1582913726496,5756992.0,5424585.0,0.0
1582913726539,5754724.0,5436208.0,0.0
1582913726587,5769565.0,5462688.0,0.0
1582913726636,5799496.0,5503508.0,0.0
1582913726689,5825331.0,5533370.0,0.0
1582913726739,5846297.0,5535506.0,0.0
1582913726786,5861885.0,5511287.0,0.0
1582913726835,5878293.0,5539362.0,0.0
1582913726882,5910112.0,5591838.0,0.0
1582913726933,5933678.0,5636559.0,0.0
1582913726981,5928750.0,5672470.0,0.0
1582913727029,5916772.0,5652975.0,0.0
1582913727078,5905314.0,5647831.0,0.0
1582913727125,5890594.0,5641589.0,0.0
1582913727177,5887150.0,5614612.0,0.0
1582913727221,5867383.0,5542314.0,0.0
1582913727273,5854560.0,5512588.0,0.0
1582913727319,5849501.0,5503699.0,0.0
1582913727369,5840669.0,5498713.0,0.0
1582913727418,5851163.0,5517314.0,0.0
1582913727466,5892932.0,5571191.0,0.0
1582913727515,5882176.0,5579875.0,0.0
1582913727564,5888800.0,5598600.0,0.0
1582913727606,5886948.0,5590798.0,0.0
1582913727658,5892992.0,5544055.0,0.0
1582913727709,5879492.0,5519971.0,0.0
1582913727758,5880264.0,5516669.0,0.0
1582913727805,5894154.0,5533098.0,0.0
1582913727856,5937369.0,5591340.0,0.0
1582913727900,5973510.0,5611603.0,0.0
1582913727951,5961126.0,5619553.0,0.0
1582913728000,5938557.0,5625148.0,0.0
1582913728049,5916000.0,5598827.0,0.0
1582913728097,5879765.0,5557148.0,0.0
1582913728145,5852055.0,5520231.0,0.0
1582913728195,5842011.0,5478574.0,0.0
1582913728239,5831658.0,5469925.0,0.0
1582913728287,5879671.0,5516273.0,0.0
1582913728335,5894807.0,5565051.0,0.0
1582913728382,5910135.0,5609693.0,0.0
1582913728433,5902679.0,5594518.0,0.0
1582913728480,5900115.0,5579989.0,0.0
1582913728531,5895306.0,5564373.0,0.0
1582913728579,5899662.0,5564860.0,0.0
1582913728624,5912083.0,5547040.0,0.0
1582913728673,5904567.0,5538344.0,0.0
1582913728721,5883658.0,5545163.0,0.0
1582913728771,5871906.0,5542550.0,0.0
1582913728819,5869318.0,5512870.0,0.0
1582913728874,5847970.0,5492303.0,0.0
1582913728920,5831325.0,5481990.0,0.0
1582913728970,5816104.0,5481041.0,0.0
1582913729020,5807842.0,5477682.0,0.0
1582913729068,5808554.0,5480645.0,0.0
1582913729115,5850131.0,5498158.0,0.0
1582913729159,5846688.0,5517336.0,0.0
1582913729213,5842747.0,5530713.0,0.0
1582913729261,5853538.0,5532353.0,0.0
1582913729310,5853704.0,5531481.0,0.0
1582913729359,5853111.0,5541250.0,0.0
1582913729406,5861945.0,5568241.0,0.0
1582913729457,5887185.0,5615731.0,0.0
1582913729503,5914041.0,5702907.0,0.0
1582913729549,5955001.0,5744282.0,0.0
1582913729595,5935720.0,5743975.0,0.0
1582913729643,5936823.0,5697470.0,0.0
1582913729693,5928977.0,5648601.0,0.0
1582913729742,5918504.0,5616692.0,0.0
1582913729796,5904068.0,5609252.0,0.0
1582913729844,5896552.0,5607102.0,0.0
1582913729892,5904401.0,5623578.0,0.0
1582913729941,5936659.0,5658833.0,0.0
1582913729985,5957162.0,5671576.0,0.0
1582913730039,5964379.0,5678033.0,0.0
1582913730081,5966018.0,5634535.0,0.0
1582913730139,5963882.0,5591013.0,0.0
1582913730184,5949444.0,5579491.0,0.0
1582913730231,5947771.0,5596858.0,0.0
1582913730283,5947675.0,5632928.0,0.0
1582913730329,5989122.0,5674040.0,0.0
1582913730377,6037337.0,5727559.0,0.0
1582913730421,6046205.0,5738774.0,0.0
1582913730475,6011526.0,5734546.0,0.0
1582913730523,6004699.0,5741114.0,0.0
1582913730566,6000913.0,5745298.0,0.0
1582913730614,6002265.0,5751608.0,0.0
1582913730662,6002301.0,5742618.0,0.0
1582913730718,5995319.0,5737780.0,0.0
1582913730761,6007690.0,5758551.0,0.0
1582913730814,6037478.0,5773781.0,0.0
1582913730862,6047334.0,5788684.0,0.0
1582913730911,6048177.0,5792235.0,0.0
1582913730960,6049862.0,5796825.0,0.0
1582913731008,6038214.0,5794043.0,0.0
1582913731056,6024977.0,5766081.0,0.0
1582913731102,6021713.0,5731866.0,0.0
1582913731154,6002598.0,5706154.0,0.0
1582913731202,6021499.0,5716725.0,0.0
1582913731251,6017011.0,5701473.0,0.0
1582913731300,6011206.0,5709897.0,0.0
1582913731343,5998869.0,5702615.0,0.0
1582913731397,5971016.0,5683789.0,0.0
1582913731444,5951498.0,5672685.0,0.0
1582913731489,5941715.0,5666171.0,0.0
1582913731541,5933049.0,5634738.0,0.0
1582913731583,5950240.0,5636276.0,0.0
1582913731633,5944305.0,5654005.0,0.0
1582913731684,5935541.0,5656458.0,0.0
1582913731737,5934331.0,5649674.0,0.0
1582913731784,5927315.0,5633257.0,0.0
1582913731832,5920904.0,5636931.0,0.0
1582913731881,5925973.0,5652195.0,0.0
1582913731928,5936386.0,5675546.0,0.0
1582913731979,5951189.0,5679457.0,0.0
1582913732024,5963799.0,5657973.0,0.0
1582913732071,5988979.0,5629049.0,0.0
1582913732123,5966054.0,5626788.0,0.0
1582913732168,5942914.0,5629570.0,0.0
1582913732221,5925960.0,5623793.0,0.0
1582913732265,5904258.0,5615177.0,0.0
1582913732318,5890758.0,5607432.0,0.0
1582913732363,5886116.0,5602275.0,0.0
1582913732415,5902073.0,5623102.0,0.0
1582913732463,5925450.0,5649223.0,0.0
1582913732512,5889952.0,5599323.0,0.0
1582913732560,5860531.0,5556492.0,0.0
1582913732604,5840147.0,5519993.0,0.0
1582913732652,5830899.0,5515426.0,0.0
1582913732705,5838318.0,5535845.0,0.0
1582913732755,5853977.0,5555102.0,0.0
1582913732802,5881060.0,5580157.0,0.0
1582913732846,5914837.0,5632792.0,0.0
1582913732901,5952876.0,5641025.0,0.0
1582913732946,5924014.0,5634104.0,0.0
1582913732991,5902476.0,5605735.0,0.0
1582913733039,5866894.0,5562701.0,0.0
1582913733089,5824452.0,5519721.0,0.0
1582913733142,5794474.0,5498317.0,0.0
1582913733192,5778826.0,5491137.0,0.0
1582913733240,5787338.0,5499664.0,0.0
1582913733292,5819690.0,5522944.0,0.0
1582913733337,5816782.0,5539204.0,0.0
1582913733384,5803293.0,5545876.0,0.0
1582913733430,5783016.0,5518602.0,0.0
1582913733476,5761028.0,5457249.0,0.0
1582913733527,5733604.0,5415064.0,0.0
1582913733578,5720697.0,5406628.0,0.0
1582913733625,5724260.0,5426744.0,0.0
1582913733671,5747803.0,5461241.0,0.0
1582913733718,5740051.0,5441828.0,0.0
1582913733769,5739195.0,5446430.0,0.0
1582913733822,5730161.0,5447921.0,0.0
1582913733866,5706048.0,5437667.0,0.0
1582913733919,5683110.0,5423418.0,0.0
1582913733966,5645201.0,5363616.0,0.0
1582913734015,5596228.0,5300126.0,0.0
1582913734064,5579249.0,5281221.0,0.0
1582913734114,5621657.0,5312733.0,0.0
1582913734162,5621373.0,5328247.0,0.0
1582913734204,5596631.0,5315923.0,0.0
1582913734258,5560147.0,5293104.0,0.0
1582913734307,5552428.0,5284918.0,0.0
1582913734357,5558519.0,5298974.0,0.0
1582913734404,5567200.0,5309171.0,0.0
1582913734454,5540782.0,5249978.0,0.0
1582913734502,5532174.0,5239113.0,0.0
1582913734548,5517286.0,5212554.0,0.0
1582913734597,5512477.0,5229118.0,0.0
1582913734641,5484221.0,5212066.0,0.0
1582913734692,5451204.0,5194743.0,0.0
1582913734743,5428053.0,5187462.0,0.0
1582913734793,5402515.0,5177128.0,0.0
1582913734841,5399524.0,5181661.0,0.0
1582913734889,5426188.0,5185495.0,0.0
1582913734939,5435675.0,5143716.0,0.0
1582913734986,5382214.0,5093806.0,0.0
1582913735036,5341051.0,5061276.0,0.0
1582913735083,5290464.0,5028248.0,0.0
1582913735133,5261209.0,5011864.0,0.0
1582913735181,5247057.0,5008617.0,0.0
1582913735227,5239057.0,5007488.0,0.0
1582913735279,5246286.0,5016114.0,0.0
1582913735326,5280883.0,5039225.0,0.0
1582913735375,5270137.0,5013593.0,0.0
1582913735424,5245824.0,4979458.0,0.0
1582913735467,5190830.0,4921451.0,0.0
1582913735521,5136738.0,4883653.0,0.0
1582913735568,5111059.0,4879388.0,0.0
1582913735613,5101821.0,4886930.0,0.0
1582913735660,5102118.0,4890741.0,0.0
1582913735716,5124972.0,4894709.0,0.0
1582913735764,5167524.0,4919824.0,0.0
1582913735810,5155342.0,4908958.0,0.0
1582913735861,5128488.0,4900453.0,0.0
1582913735908,5120782.0,4893488.0,0.0
1582913735959,5087112.0,4843264.0,0.0
1582913736001,5051377.0,4796157.0,0.0
1582913736056,5039658.0,4781470.0,0.0
1582913736103,5042306.0,4819573.0,0.0
1582913736147,5072093.0,4859432.0,0.0
1582913736201,5084904.0,4856651.0,0.0
1582913736250,5097169.0,4841104.0,0.0
1582913736299,5073792.0,4816997.0,0.0
1582913736346,5045120.0,4811863.0,0.0
1582913736396,5032262.0,4809738.0,0.0
1582913736443,4992285.0,4743523.0,0.0
1582913736490,4936473.0,4682000.0,0.0
1582913736541,4874417.0,4637836.0,0.0
1582913736592,4862116.0,4613095.0,0.0
1582913736633,4825075.0,4549380.0,0.0
1582913736680,4814888.0,4514350.0,0.0
1582913736732,4794907.0,4482090.0,0.0
1582913736780,4779662.0,4475217.0,0.0
1582913736828,4777941.0,4483527.0,0.0
1582913736880,4779283.0,4517245.0,0.0
1582913736928,4802457.0,4540198.0,0.0
1582913736979,4812394.0,4521258.0,0.0
1582913737025,4843453.0,4536399.0,0.0
1582913737077,4862212.0,4546021.0,0.0
1582913737122,4847287.0,4546474.0,0.0
1582913737170,4831652.0,4555475.0,0.0
1582913737220,4824042.0,4571158.0,0.0
1582913737269,4819114.0,4579931.0,0.0
1582913737319,4830976.0,4599527.0,0.0
1582913737366,4900691.0,4644687.0,0.0
1582913737414,4932676.0,4681039.0,0.0
1582913737463,4940808.0,4665232.0,0.0
1582913737511,4915530.0,4636387.0,0.0
1582913737561,4882762.0,4610482.0,0.0
1582913737604,4857830.0,4593546.0,0.0
1582913737652,4857213.0,4603847.0,0.0
1582913737699,4873610.0,4623441.0,0.0
1582913737754,4890491.0,4665606.0,0.0
1582913737798,4926596.0,4693816.0,0.0
1582913737849,4942423.0,4697864.0,0.0
1582913737896,4960206.0,4734533.0,0.0
1582913737945,4967283.0,4752432.0,0.0
1582913737994,4946304.0,4708244.0,0.0
1582913738041,4906568.0,4662462.0,0.0
1582913738093,4884603.0,4646406.0,0.0
1582913738139,4884234.0,4653756.0,0.0
1582913738188,4954022.0,4711592.0,0.0
1582913738236,4975274.0,4736197.0,0.0
1582913738285,4985981.0,4771271.0,0.0
1582913738334,4997760.0,4770785.0,0.0
1582913738381,5008706.0,4769846.0,0.0
1582913738430,5016281.0,4769733.0,0.0
1582913738479,5018560.0,4736965.0,0.0
1582913738528,5009051.0,4709940.0,0.0
1582913738576,4945853.0,4650510.0,0.0
1582913738622,4926013.0,4618217.0,0.0
1582913738673,4937945.0,4629536.0,0.0
1582913738721,4947432.0,4641769.0,0.0
1582913738770,4931417.0,4650002.0,0.0
1582913738817,4911957.0,4648317.0,0.0
1582913738872,4906899.0,4653291.0,0.0
1582913738916,4904620.0,4659250.0,0.0
1582913738967,4916292.0,4645117.0,0.0
1582913739015,4937875.0,4619664.0,0.0
1582913739064,4926892.0,4603721.0,0.0
1582913739112,4904277.0,4598769.0,0.0
1582913739162,4885043.0,4589293.0,0.0
1582913739211,4870664.0,4577241.0,0.0
1582913739261,4867400.0,4582011.0,0.0
1582913739308,4877041.0,4591475.0,0.0
1582913739352,4887963.0,4603054.0,0.0
1582913739398,4918190.0,4625670.0,0.0
1582913739453,4938208.0,4628179.0,0.0
1582913739502,4934231.0,4592404.0,0.0
1582913739551,4885410.0,4543760.0,0.0
1582913739600,4836936.0,4519745.0,0.0
1582913739641,4819008.0,4522231.0,0.0
1582913739694,4814461.0,4534635.0,0.0
1582913739743,4812170.0,4546690.0,0.0
1582913739793,4835451.0,4559557.0,0.0
1582913739836,4889365.0,4587802.0,0.0
1582913739888,4899206.0,4604139.0,0.0
1582913739935,4900774.0,4602670.0,0.0
1582913739987,4875283.0,4578789.0,0.0
1582913740033,4854197.0,4534239.0,0.0
1582913740080,4846088.0,4523656.0,0.0
1582913740133,4851029.0,4538083.0,0.0
1582913740181,4847063.0,4548973.0,0.0
1582913740230,4878050.0,4573736.0,0.0
1582913740273,4892582.0,4571282.0,0.0
1582913740327,4911150.0,4596689.0,0.0
1582913740374,4928354.0,4617551.0,0.0
1582913740424,4923259.0,4624696.0,0.0
1582913740474,4903432.0,4623510.0,0.0
1582913740522,4890944.0,4612778.0,0.0
1582913740569,4879748.0,4589204.0,0.0
1582913740616,4911684.0,4585256.0,0.0
1582913740660,4921124.0,4582712.0,0.0
1582913740713,4920755.0,4578202.0,0.0
1582913740764,4906542.0,4576867.0,0.0
1582913740814,4888034.0,4573068.0,0.0
1582913740856,4884780.0,4584070.0,0.0
1582913740910,4901427.0,4610121.0,0.0
1582913740959,4940036.0,4660449.0,0.0
1582913741002,5005109.0,4722492.0,0.0
1582913741057,5054830.0,4772559.0,0.0
1582913741103,5098961.0,4819709.0,0.0
1582913741153,5150796.0,4877738.0,0.0
1582913741195,5154596.0,4886977.0,0.0
1582913741250,5113646.0,4850251.0,0.0
1582913741300,5083752.0,4825634.0,0.0
1582913741346,5061740.0,4806956.0,0.0
1582913741400,5065077.0,4797683.0,0.0
1582913741437,5109777.0,4822357.0,0.0
1582913741487,5149442.0,4843105.0,0.0
1582913741535,5193619.0,4862350.0,0.0
1582913741584,5172866.0,4829094.0,0.0
1582913741634,5152339.0,4809148.0,0.0
1582913741681,5139671.0,4789589.0,0.0
1582913741736,5135076.0,4794902.0,0.0
1582913741780,5147234.0,4825849.0,0.0
1582913741830,5175086.0,4863038.0,0.0
1582913741878,5210218.0,4901008.0,0.0
1582913741924,5220868.0,4899289.0,0.0
1582913741976,5225521.0,4905270.0,0.0
1582913742027,5221710.0,4903281.0,0.0
1582913742075,5198903.0,4882102.0,0.0
1582913742123,5180275.0,4848306.0,0.0
1582913742174,5165126.0,4827739.0,0.0
1582913742216,5152684.0,4819868.0,0.0
1582913742272,5204211.0,4864859.0,0.0
1582913742317,5255761.0,4921790.0,0.0
1582913742367,5269484.0,4956696.0,0.0
1582913742417,5270766.0,4958155.0,0.0
1582913742464,5279801.0,4955893.0,0.0
1582913742513,5279255.0,4946722.0,0.0
1582913742555,5279754.0,4941917.0,0.0
1582913742610,5290500.0,4920976.0,0.0
1582913742657,5310135.0,4927353.0,0.0
1582913742700,5351261.0,4973555.0,0.0
1582913742757,5363099.0,5040538.0,0.0
1582913742804,5379364.0,5072253.0,0.0
1582913742853,5384102.0,5082453.0,0.0
1582913742898,5377465.0,5074121.0,0.0
1582913742949,5362790.0,5049979.0,0.0
1582913743001,5341480.0,5031842.0,0.0
1582913743047,5326995.0,5019416.0,0.0
1582913743096,5343095.0,4991589.0,0.0
1582913743137,5346323.0,4965221.0,0.0
1582913743193,5346003.0,4961219.0,0.0
1582913743237,5339223.0,4947096.0,0.0
1582913743290,5330011.0,4936760.0,0.0
1582913743338,5319908.0,4926075.0,0.0
1582913743386,5331114.0,4948691.0,0.0
1582913743436,5347072.0,4971294.0,0.0
1582913743484,5382737.0,5021949.0,0.0
1582913743533,5433977.0,5081707.0,0.0
1582913743576,5487488.0,5069462.0,0.0
1582913743625,5478237.0,5045004.0,0.0
1582913743676,5450528.0,5010190.0,0.0
1582913743720,5422391.0,4980475.0,0.0
1582913743776,5396224.0,4980689.0,0.0
1582913743822,5388364.0,4993036.0,0.0
1582913743873,5388174.0,5006774.0,0.0
1582913743919,5409913.0,5027173.0,0.0
1582913743969,5453960.0,5070049.0,0.0
1582913744019,5468443.0,5101269.0,0.0
1582913744067,5452106.0,5068330.0,0.0
1582913744115,5435106.0,5024335.0,0.0
1582913744166,5425429.0,4987032.0,0.0
1582913744214,5421309.0,4980102.0,0.0
1582913744257,5445542.0,5016567.0,0.0
1582913744311,5472053.0,5069643.0,0.0
1582913744359,5512443.0,5131820.0,0.0
1582913744407,5525324.0,5146282.0,0.0
1582913744455,5517262.0,5126404.0,0.0
1582913744504,5499289.0,5098101.0,0.0
1582913744553,5463624.0,5075002.0,0.0
1582913744598,5447347.0,5051879.0,0.0
1582913744644,5435142.0,5023894.0,0.0
1582913744693,5432209.0,5019326.0,0.0
1582913744741,5438240.0,5033843.0,0.0
1582913744796,5478263.0,5089259.0,0.0
1582913744844,5489849.0,5096226.0,0.0
1582913744894,5462033.0,5076201.0,0.0
1582913744937,5460002.0,5069643.0,0.0
1582913744990,5458850.0,5057566.0,0.0
1582913745039,5458483.0,5059149.0,0.0
1582913745083,5474414.0,5039983.0,0.0
1582913745137,5476339.0,5031832.0,0.0
1582913745183,5498304.0,5065628.0,0.0
1582913745234,5505047.0,5064169.0,0.0
1582913745279,5509344.0,5072006.0,0.0
1582913745331,5502220.0,5070061.0,0.0
1582913745379,5474747.0,5052444.0,0.0
1582913745427,5456714.0,5049209.0,0.0
1582913745475,5440034.0,5047639.0,0.0
1582913745523,5431889.0,5043931.0,0.0
1582913745574,5432672.0,5012835.0,0.0
1582913745616,5463741.0,4998068.0,0.0
1582913745665,5470045.0,5005385.0,0.0
1582913745713,5454920.0,4995084.0,0.0
1582913745767,5426214.0,4978316.0,0.0
1582913745814,5409971.0,4967889.0,0.0
1582913745858,5411005.0,4972050.0,0.0
1582913745913,5425382.0,4997040.0,0.0
1582913745959,5424812.0,5014465.0,0.0
1582913746004,5415148.0,5042866.0,0.0
1582913746058,5414816.0,5000443.0,0.0
1582913746108,5395475.0,4944416.0,0.0
1582913746158,5402171.0,4937010.0,0.0
1582913746201,5392221.0,4936557.0,0.0
1582913746252,5381821.0,4939938.0,0.0
1582913746303,5368987.0,4951720.0,0.0
1582913746349,5366269.0,4951235.0,0.0
1582913746399,5379317.0,4958516.0,0.0
1582913746440,5433966.0,5005972.0,0.0
1582913746496,5440520.0,5030712.0,0.0
1582913746539,5433348.0,4989080.0,0.0
1582913746592,5404343.0,4936116.0,0.0
1582913746634,5382557.0,4906152.0,0.0
1582913746683,5368324.0,4898690.0,0.0
1582913746732,5369629.0,4915663.0,0.0
1582913746779,5382986.0,4944404.0,0.0
1582913746832,5403406.0,4981798.0,0.0
1582913746878,5416134.0,4973746.0,0.0
1582913746928,5418865.0,4955215.0,0.0
1582913746976,5409937.0,4943274.0,0.0
1582913747028,5392994.0,4927240.0,0.0
1582913747077,5365984.0,4897808.0,0.0
1582913747120,5337787.0,4863435.0,0.0
1582913747175,5296827.0,4835234.0,0.0
1582913747222,5292315.0,4844485.0,0.0
1582913747271,5341324.0,4882249.0,0.0
1582913747320,5344887.0,4907940.0,0.0
1582913747369,5342666.0,4903348.0,0.0
1582913747416,5326235.0,4890989.0,0.0
1582913747460,5318709.0,4874097.0,0.0
1582913747514,5302585.0,4830825.0,0.0
1582913747561,5287936.0,4816985.0,0.0
1582913747606,5277226.0,4817302.0,0.0
1582913747654,5316251.0,4859239.0,0.0
1582913747701,5327091.0,4869065.0,0.0
1582913747756,5335530.0,4859331.0,0.0
1582913747804,5345730.0,4867437.0,0.0
1582913747854,5334784.0,4870751.0,0.0
1582913747901,5312902.0,4857272.0,0.0
1582913747950,5289408.0,4853122.0,0.0
1582913747998,5270766.0,4819890.0,0.0
1582913748045,5246453.0,4791318.0,0.0
1582913748095,5252614.0,4804004.0,0.0
1582913748141,5248921.0,4823702.0,0.0
1582913748194,5259667.0,4826461.0,0.0
1582913748242,5255345.0,4809025.0,0.0
1582913748290,5238368.0,4800217.0,0.0
1582913748340,5231624.0,4809307.0,0.0
1582913748386,5233736.0,4824244.0,0.0
1582913748438,5239091.0,4812745.0,0.0
1582913748484,5254146.0,4797153.0,0.0
1582913748533,5263240.0,4779333.0,0.0
1582913748581,5273463.0,4789894.0,0.0
1582913748625,5268238.0,4800148.0,0.0
1582913748673,5249254.0,4802184.0,0.0
1582913748721,5220416.0,4789780.0,0.0
1582913748773,5201207.0,4792177.0,0.0
1582913748825,5190485.0,4787801.0,0.0
1582913748872,5190474.0,4784544.0,0.0
1582913748920,5216462.0,4781889.0,0.0
1582913748969,5186152.0,4759907.0,0.0
1582913749014,5162835.0,4745683.0,0.0
1582913749061,5136714.0,4724380.0,0.0
1582913749116,5128369.0,4715684.0,0.0
1582913749162,5128132.0,4732521.0,0.0
1582913749212,5132928.0,4742867.0,0.0
1582913749260,5146368.0,4767357.0,0.0
1582913749303,5197111.0,4818352.0,0.0
1582913749358,5250333.0,4816182.0,0.0
1582913749405,5236526.0,4792787.0,0.0
1582913749455,5209292.0,4780147.0,0.0
1582913749502,5182769.0,4761027.0,0.0
1582913749551,5150903.0,4745094.0,0.0
1582913749600,5128416.0,4750669.0,0.0
1582913749644,5121922.0,4745547.0,0.0
1582913749692,5126254.0,4748600.0,0.0
1582913749742,5185250.0,4795796.0,0.0
1582913749788,5205314.0,4821688.0,0.0
1582913749842,5193561.0,4811739.0,0.0
1582913749891,5138888.0,4758775.0,0.0
1582913749940,5091219.0,4699969.0,0.0
1582913749984,5060672.0,4671609.0,0.0
1582913750038,5063249.0,4680677.0,0.0
1582913750085,5086826.0,4712925.0,0.0
1582913750134,5129448.0,4754966.0,0.0
1582913750177,5157147.0,4751721.0,0.0
1582913750231,5162788.0,4765108.0,0.0
1582913750281,5164544.0,4779784.0,0.0
1582913750322,5149134.0,4771927.0,0.0
1582913750376,5116224.0,4748781.0,0.0
1582913750425,5075560.0,4700860.0,0.0
1582913750475,5024354.0,4654604.0,0.0
1582913750522,5018786.0,4651052.0,0.0
1582913750571,5062120.0,4696915.0,0.0
1582913750621,5064221.0,4718567.0,0.0
1582913750663,5057002.0,4711342.0,0.0
1582913750710,5036631.0,4687959.0,0.0
1582913750760,5025898.0,4679988.0,0.0
1582913750812,5028509.0,4689430.0,0.0
1582913750861,5039908.0,4680519.0,0.0
1582913750911,5015865.0,4634896.0,0.0
1582913750959,5027927.0,4643748.0,0.0
1582913751007,5001333.0,4614611.0,0.0
1582913751056,4987906.0,4609137.0,0.0
1582913751105,4962594.0,4591364.0,0.0
1582913751155,4927854.0,4573397.0,0.0
1582913751201,4896642.0,4565187.0,0.0
1582913751249,4880578.0,4563842.0,0.0
1582913751299,4862805.0,4561253.0,0.0
1582913751345,4887025.0,4568183.0,0.0
1582913751390,4906485.0,4550974.0,0.0
1582913751444,4881137.0,4527953.0,0.0
1582913751494,4862532.0,4507522.0,0.0
1582913751542,4834062.0,4489723.0,0.0
1582913751586,4830429.0,4490244.0,0.0
1582913751633,4829824.0,4496780.0,0.0
1582913751685,4835368.0,4511173.0,0.0
1582913751730,4860147.0,4541590.0,0.0
1582913751780,4868992.0,4546903.0,0.0
1582913751828,4862901.0,4526301.0,0.0
1582913751878,4851289.0,4509602.0,0.0
1582913751926,4816740.0,4463536.0,0.0
1582913751976,4773382.0,4433198.0,0.0
1582913752026,4737397.0,4419586.0,0.0
1582913752076,4717356.0,4414340.0,0.0
1582913752123,4705472.0,4413299.0,0.0
1582913752174,4726948.0,4430102.0,0.0
1582913752221,4760334.0,4451358.0,0.0
1582913752266,4752153.0,4456401.0,0.0
1582913752319,4729205.0,4437384.0,0.0
1582913752365,4713568.0,4426335.0,0.0
1582913752416,4705292.0,4397899.0,0.0
1582913752463,4682688.0,4356323.0,0.0
1582913752513,4669497.0,4347672.0,0.0
1582913752560,4685075.0,4377240.0,0.0
1582913752610,4748853.0,4406357.0,0.0
1582913752652,4780659.0,4428552.0,0.0
1582913752699,4771150.0,4428834.0,0.0
1582913752752,4740780.0,4426686.0,0.0
1582913752799,4715931.0,4419224.0,0.0
1582913752851,4701115.0,4424945.0,0.0
1582913752900,4684861.0,4419620.0,0.0
1582913752947,4652211.0,4369562.0,0.0
1582913752992,4658670.0,4365289.0,0.0
1582913753045,4661115.0,4369552.0,0.0
1582913753096,4657258.0,4369190.0,0.0
1582913753143,4645017.0,4356876.0,0.0
1582913753188,4634272.0,4345049.0,0.0
1582913753240,4631054.0,4345728.0,0.0
1582913753287,4646656.0,4364700.0,0.0
1582913753337,4662790.0,4382996.0,0.0
1582913753385,4712085.0,4425815.0,0.0
1582913753429,4749732.0,4409782.0,0.0
1582913753476,4732898.0,4372740.0,0.0
1582913753525,4689181.0,4335845.0,0.0
1582913753574,4650205.0,4319087.0,0.0
1582913753629,4623159.0,4314485.0,0.0
1582913753671,4605422.0,4323555.0,0.0
1582913753719,4592352.0,4328598.0,0.0
1582913753775,4595438.0,4333923.0,0.0
1582913753822,4621130.0,4345626.0,0.0
1582913753867,4632823.0,4357079.0,0.0
1582913753919,4622363.0,4342131.0,0.0
1582913753968,4584134.0,4294292.0,0.0
1582913754013,4555652.0,4256503.0,0.0
1582913754065,4550440.0,4247129.0,0.0
1582913754115,4574577.0,4272967.0,0.0
1582913754162,4600211.0,4295060.0,0.0
1582913754212,4637075.0,4322537.0,0.0
1582913754253,4638094.0,4308888.0,0.0
1582913754310,4647106.0,4322616.0,0.0
1582913754357,4662766.0,4338830.0,0.0
1582913754404,4668714.0,4352918.0,0.0
1582913754456,4648603.0,4345988.0,0.0
1582913754502,4613674.0,4304932.0,0.0
1582913754549,4584503.0,4272796.0,0.0
1582913754600,4589075.0,4273611.0,0.0
1582913754643,4640221.0,4317425.0,0.0
1582913754691,4675101.0,4342844.0,0.0
1582913754738,4671848.0,4344202.0,0.0
1582913754795,4668524.0,4342731.0,0.0
1582913754842,4676147.0,4340175.0,0.0
1582913754889,4686666.0,4359285.0,0.0
1582913754941,4721322.0,4396497.0,0.0
1582913754989,4756059.0,4397933.0,0.0
1582913755038,4778997.0,4387315.0,0.0
1582913755085,4774261.0,4368522.0,0.0
1582913755133,4764857.0,4370106.0,0.0
1582913755183,4726201.0,4353225.0,0.0
1582913755230,4697113.0,4348848.0,0.0
1582913755281,4680136.0,4354998.0,0.0
1582913755329,4661817.0,4359860.0,0.0
1582913755378,4654658.0,4361128.0,0.0
1582913755425,4699737.0,4399244.0,0.0
1582913755469,4735545.0,4414600.0,0.0
1582913755523,4713130.0,4370399.0,0.0
1582913755570,4672550.0,4322366.0,0.0
1582913755620,4651547.0,4299392.0,0.0
1582913755661,4648057.0,4302126.0,0.0
1582913755712,4675315.0,4325636.0,0.0
1582913755758,4676953.0,4332113.0,0.0
1582913755811,4715123.0,4370027.0,0.0
1582913755856,4750338.0,4371756.0,0.0
1582913755911,4766295.0,4382023.0,0.0
1582913755960,4761817.0,4390209.0,0.0
1582913756008,4750184.0,4382612.0,0.0
1582913756051,4703667.0,4342052.0,0.0
1582913756104,4654705.0,4311320.0,0.0
1582913756151,4627208.0,4301324.0,0.0
1582913756202,4634724.0,4315266.0,0.0
1582913756251,4693516.0,4368217.0,0.0
1582913756300,4711776.0,4382000.0,0.0
1582913756347,4716584.0,4381515.0,0.0
1582913756393,4706030.0,4374810.0,0.0
1582913756444,4704665.0,4373757.0,0.0
1582913756491,4716667.0,4383481.0,0.0
1582913756542,4726688.0,4371382.0,0.0
1582913756592,4744413.0,4361411.0,0.0
1582913756636,4812763.0,4388965.0,0.0
1582913756681,4892202.0,4428834.0,0.0
1582913756732,4909026.0,4451053.0,0.0
1582913756779,4900891.0,4458528.0,0.0
1582913756833,4876778.0,4456762.0,0.0
1582913756878,4854636.0,4453235.0,0.0
1582913756928,4834466.0,4453518.0,0.0
1582913756976,4816966.0,4451789.0,0.0
1582913757023,4845329.0,4466283.0,0.0
1582913757078,4847869.0,4436987.0,0.0
1582913757124,4821678.0,4406525.0,0.0
1582913757171,4782250.0,4382746.0,0.0
1582913757222,4750944.0,4364712.0,0.0
1582913757271,4749126.0,4361591.0,0.0
1582913757317,4757651.0,4373361.0,0.0
1582913757369,4775650.0,4387405.0,0.0
1582913757414,4811884.0,4417924.0,0.0
1582913757458,4850862.0,4437540.0,0.0
1582913757513,4860940.0,4437156.0,0.0
1582913757562,4860633.0,4427648.0,0.0
1582913757606,4824765.0,4388175.0,0.0
1582913757655,4769286.0,4358087.0,0.0
1582913757702,4732838.0,4348848.0,0.0
1582913757754,4716964.0,4348531.0,0.0
1582913757801,4710933.0,4353507.0,0.0
1582913757851,4764774.0,4390944.0,0.0
1582913757895,4784162.0,4410924.0,0.0
1582913757950,4800676.0,4423192.0,0.0
1582913757998,4786572.0,4414520.0,0.0
1582913758048,4777501.0,4410743.0,0.0
1582913758093,4777085.0,4400442.0,0.0
1582913758144,4776232.0,4376685.0,0.0
1582913758194,4759229.0,4355905.0,0.0
1582913758242,4782786.0,4381864.0,0.0
1582913758291,4804202.0,4395670.0,0.0
1582913758334,4806150.0,4397062.0,0.0
1582913758387,4810982.0,4405552.0,0.0
1582913758433,4780851.0,4388955.0,0.0
1582913758484,4755526.0,4389339.0,0.0
1582913758534,4741386.0,4394518.0,0.0
1582913758577,4727603.0,4392143.0,0.0
1582913758630,4731769.0,4393953.0,0.0
1582913758673,4792354.0,4410699.0,0.0
1582913758721,4821002.0,4433505.0,0.0
1582913758773,4824622.0,4457476.0,0.0
1582913758824,4812680.0,4449493.0,0.0
1582913758872,4815304.0,4439068.0,0.0
1582913758918,4815458.0,4434555.0,0.0
1582913758970,4826890.0,4444879.0,0.0
1582913759019,4837838.0,4458776.0,0.0
1582913759067,4872825.0,4487078.0,0.0
1582913759118,4908514.0,4501674.0,0.0
1582913759164,4921491.0,4473374.0,0.0
1582913759215,4884723.0,4434263.0,0.0
1582913759261,4825657.0,4397027.0,0.0
1582913759313,4794645.0,4382837.0,0.0
1582913759354,4767897.0,4380836.0,0.0
1582913759408,4750907.0,4381005.0,0.0
1582913759458,4739035.0,4385755.0,0.0
1582913759498,4790016.0,4417030.0,0.0
1582913759555,4817559.0,4440401.0,0.0
1582913759601,4827010.0,4452230.0,0.0
1582913759646,4806483.0,4436331.0,0.0
1582913759694,4804334.0,4408527.0,0.0
1582913759742,4788211.0,4375397.0,0.0
1582913759798,4780635.0,4374243.0,0.0
1582913759845,4799323.0,4399075.0,0.0
1582913759894,4843157.0,4425136.0,0.0
1582913759938,4863434.0,4439385.0,0.0
1582913759991,4867780.0,4443838.0,0.0
1582913760036,4851372.0,4437349.0,0.0
1582913760082,4833516.0,4434216.0,0.0
1582913760135,4811575.0,4433086.0,0.0
1582913760185,4806649.0,4438265.0,0.0
1582913760235,4797388.0,4447197.0,0.0
1582913760282,4822071.0,4452128.0,0.0
1582913760332,4854090.0,4474821.0,0.0
1582913760374,4864633.0,4474934.0,0.0
1582913760427,4868812.0,4470672.0,0.0
1582913760476,4865582.0,4467323.0,0.0
1582913760525,4875545.0,4477082.0,0.0
1582913760575,4864550.0,4486907.0,0.0
1582913760617,4877457.0,4504049.0,0.0
1582913760667,4910615.0,4538118.0,0.0
1582913760716,4962820.0,4557045.0,0.0
1582913760761,4999671.0,4533877.0,0.0
1582913760816,4996014.0,4529298.0,0.0
1582913760864,4970393.0,4524515.0,0.0
1582913760914,4934504.0,4511274.0,0.0
1582913760962,4908680.0,4509736.0,0.0
1582913761010,4892236.0,4510935.0,0.0
1582913761057,4890148.0,4510878.0,0.0
1582913761101,4926845.0,4550861.0,0.0
1582913761157,4952477.0,4582182.0,0.0
1582913761200,4960480.0,4591555.0,0.0
1582913761254,4951351.0,4555316.0,0.0
1582913761296,4938491.0,4520525.0,0.0
1582913761350,4918867.0,4504411.0,0.0
1582913761400,4919509.0,4514293.0,0.0
1582913761448,4920305.0,4516758.0,0.0
1582913761496,4913892.0,4510494.0,0.0
1582913761544,4927985.0,4519856.0,0.0
1582913761594,4956110.0,4532961.0,0.0
1582913761636,4988166.0,4550274.0,0.0
1582913761684,4993188.0,4565357.0,0.0
1582913761735,4982538.0,4570298.0,0.0
1582913761782,4971392.0,4564124.0,0.0
1582913761836,4954438.0,4541657.0,0.0
1582913761884,4980676.0,4554875.0,0.0
1582913761934,4998519.0,4570038.0,0.0
1582913761975,5020164.0,4601900.0,0.0
1582913762026,5008669.0,4593194.0,0.0
1582913762079,5027238.0,4595592.0,0.0
1582913762128,5059722.0,4626371.0,0.0
1582913762177,5078291.0,4655758.0,0.0
1582913762217,5096516.0,4689452.0,0.0
1582913762273,5135505.0,4717685.0,0.0
1582913762316,5163997.0,4698983.0,0.0
1582913762366,5151402.0,4682475.0,0.0
1582913762416,5140087.0,4670626.0,0.0
1582913762463,5123573.0,4660268.0,0.0
1582913762515,5098581.0,4646406.0,0.0
1582913762562,5082244.0,4647424.0,0.0
1582913762613,5067748.0,4649041.0,0.0
1582913762655,5070028.0,4652330.0,0.0
1582913762703,5113600.0,4690255.0,0.0
1582913762753,5129674.0,4707882.0,0.0
1582913762800,5127976.0,4684285.0,0.0
1582913762856,5105467.0,4631911.0,0.0
1582913762902,5080605.0,4604367.0,0.0
1582913762952,5069326.0,4603133.0,0.0
1582913762999,5077341.0,4626539.0,0.0
1582913763049,5091232.0,4656570.0,0.0
1582913763099,5117922.0,4678643.0,0.0
1582913763140,5149134.0,4676664.0,0.0
1582913763196,5135944.0,4650567.0,0.0
1582913763237,5109324.0,4628959.0,0.0
1582913763293,5084785.0,4604944.0,0.0
1582913763339,5055020.0,4576461.0,0.0
1582913763384,5028093.0,4561568.0,0.0
1582913763439,4998566.0,4557001.0,0.0
1582913763489,4993627.0,4556582.0,0.0
1582913763548,5041130.0,4600307.0,0.0
1582913763594,5046698.0,4605689.0,0.0
1582913763626,5039456.0,4600793.0,0.0
1582913763677,5027950.0,4595445.0,0.0
1582913763723,5034504.0,4599594.0,0.0
1582913763773,5032249.0,4586613.0,0.0
1582913763824,5026395.0,4566928.0,0.0
1582913763876,5030254.0,4572672.0,0.0
1582913763918,5095268.0,4632555.0,0.0
1582913763972,5108055.0,4638004.0,0.0
1582913764020,5101881.0,4630272.0,0.0
1582913764069,5090602.0,4633041.0,0.0
1582913764119,5080759.0,4633402.0,0.0
1582913764164,5068317.0,4636444.0,0.0
1582913764218,5056076.0,4643059.0,0.0
1582913764262,5052100.0,4615866.0,0.0
1582913764313,5070965.0,4599505.0,0.0
1582913764354,5063972.0,4599639.0,0.0
1582913764404,5049452.0,4586172.0,0.0
1582913764457,5022169.0,4571904.0,0.0
1582913764501,5007993.0,4557667.0,0.0
1582913764556,4994269.0,4555272.0,0.0
1582913764601,5000740.0,4568907.0,0.0
1582913764647,4998199.0,4594992.0,0.0
1582913764703,5068970.0,4694314.0,0.0
1582913764742,5159891.0,4806493.0,0.0
1582913764791,5136561.0,4771384.0,0.0
1582913764839,5098461.0,4741510.0,0.0
1582913764890,5089130.0,4726099.0,0.0
1582913764943,5086909.0,4697977.0,0.0
1582913764992,5078385.0,4684420.0,0.0
1582913765041,5061408.0,4662745.0,0.0
1582913765089,5070109.0,4663220.0,0.0
1582913765139,5099626.0,4688038.0,0.0
1582913765182,5099400.0,4687971.0,0.0
1582913765236,5088157.0,4671000.0,0.0
1582913765281,5078824.0,4623872.0,0.0
1582913765333,5088098.0,4635314.0,0.0
1582913765380,5058583.0,4623644.0,0.0
1582913765429,5051483.0,4636365.0,0.0
1582913765479,5066370.0,4664927.0,0.0
1582913765521,5097798.0,4693002.0,0.0
1582913765578,5107912.0,4670852.0,0.0
1582913765624,5107342.0,4663773.0,0.0
1582913765668,5092573.0,4652840.0,0.0
1582913765715,5057051.0,4613593.0,0.0
1582913765763,5001986.0,4551799.0,0.0
1582913765812,4949687.0,4510516.0,0.0
1582913765860,4913595.0,4492178.0,0.0
1582913765910,4912160.0,4505248.0,0.0
1582913765959,4959234.0,4560924.0,0.0
1582913766006,4953619.0,4561954.0,0.0
1582913766053,4952204.0,4563208.0,0.0
1582913766102,4939763.0,4541340.0,0.0
1582913766153,4937209.0,4529456.0,0.0
1582913766200,4921561.0,4485290.0,0.0
1582913766256,4909083.0,4474888.0,0.0
1582913766302,4920802.0,4514259.0,0.0
1582913766346,4982728.0,4605214.0,0.0
1582913766400,5032130.0,4632498.0,0.0
1582913766449,5053478.0,4647017.0,0.0
1582913766499,5053928.0,4668320.0,0.0
1582913766540,5038304.0,4641204.0,0.0
1582913766596,5007637.0,4625759.0,0.0
1582913766642,4985864.0,4624199.0,0.0
1582913766686,4975795.0,4580486.0,0.0
1582913766735,4963639.0,4523713.0,0.0
1582913766783,4968482.0,4548837.0,0.0
1582913766838,4959436.0,4568795.0,0.0
1582913766882,4974169.0,4580349.0,0.0
1582913766936,4968066.0,4551267.0,0.0
1582913766983,4963283.0,4552342.0,0.0
1582913767027,4977386.0,4576833.0,0.0
1582913767080,5013408.0,4629445.0,0.0
1582913767128,5049642.0,4688707.0,0.0
