time,value,value2,value3
1586177581807,6159671.0,6260697.0,0.0
1586177581858,6126903.0,6212726.0,0.0
1586177581905,6213918.0,6293083.0,0.0
1586177581954,6112692.0,6157901.0,0.0
1586177582002,6132674.0,6172379.0,0.0
1586177582051,6185880.0,6266816.0,0.0
1586177582106,6295101.0,6494500.0,0.0
1586177582144,6321644.0,6428964.0,0.0
1586177582196,6194478.0,6248141.0,0.0
1586177582256,5979508.0,5967552.0,0.0
1586177582412,5825518.0,5687421.0,0.0
1586177582413,5806002.0,5554148.0,0.0
1586177582414,5930774.0,5615437.0,0.0
1586177582446,5930994.0,5570214.0,0.0
1586177582485,5967348.0,5534457.0,0.0
1586177582534,5945635.0,5473387.0,0.0
1586177582584,5734435.0,5336438.0,0.0
1586177582637,5654088.0,5277465.0,0.0
1586177582684,5949111.0,5555600.0,0.0
1586177582727,6057216.0,5660251.0,0.0
1586177582778,6037724.0,5642811.0,0.0
1586177582824,6032651.0,5582898.0,0.0
1586177582873,5946407.0,5389088.0,0.0
1586177582922,5876844.0,5257074.0,0.0
1586177582971,5819438.0,5157600.0,0.0
1586177583022,5817657.0,5135938.0,0.0
1586177583067,5854011.0,5161456.0,0.0
1586177583118,5907990.0,5202338.0,0.0
1586177583168,5968785.0,5260637.0,0.0
1586177583216,6033068.0,5288557.0,0.0
1586177583263,6044994.0,5265444.0,0.0
1586177583312,6004636.0,5228976.0,0.0
1586177583363,5932676.0,5180281.0,0.0
1586177583409,5791461.0,5024557.0,0.0
1586177583458,5657710.0,4863846.0,0.0
1586177583509,5569699.0,4764701.0,0.0
1586177583559,5518336.0,4715232.0,0.0
1586177583611,5483369.0,4674528.0,0.0
1586177583650,5459493.0,4631760.0,0.0
1586177583701,5428850.0,4582939.0,0.0
1586177583748,5367810.0,4512137.0,0.0
1586177583801,5328520.0,4463291.0,0.0
1586177583846,5335053.0,4472957.0,0.0
1586177583898,5365857.0,4496427.0,0.0
1586177583949,5358881.0,4547270.0,0.0
1586177583995,5357751.0,4503970.0,0.0
1586177584045,5325768.0,4404852.0,0.0
1586177584092,5401352.0,4371842.0,0.0
1586177584143,5417330.0,4346848.0,0.0
1586177584191,5417134.0,4349010.0,0.0
1586177584233,5463130.0,4380226.0,0.0
1586177584290,5388689.0,4342724.0,0.0
1586177584334,5355270.0,4360445.0,0.0
1586177584380,5344953.0,4381725.0,0.0
1586177584432,5338910.0,4404217.0,0.0
1586177584483,5308857.0,4369348.0,0.0
1586177584524,5162310.0,4236930.0,0.0
1586177584579,5076446.0,4164080.0,0.0
1586177584629,5095889.0,4089739.0,0.0
1586177584672,5018575.0,4089168.0,0.0
1586177584725,4869510.0,4085033.0,0.0
1586177584772,4877371.0,3436747.0,0.0
1586177584822,4930871.0,4107769.0,0.0
1586177584868,4971438.0,4151661.0,0.0
1586177584917,5232611.0,4343127.0,0.0
1586177584967,5547923.0,4480065.0,0.0
1586177585010,5720152.0,4554577.0,0.0
1586177585060,5820126.0,4551948.0,0.0
1586177585122,5845623.0,4496930.0,0.0
1586177585163,5916488.0,4481383.0,0.0
1586177585211,5894861.0,4475605.0,0.0
1586177585256,5607514.0,4303741.0,0.0
1586177585306,5355859.0,4243600.0,0.0
1586177585348,5229996.0,4208249.0,0.0
1586177585399,5165197.0,4190642.0,0.0
1586177585446,5138888.0,4305204.0,0.0
1586177585498,5106820.0,4305099.0,0.0
1586177585548,5094697.0,4321426.0,0.0
1586177585592,5220857.0,4407296.0,0.0
1586177585645,5339941.0,4407641.0,0.0
1586177585695,5293934.0,4325115.0,0.0
1586177585743,5281628.0,4292924.0,0.0
1586177585786,5271446.0,4270646.0,0.0
1586177585840,5341122.0,4284448.0,0.0
1586177585892,5389488.0,4271357.0,0.0
1586177585936,5364702.0,4245410.0,0.0
1586177585985,5179418.0,4180664.0,0.0
1586177586034,4994785.0,4084778.0,0.0
1586177586083,4798545.0,3917017.0,0.0
1586177586127,4587899.0,3757029.0,0.0
1586177586181,4443760.0,3653814.0,0.0
1586177586228,4351130.0,3596513.0,0.0
1586177586276,4299436.0,3572000.0,0.0
1586177586321,4281171.0,3569466.0,0.0
1586177586371,4262393.0,3570342.0,0.0
1586177586421,4218571.0,3556221.0,0.0
1586177586469,4147226.0,3517541.0,0.0
1586177586513,4074125.0,3484330.0,0.0
1586177586567,3991627.0,3437787.0,0.0
1586177586615,3827923.0,3325305.0,0.0
1586177586664,3687713.0,3239552.0,0.0
1586177586707,3606788.0,3204723.0,0.0
1586177586758,3447218.0,3202334.0,0.0
1586177586813,3441393.0,3215559.0,0.0
1586177586859,3443464.0,3230614.0,0.0
1586177586903,3436999.0,3237162.0,0.0
1586177586952,3424574.0,3222936.0,0.0
1586177587005,3400269.0,3211629.0,0.0
1586177587047,3389943.0,3215953.0,0.0
1586177587104,3356828.0,3179641.0,0.0
1586177587158,3264290.0,3084785.0,0.0
1586177587199,3218604.0,3031596.0,0.0
1586177587241,3185265.0,3018526.0,0.0
1586177587289,3153718.0,2966981.0,0.0
1586177587338,3164911.0,2984695.0,0.0
1586177587389,3160385.0,2984821.0,0.0
1586177587436,3152922.0,2978328.0,0.0
1586177587488,3142979.0,2972442.0,0.0
1586177587538,3153840.0,2983879.0,0.0
1586177587587,3146662.0,2952626.0,0.0
1586177587631,3004938.0,2819399.0,0.0
1586177587680,2820309.0,2751337.0,0.0
1586177587728,2776480.0,2780359.0,0.0
1586177587781,2774564.0,2790747.0,0.0
1586177587828,2798776.0,2836831.0,0.0
1586177587878,2838505.0,2881294.0,0.0
1586177587925,2842711.0,2915376.0,0.0
1586177587973,2879024.0,2953406.0,0.0
1586177588023,2925925.0,3002372.0,0.0
1586177588073,2964756.0,3057952.0,0.0
1586177588124,2947592.0,3059809.0,0.0
1586177588169,2884226.0,2994480.0,0.0
1586177588216,2860936.0,2952305.0,0.0
1586177588266,2867677.0,2950909.0,0.0
1586177588308,2888762.0,2974805.0,0.0
1586177588362,2916242.0,3003627.0,0.0
1586177588411,2930860.0,3016177.0,0.0
1586177588454,2928942.0,3015814.0,0.0
1586177588507,2938327.0,3015866.0,0.0
1586177588556,2958014.0,3026261.0,0.0
1586177588605,2930230.0,2989480.0,0.0
1586177588651,2867882.0,2908273.0,0.0
1586177588702,2853743.0,2881316.0,0.0
1586177588750,2875274.0,2895530.0,0.0
1586177588800,2915748.0,2926145.0,0.0
1586177588846,2951753.0,2958533.0,0.0
1586177588890,2976002.0,2980498.0,0.0
1586177588945,2986691.0,2995017.0,0.0
1586177588989,2997957.0,3009387.0,0.0
1586177589038,3012315.0,3023177.0,0.0
1586177589086,3007981.0,3011496.0,0.0
1586177589138,2927685.0,2931086.0,0.0
1586177589182,2887722.0,2885989.0,0.0
1586177589232,2892726.0,2889565.0,0.0
1586177589284,2915338.0,2915846.0,0.0
1586177589333,2950016.0,2946458.0,0.0
1586177589382,2972058.0,2968051.0,0.0
1586177589429,2981065.0,2980557.0,0.0
1586177589478,2982180.0,2988454.0,0.0
1586177589523,2998497.0,3004231.0,0.0
1586177589568,3004834.0,3007567.0,0.0
1586177589628,2935033.0,2939229.0,0.0
1586177589674,2884376.0,2886272.0,0.0
1586177589723,2886176.0,2883909.0,0.0
1586177589764,2915612.0,2911022.0,0.0
1586177589816,2949530.0,2942646.0,0.0
1586177589866,2976056.0,2975534.0,0.0
1586177589915,3000899.0,2993857.0,0.0
1586177589964,3029847.0,3016082.0,0.0
1586177590010,3062479.0,3048766.0,0.0
1586177590061,3102823.0,3076140.0,0.0
1586177590112,3075626.0,3038409.0,0.0
1586177590150,3027206.0,2986977.0,0.0
1586177590205,3019520.0,2980437.0,0.0
1586177590253,3024859.0,2991404.0,0.0
1586177590302,3044595.0,3021580.0,0.0
1586177590350,3076658.0,3047281.0,0.0
1586177590401,3133395.0,3078117.0,0.0
1586177590447,3212194.0,3122641.0,0.0
1586177590492,3234025.0,3146142.0,0.0
1586177590544,3265972.0,3181102.0,0.0
1586177590593,3221178.0,3143342.0,0.0
1586177590645,3144823.0,3086254.0,0.0
1586177590685,3076906.0,3081937.0,0.0
1586177590734,3064533.0,3115969.0,0.0
1586177590784,3098006.0,3165297.0,0.0
1586177590836,3118167.0,3214896.0,0.0
1586177590883,3123785.0,3271218.0,0.0
1586177590932,3154440.0,3309568.0,0.0
1586177590982,3216115.0,3328745.0,0.0
1586177591079,3257226.0,3357976.0,0.0
1586177591084,3275861.0,3357797.0,0.0
1586177591177,3190534.0,3307345.0,0.0
1586177591177,3146130.0,3277192.0,0.0
1586177591225,3140327.0,3290969.0,0.0
1586177591274,3179966.0,3321559.0,0.0
1586177591319,3229844.0,3335759.0,0.0
1586177591364,3266588.0,3345781.0,0.0
1586177591412,3286907.0,3354000.0,0.0
1586177591467,3311319.0,3362708.0,0.0
1586177591518,3325704.0,3372442.0,0.0
1586177591564,3312893.0,3349542.0,0.0
1586177591631,3261852.0,3287588.0,0.0
1586177591654,3255877.0,3269308.0,0.0
1586177591710,3272850.0,3280833.0,0.0
1586177591755,3306630.0,3306691.0,0.0
1586177591806,3337325.0,3334525.0,0.0
1586177591854,3345003.0,3336033.0,0.0
1586177591903,3341316.0,3328136.0,0.0
1586177591950,3359971.0,3345759.0,0.0
1586177592001,3390782.0,3366007.0,0.0
1586177592048,3369758.0,3338284.0,0.0
1586177592102,3295776.0,3253979.0,0.0
1586177592151,3254324.0,3201217.0,0.0
1586177592195,3255712.0,3183177.0,0.0
1586177592242,3270926.0,3176139.0,0.0
1586177592288,3285252.0,3175165.0,0.0
1586177592335,3296851.0,3184223.0,0.0
1586177592388,3289673.0,3208988.0,0.0
1586177592441,3263809.0,3225640.0,0.0
1586177592485,3255870.0,3223121.0,0.0
1586177592533,3212371.0,3204924.0,0.0
1586177592577,3127174.0,3162942.0,0.0
1586177592624,3075872.0,3169852.0,0.0
1586177592676,3076563.0,3206493.0,0.0
1586177592736,3106539.0,3268433.0,0.0
1586177592800,3165013.0,3323312.0,0.0
1586177592840,3222144.0,3355924.0,0.0
1586177592875,3261051.0,3378854.0,0.0
1586177592922,3298842.0,3401102.0,0.0
1586177592972,3341533.0,3429471.0,0.0
1586177593016,3361477.0,3437667.0,0.0
1586177593064,3313659.0,3376603.0,0.0
1586177593119,3279597.0,3339593.0,0.0
1586177593168,3289350.0,3353027.0,0.0
1586177593215,3316691.0,3385847.0,0.0
1586177593256,3351204.0,3420123.0,0.0
1586177593312,3372515.0,3442147.0,0.0
1586177593355,3388968.0,3449496.0,0.0
1586177593408,3404231.0,3462885.0,0.0
1586177593451,3414290.0,3486915.0,0.0
1586177593505,3435320.0,3518116.0,0.0
1586177593555,3396030.0,3465173.0,0.0
1586177593595,3345517.0,3400523.0,0.0
1586177593648,3338926.0,3387727.0,0.0
1586177593697,3358171.0,3404950.0,0.0
1586177593749,3388462.0,3433795.0,0.0
1586177593798,3412709.0,3456658.0,0.0
1586177593840,3421626.0,3470189.0,0.0
1586177593895,3433439.0,3486573.0,0.0
1586177593936,3450500.0,3506086.0,0.0
1586177593992,3474679.0,3532076.0,0.0
1586177594040,3477890.0,3532255.0,0.0
1586177594082,3419444.0,3440973.0,0.0
1586177594131,3379661.0,3381946.0,0.0
1586177594181,3380981.0,3371513.0,0.0
1586177594229,3400773.0,3382302.0,0.0
1586177594275,3428047.0,3404578.0,0.0
1586177594328,3440585.0,3415190.0,0.0
1586177594379,3451233.0,3423126.0,0.0
1586177594429,3462395.0,3435548.0,0.0
1586177594477,3479450.0,3456160.0,0.0
1586177594519,3500891.0,3478972.0,0.0
1586177594573,3503095.0,3468875.0,0.0
1586177594619,3442322.0,3367456.0,0.0
1586177594672,3401110.0,3307062.0,0.0
1586177594721,3397741.0,3305851.0,0.0
1586177594761,3412605.0,3323773.0,0.0
1586177594818,3433856.0,3350753.0,0.0
1586177594859,3448673.0,3364640.0,0.0
1586177594913,3455599.0,3371030.0,0.0
1586177594960,3465597.0,3387696.0,0.0
1586177595010,3474509.0,3433439.0,0.0
1586177595060,3499392.0,3474238.0,0.0
1586177595102,3532838.0,3499688.0,0.0
1586177595155,3496929.0,3427271.0,0.0
1586177595203,3436730.0,3321961.0,0.0
1586177595253,3414885.0,3285818.0,0.0
1586177595300,3419217.0,3290105.0,0.0
1586177595348,3434904.0,3311045.0,0.0
1586177595399,3448529.0,3327020.0,0.0
1586177595440,3456570.0,3332482.0,0.0
1586177595495,3462087.0,3338500.0,0.0
1586177595540,3475801.0,3351332.0,0.0
1586177595592,3492843.0,3371396.0,0.0
1586177595643,3509699.0,3398901.0,0.0
1586177595684,3529451.0,3420956.0,0.0
1586177595735,3537621.0,3425206.0,0.0
1586177595784,3470764.0,3325214.0,0.0
1586177595829,3415466.0,3253697.0,0.0
1586177595877,3402682.0,3246132.0,0.0
1586177595925,3411695.0,3263691.0,0.0
1586177595982,3426683.0,3289059.0,0.0
1586177596021,3437505.0,3304112.0,0.0
1586177596071,3441200.0,3309568.0,0.0
1586177596119,3444931.0,3318334.0,0.0
1586177596173,3461552.0,3338217.0,0.0
1586177596222,3477664.0,3362143.0,0.0
1586177596271,3498359.0,3387950.0,0.0
1586177596321,3516761.0,3410909.0,0.0
1586177596361,3536595.0,3432815.0,0.0
1586177596411,3551557.0,3450195.0,0.0
1586177596464,3488503.0,3363549.0,0.0
1586177596512,3423865.0,3284971.0,0.0
1586177596563,3403121.0,3270751.0,0.0
1586177596607,3407727.0,3283858.0,0.0
1586177596652,3421612.0,3307515.0,0.0
1586177596704,3432159.0,3324434.0,0.0
1586177596751,3436115.0,3332646.0,0.0
1586177596799,3444252.0,3331323.0,0.0
1586177596848,3454189.0,3339347.0,0.0
1586177596898,3465851.0,3360926.0,0.0
1586177596947,3480147.0,3388915.0,0.0
1586177596999,3496580.0,3417797.0,0.0
1586177597041,3514215.0,3442816.0,0.0
1586177597096,3531749.0,3467946.0,0.0
1586177597142,3548251.0,3496151.0,0.0
1586177597186,3516761.0,3452779.0,0.0
1586177597242,3437025.0,3358429.0,0.0
1586177597284,3395464.0,3322770.0,0.0
1586177597338,3387914.0,3325021.0,0.0
1586177597385,3400021.0,3346592.0,0.0
1586177597426,3413585.0,3369441.0,0.0
1586177597477,3416356.0,3375095.0,0.0
1586177597522,3416645.0,3379651.0,0.0
1586177597572,3421297.0,3392028.0,0.0
1586177597624,3436251.0,3409765.0,0.0
1586177597678,3452300.0,3434806.0,0.0
1586177597726,3471114.0,3456993.0,0.0
1586177597767,3489907.0,3478964.0,0.0
1586177597824,3507502.0,3501322.0,0.0
1586177597864,3523393.0,3523390.0,0.0
1586177597920,3541359.0,3543891.0,0.0
1586177597963,3548092.0,3550118.0,0.0
1586177598010,3475173.0,3462832.0,0.0
1586177598066,3413353.0,3393493.0,0.0
1586177598108,3392629.0,3380238.0,0.0
1586177598162,3400931.0,3395833.0,0.0
1586177598204,3419292.0,3423490.0,0.0
1586177598259,3427397.0,3434463.0,0.0
1586177598304,3421525.0,3434398.0,0.0
1586177598358,3423337.0,3437793.0,0.0
1586177598401,3430605.0,3453352.0,0.0
1586177598447,3445136.0,3473948.0,0.0
1586177598502,3464531.0,3497786.0,0.0
1586177598543,3481880.0,3523390.0,0.0
1586177598598,3500775.0,3546819.0,0.0
1586177598645,3518841.0,3569489.0,0.0
1586177598692,3534425.0,3587730.0,0.0
1586177598742,3534583.0,3587953.0,0.0
1586177598792,3456249.0,3500312.0,0.0
1586177598841,3396146.0,3433112.0,0.0
1586177598882,3376314.0,3418034.0,0.0
1586177598938,3382022.0,3434337.0,0.0
1586177598985,3395961.0,3455195.0,0.0
1586177599032,3405693.0,3465665.0,0.0
1586177599085,3404682.0,3468257.0,0.0
1586177599127,3405086.0,3476475.0,0.0
1586177599181,3407632.0,3499954.0,0.0
1586177599224,3416897.0,3534738.0,0.0
1586177599278,3423412.0,3567973.0,0.0
1586177599324,3431948.0,3595554.0,0.0
1586177599372,3448742.0,3626510.0,0.0
1586177599421,3462081.0,3653014.0,0.0
1586177599472,3478936.0,3674546.0,0.0
1586177599521,3490173.0,3678486.0,0.0
1586177599563,3426992.0,3587596.0,0.0
1586177599620,3368937.0,3509518.0,0.0
1586177599662,3352888.0,3477946.0,0.0
1586177599710,3356160.0,3473481.0,0.0
1586177599757,3372515.0,3480897.0,0.0
1586177599803,3382972.0,3487985.0,0.0
1586177599861,3385971.0,3482116.0,0.0
1586177599906,3387087.0,3476349.0,0.0
1586177599956,3396776.0,3481341.0,0.0
1586177600001,3411409.0,3493052.0,0.0
1586177600051,3429619.0,3507348.0,0.0
1586177600100,3446853.0,3531022.0,0.0
1586177600144,3463655.0,3550512.0,0.0
1586177600199,3482331.0,3566531.0,0.0
1586177600246,3489468.0,3568879.0,0.0
1586177600296,3428963.0,3488379.0,0.0
1586177600341,3377320.0,3416037.0,0.0
1586177600391,3361080.0,3390803.0,0.0
1586177600433,3367684.0,3398769.0,0.0
1586177600481,3384362.0,3420458.0,0.0
1586177600538,3392540.0,3427242.0,0.0
1586177600586,3390220.0,3418512.0,0.0
1586177600628,3389352.0,3421208.0,0.0
1586177600681,3393629.0,3430221.0,0.0
1586177600727,3409574.0,3443663.0,0.0
1586177600775,3422522.0,3463204.0,0.0
1586177600827,3439770.0,3481319.0,0.0
1586177600878,3456469.0,3507163.0,0.0
1586177600923,3444321.0,3483223.0,0.0
1586177600972,3385642.0,3397825.0,0.0
1586177601020,3349288.0,3353518.0,0.0
1586177601064,3343888.0,3353770.0,0.0
1586177601120,3358589.0,3371253.0,0.0
1586177601171,3374870.0,3386701.0,0.0
1586177601218,3381741.0,3390165.0,0.0
1586177601261,3381097.0,3390707.0,0.0
1586177601310,3385287.0,3399556.0,0.0
1586177601363,3397701.0,3409038.0,0.0
1586177601405,3413278.0,3427441.0,0.0
1586177601451,3430914.0,3448708.0,0.0
1586177601506,3448181.0,3473013.0,0.0
1586177601556,3466857.0,3491752.0,0.0
1586177601602,3451213.0,3462952.0,0.0
1586177601645,3381646.0,3368214.0,0.0
1586177601693,3338906.0,3317057.0,0.0
1586177601744,3328640.0,3307530.0,0.0
1586177601793,3333800.0,3309937.0,0.0
1586177601843,3341076.0,3322993.0,0.0
1586177601890,3347927.0,3324881.0,0.0
1586177601940,3345757.0,3321805.0,0.0
1586177601984,3348933.0,3324584.0,0.0
1586177602041,3358980.0,3337951.0,0.0
1586177602086,3371769.0,3355174.0,0.0
1586177602139,3390569.0,3376751.0,0.0
1586177602186,3404858.0,3394874.0,0.0
1586177602231,3424262.0,3417106.0,0.0
1586177602284,3388072.0,3364595.0,0.0
1586177602325,3323513.0,3279622.0,0.0
1586177602381,3291904.0,3244944.0,0.0
1586177602430,3287625.0,3240352.0,0.0
1586177602478,3294401.0,3249611.0,0.0
1586177602522,3308895.0,3262569.0,0.0
1586177602572,3312180.0,3265408.0,0.0
1586177602625,3312325.0,3265074.0,0.0
1586177602668,3316226.0,3273083.0,0.0
1586177602720,3330133.0,3288137.0,0.0
1586177602766,3344963.0,3309523.0,0.0
1586177602816,3359095.0,3329310.0,0.0
1586177602861,3378592.0,3351421.0,0.0
1586177602905,3395496.0,3373312.0,0.0
1586177602962,3413414.0,3392483.0,0.0
1586177603007,3427238.0,3411132.0,0.0
1586177603059,3382091.0,3345009.0,0.0
1586177603106,3312660.0,3257725.0,0.0
1586177603154,3279837.0,3224376.0,0.0
1586177603202,3277490.0,3220595.0,0.0
1586177603249,3285859.0,3234647.0,0.0
1586177603302,3293305.0,3246401.0,0.0
1586177603350,3296694.0,3247085.0,0.0
1586177603396,3295400.0,3243570.0,0.0
1586177603448,3300827.0,3248934.0,0.0
1586177603491,3313468.0,3263869.0,0.0
1586177603544,3326929.0,3286651.0,0.0
1586177603586,3344209.0,3308623.0,0.0
1586177603635,3359622.0,3324850.0,0.0
1586177603682,3375884.0,3343768.0,0.0
1586177603728,3364037.0,3322621.0,0.0
1586177603780,3287332.0,3232625.0,0.0
1586177603828,3241116.0,3178300.0,0.0
1586177603878,3232881.0,3172417.0,0.0
1586177603927,3241992.0,3188876.0,0.0
1586177603977,3256431.0,3207970.0,0.0
1586177604026,3258942.0,3212094.0,0.0
1586177604074,3253825.0,3210341.0,0.0
1586177604122,3259162.0,3217861.0,0.0
1586177604166,3270304.0,3235427.0,0.0
1586177604221,3285908.0,3255690.0,0.0
1586177604267,3304399.0,3279792.0,0.0
1586177604316,3319141.0,3298480.0,0.0
1586177604366,3269839.0,3235604.0,0.0
1586177604411,3207300.0,3163062.0,0.0
1586177604458,3185483.0,3142146.0,0.0
1586177604508,3186379.0,3149346.0,0.0
1586177604559,3203393.0,3171726.0,0.0
1586177604606,3217826.0,3187248.0,0.0
1586177604657,3221213.0,3190725.0,0.0
1586177604704,3224559.0,3196759.0,0.0
1586177604753,3235230.0,3210668.0,0.0
1586177604801,3251531.0,3232891.0,0.0
1586177604851,3272919.0,3257636.0,0.0
1586177604894,3291698.0,3282021.0,0.0
1586177604946,3310313.0,3303956.0,0.0
1586177604991,3324432.0,3318497.0,0.0
1586177605044,3261846.0,3239675.0,0.0
1586177605088,3194701.0,3161740.0,0.0
1586177605141,3171685.0,3139752.0,0.0
1586177605189,3174497.0,3143415.0,0.0
1586177605238,3187000.0,3158239.0,0.0
1586177605287,3199983.0,3171502.0,0.0
1586177605331,3204309.0,3175797.0,0.0
1586177605385,3208484.0,3183739.0,0.0
1586177605430,3221288.0,3196751.0,0.0
1586177605481,3239007.0,3216331.0,0.0
1586177605528,3258477.0,3239944.0,0.0
1586177605678,3279132.0,3263156.0,0.0
1586177605678,3299965.0,3283419.0,0.0
1586177605678,3320838.0,3302434.0,0.0
1586177605776,3326827.0,3309440.0,0.0
1586177605776,3258812.0,3221026.0,0.0
1586177605821,3200463.0,3151902.0,0.0
1586177605868,3188349.0,3137621.0,0.0
1586177605918,3198122.0,3149041.0,0.0
1586177605966,3215396.0,3167445.0,0.0
1586177606013,3225908.0,3178138.0,0.0
1586177606064,3227940.0,3182224.0,0.0
1586177606109,3235482.0,3183837.0,0.0
1586177606157,3246413.0,3194634.0,0.0
1586177606210,3264678.0,3216694.0,0.0
1586177606258,3284709.0,3235449.0,0.0
1586177606306,3304153.0,3261565.0,0.0
1586177606353,3321516.0,3284957.0,0.0
1586177606404,3342287.0,3303942.0,0.0
1586177606450,3359991.0,3325750.0,0.0
1586177606502,3340692.0,3297284.0,0.0
1586177606548,3272616.0,3209835.0,0.0
1586177606598,3238233.0,3166063.0,0.0
1586177606647,3240348.0,3171718.0,0.0
1586177606695,3260491.0,3196401.0,0.0
1586177606740,3279530.0,3219429.0,0.0
1586177606786,3285688.0,3220662.0,0.0
1586177606840,3285428.0,3219197.0,0.0
1586177606888,3294860.0,3229793.0,0.0
1586177606936,3310715.0,3251090.0,0.0
1586177606985,3331023.0,3275631.0,0.0
1586177607030,3351860.0,3299291.0,0.0
1586177607078,3371310.0,3324086.0,0.0
1586177607130,3392418.0,3345418.0,0.0
1586177607178,3411799.0,3368082.0,0.0
1586177607227,3430442.0,3390350.0,0.0
1586177607276,3385484.0,3325490.0,0.0
1586177607326,3313749.0,3226347.0,0.0
1586177607370,3283758.0,3188205.0,0.0
1586177607421,3281637.0,3183867.0,0.0
1586177607465,3290185.0,3192880.0,0.0
1586177607620,3301006.0,3204345.0,0.0
1586177607621,3303948.0,3210333.0,0.0
1586177607621,3306144.0,3209539.0,0.0
1586177607733,3314870.0,3219756.0,0.0
1586177607733,3330015.0,3236549.0,0.0
1586177607759,3349323.0,3257183.0,0.0
1586177607805,3372166.0,3274890.0,0.0
1586177607859,3392540.0,3288472.0,0.0
1586177607906,3414420.0,3300955.0,0.0
1586177607951,3436751.0,3310949.0,0.0
1586177608005,3456284.0,3321886.0,0.0
1586177608051,3420976.0,3254842.0,0.0
1586177608101,3355180.0,3159332.0,0.0
1586177608142,3322181.0,3117291.0,0.0
1586177608194,3322831.0,3114624.0,0.0
1586177608243,3335552.0,3130331.0,0.0
1586177608292,3356515.0,3140658.0,0.0
1586177608340,3354749.0,3136298.0,0.0
1586177608387,3350034.0,3133236.0,0.0
1586177608438,3352964.0,3138334.0,0.0
1586177608484,3360682.0,3147800.0,0.0
1586177608539,3376335.0,3161226.0,0.0
1586177608586,3394574.0,3178605.0,0.0
1586177608631,3413270.0,3194388.0,0.0
1586177608677,3431523.0,3212682.0,0.0
1586177608724,3421285.0,3194164.0,0.0
1586177608774,3359055.0,3113575.0,0.0
1586177608821,3314119.0,3064261.0,0.0
1586177608871,3304913.0,3061400.0,0.0
1586177608919,3316534.0,3082205.0,0.0
1586177608967,3336080.0,3109213.0,0.0
1586177609016,3345873.0,3121830.0,0.0
1586177609070,3343943.0,3124037.0,0.0
1586177609119,3346373.0,3130577.0,0.0
1586177609162,3354735.0,3145020.0,0.0
1586177609216,3370914.0,3165811.0,0.0
1586177609264,3389249.0,3184869.0,0.0
1586177609312,3406311.0,3206879.0,0.0
1586177609362,3424371.0,3226183.0,0.0
1586177609409,3383966.0,3163826.0,0.0
1586177609454,3316136.0,3084373.0,0.0
1586177609503,3280125.0,3051286.0,0.0
1586177609552,3273992.0,3052178.0,0.0
1586177609601,3284888.0,3071898.0,0.0
1586177609648,3298151.0,3093542.0,0.0
1586177609701,3301408.0,3101204.0,0.0
1586177609744,3301197.0,3102585.0,0.0
1586177609794,3304248.0,3112409.0,0.0
1586177609846,3317402.0,3128064.0,0.0
1586177609894,3332506.0,3148566.0,0.0
1586177609943,3348809.0,3169243.0,0.0
1586177609987,3366206.0,3190635.0,0.0
1586177610043,3338195.0,3152384.0,0.0
1586177610089,3265903.0,3070955.0,0.0
1586177610221,3225839.0,3028906.0,0.0
1586177610224,3216922.0,3026773.0,0.0
1586177610262,3220372.0,3039642.0,0.0
1586177610344,3237345.0,3062550.0,0.0
1586177610344,3242991.0,3071512.0,0.0
1586177610493,3243641.0,3076073.0,0.0
1586177610493,3244558.0,3082345.0,0.0
1586177610493,3254009.0,3096204.0,0.0
1586177610603,3269038.0,3113153.0,0.0
1586177610603,3282157.0,3131654.0,0.0
1586177610650,3296611.0,3153789.0,0.0
1586177610673,3294210.0,3147786.0,0.0
1586177610718,3230910.0,3072782.0,0.0
1586177610769,3179241.0,3019745.0,0.0
1586177610816,3164773.0,3010159.0,0.0
1586177610866,3170679.0,3025763.0,0.0
1586177610915,3185550.0,3047868.0,0.0
1586177610964,3192722.0,3063799.0,0.0
1586177611011,3191115.0,3070835.0,0.0
1586177611061,3191109.0,3074425.0,0.0
1586177611108,3199636.0,3089314.0,0.0
1586177611158,3210189.0,3104658.0,0.0
1586177611206,3222938.0,3126928.0,0.0
1586177611254,3240198.0,3147674.0,0.0
1586177611303,3217976.0,3126139.0,0.0
1586177611351,3167634.0,3068755.0,0.0
1586177611394,3137952.0,3038439.0,0.0
1586177611447,3128411.0,3034695.0,0.0
1586177611496,3142867.0,3055455.0,0.0
1586177611546,3161433.0,3079627.0,0.0
1586177611594,3169598.0,3089694.0,0.0
1586177611644,3172725.0,3095468.0,0.0
1586177611685,3179158.0,3105245.0,0.0
1586177611734,3190710.0,3122669.0,0.0
1586177611784,3208840.0,3143133.0,0.0
1586177611837,3231731.0,3166086.0,0.0
1586177611886,3209230.0,3136936.0,0.0
1586177611933,3151345.0,3064817.0,0.0
1586177611979,3117783.0,3028979.0,0.0
1586177612031,3114061.0,3029583.0,0.0
1586177612076,3134516.0,3056963.0,0.0
1586177612128,3159763.0,3084546.0,0.0
1586177612177,3170789.0,3093388.0,0.0
1586177612221,3177392.0,3099182.0,0.0
1586177612272,3187173.0,3111517.0,0.0
1586177612318,3199183.0,3130219.0,0.0
1586177612365,3219976.0,3157414.0,0.0
1586177612416,3245364.0,3186490.0,0.0
1586177612464,3226148.0,3158946.0,0.0
1586177612512,3158046.0,3074328.0,0.0
1586177612560,3122958.0,3034264.0,0.0
1586177612607,3123293.0,3031566.0,0.0
1586177612661,3135236.0,3050544.0,0.0
1586177612710,3153741.0,3080064.0,0.0
1586177612758,3169714.0,3098321.0,0.0
1586177612807,3178597.0,3109688.0,0.0
1586177612855,3192031.0,3123427.0,0.0
1586177612904,3209366.0,3140689.0,0.0
1586177612952,3231041.0,3164385.0,0.0
1586177612998,3254706.0,3193110.0,0.0
1586177613049,3252209.0,3189573.0,0.0
1586177613098,3181923.0,3104702.0,0.0
1586177613143,3137152.0,3051367.0,0.0
1586177613190,3131040.0,3045922.0,0.0
1586177613241,3141038.0,3058346.0,0.0
1586177613287,3160701.0,3084277.0,0.0
1586177613341,3175627.0,3097793.0,0.0
1586177613384,3184113.0,3106182.0,0.0
1586177613434,3192675.0,3116036.0,0.0
1586177613482,3203372.0,3132842.0,0.0
1586177613531,3221898.0,3153180.0,0.0
1586177613578,3244769.0,3178331.0,0.0
1586177613632,3259326.0,3192159.0,0.0
1586177613684,3202263.0,3116109.0,0.0
1586177613729,3144309.0,3048025.0,0.0
1586177613773,3127570.0,3031982.0,0.0
1586177613822,3138753.0,3048419.0,0.0
1586177613874,3161488.0,3077938.0,0.0
1586177613919,3175566.0,3100491.0,0.0
1586177613971,3182327.0,3104680.0,0.0
1586177614020,3189560.0,3111139.0,0.0
1586177614062,3201044.0,3120812.0,0.0
1586177614117,3219126.0,3139047.0,0.0
1586177614162,3240007.0,3160297.0,0.0
1586177614214,3246165.0,3165826.0,0.0
1586177614262,3185017.0,3090348.0,0.0
1586177614310,3130861.0,3031247.0,0.0
1586177614360,3121704.0,3021899.0,0.0
1586177614404,3134100.0,3043202.0,0.0
1586177614451,3158428.0,3079098.0,0.0
1586177614499,3170001.0,3090088.0,0.0
1586177614550,3168345.0,3089917.0,0.0
1586177614598,3175710.0,3099985.0,0.0
1586177614644,3197486.0,3123063.0,0.0
1586177614696,3225457.0,3152221.0,0.0
1586177614741,3250998.0,3184505.0,0.0
1586177614795,3237166.0,3156150.0,0.0
1586177614844,3173185.0,3073028.0,0.0
1586177614887,3142743.0,3037273.0,0.0
1586177614944,3144947.0,3044102.0,0.0
1586177614989,3163452.0,3068785.0,0.0
1586177615035,3188494.0,3097183.0,0.0
1586177615081,3205172.0,3114727.0,0.0
1586177615136,3214145.0,3128391.0,0.0
1586177615186,3230130.0,3146016.0,0.0
1586177615232,3251216.0,3170566.0,0.0
1586177615282,3274971.0,3198185.0,0.0
1586177615328,3303988.0,3226569.0,0.0
1586177615378,3278317.0,3185062.0,0.0
1586177615421,3214411.0,3102801.0,0.0
1586177615474,3189705.0,3071341.0,0.0
1586177615527,3191224.0,3074759.0,0.0
1586177615571,3209723.0,3101062.0,0.0
1586177615621,3232615.0,3129216.0,0.0
1586177615667,3248993.0,3149145.0,0.0
1586177615719,3259320.0,3161331.0,0.0
1586177615760,3272425.0,3177774.0,0.0
1586177615814,3292040.0,3201038.0,0.0
1586177615861,3315965.0,3228389.0,0.0
1586177615904,3340952.0,3258869.0,0.0
1586177615957,3344627.0,3253414.0,0.0
1586177616001,3284738.0,3167937.0,0.0
1586177616053,3247774.0,3118010.0,0.0
1586177616190,3243544.0,3115188.0,0.0
1586177616190,3259916.0,3137078.0,0.0
1586177616217,3281542.0,3163225.0,0.0
1586177616494,3298157.0,3182864.0,0.0
1586177616494,3306542.0,3192464.0,0.0
1586177616494,3318517.0,3208907.0,0.0
1586177616495,3339377.0,3233889.0,0.0
1586177616497,3359402.0,3261826.0,0.0
1586177616555,3402983.0,3335960.0,0.0
1586177616604,3386558.0,3331204.0,0.0
1586177616639,3307739.0,3248430.0,0.0
1586177616681,3262419.0,3203283.0,0.0
1586177616730,3257752.0,3210758.0,0.0
1586177616783,3270139.0,3235768.0,0.0
1586177616831,3296071.0,3263268.0,0.0
1586177616881,3317471.0,3275298.0,0.0
1586177616929,3335019.0,3280692.0,0.0
1586177616977,3352498.0,3290343.0,0.0
1586177617022,3373596.0,3308044.0,0.0
1586177617074,3398036.0,3330297.0,0.0
1586177617124,3425036.0,3355227.0,0.0
1586177617171,3447257.0,3380408.0,0.0
1586177617221,3412585.0,3319753.0,0.0
1586177617266,3365207.0,3247821.0,0.0
1586177617317,3349520.0,3223537.0,0.0
1586177617368,3359616.0,3235531.0,0.0
1586177617415,3382070.0,3265214.0,0.0
1586177617463,3402752.0,3285723.0,0.0
1586177617510,3414721.0,3291229.0,0.0
1586177617560,3422722.0,3294445.0,0.0
1586177617607,3436375.0,3309596.0,0.0
1586177617657,3451054.0,3329145.0,0.0
1586177617706,3471737.0,3355359.0,0.0
1586177617753,3493548.0,3384175.0,0.0
1586177617802,3498114.0,3379695.0,0.0
1586177617850,3445922.0,3299104.0,0.0
1586177617899,3410608.0,3248392.0,0.0
1586177617944,3407733.0,3250911.0,0.0
1586177617989,3424863.0,3276836.0,0.0
1586177618045,3448659.0,3309551.0,0.0
1586177618092,3462737.0,3326299.0,0.0
1586177618142,3468574.0,3333975.0,0.0
1586177618188,3476630.0,3341763.0,0.0
1586177618237,3489688.0,3357291.0,0.0
1586177618284,3506366.0,3382710.0,0.0
1586177618334,3526091.0,3406852.0,0.0
1586177618384,3544275.0,3432435.0,0.0
1586177618431,3556579.0,3443559.0,0.0
1586177618482,3509849.0,3366572.0,0.0
1586177618523,3466884.0,3304937.0,0.0
1586177618577,3453429.0,3293301.0,0.0
1586177618624,3466412.0,3315541.0,0.0
1586177618674,3488134.0,3348376.0,0.0
1586177618723,3504615.0,3369307.0,0.0
1586177618766,3506933.0,3375303.0,0.0
1586177618821,3511149.0,3378373.0,0.0
1586177618866,3521710.0,3392245.0,0.0
1586177618916,3534084.0,3410917.0,0.0
1586177618961,3549626.0,3434248.0,0.0
1586177619008,3569493.0,3464608.0,0.0
1586177619062,3577849.0,3474314.0,0.0
1586177619106,3527212.0,3399771.0,0.0
1586177619158,3476841.0,3333010.0,0.0
1586177619205,3459240.0,3321402.0,0.0
1586177619251,3464933.0,3339481.0,0.0
1586177619305,3483597.0,3370532.0,0.0
1586177619353,3497606.0,3395632.0,0.0
1586177619403,3501027.0,3402150.0,0.0
1586177619446,3502945.0,3407833.0,0.0
1586177619500,3511019.0,3422553.0,0.0
1586177619545,3524707.0,3441225.0,0.0
1586177619595,3538369.0,3468741.0,0.0
1586177619645,3556270.0,3490950.0,0.0
1586177619691,3573339.0,3517372.0,0.0
1586177619741,3573989.0,3515038.0,0.0
1586177619919,3504018.0,3418630.0,0.0
1586177619919,3445012.0,3355434.0,0.0
1586177619919,3418745.0,3353085.0,0.0
1586177619945,3414146.0,3374441.0,0.0
1586177620006,3418821.0,3405523.0,0.0
1586177620031,3426048.0,3426314.0,0.0
1586177620080,3428888.0,3433260.0,0.0
1586177620123,3432124.0,3436426.0,0.0
1586177620178,3444327.0,3446621.0,0.0
1586177620222,3460020.0,3461853.0,0.0
1586177620274,3478621.0,3480257.0,0.0
1586177620324,3497051.0,3501011.0,0.0
1586177620370,3516665.0,3523620.0,0.0
1586177620423,3536280.0,3548891.0,0.0
1586177620465,3538259.0,3548023.0,0.0
1586177620517,3473749.0,3456814.0,0.0
1586177620738,3414981.0,3383759.0,0.0
1586177620738,3390939.0,3360859.0,0.0
1586177620738,3391829.0,3371678.0,0.0
1586177620738,3402422.0,3396807.0,0.0
1586177620765,3412660.0,3419054.0,0.0
1586177620835,3407652.0,3433646.0,0.0
1586177620857,3400021.0,3443774.0,0.0
1586177620899,3399432.0,3457172.0,0.0
1586177620954,3406843.0,3477426.0,0.0
1586177620998,3419964.0,3503024.0,0.0
1586177621046,3436710.0,3531995.0,0.0
1586177621095,3455333.0,3561323.0,0.0
1586177621143,3474578.0,3587433.0,0.0
1586177621284,3497744.0,3611879.0,0.0
1586177621284,3474468.0,3568820.0,0.0
1586177621302,3409349.0,3472516.0,0.0
1586177621402,3368504.0,3423392.0,0.0
1586177621402,3359630.0,3415724.0,0.0
1586177621439,3369088.0,3429605.0,0.0
1586177621487,3385218.0,3452044.0,0.0
1586177621534,3392765.0,3465866.0,0.0
1586177621584,3387838.0,3468970.0,0.0
1586177621631,3384561.0,3474915.0,0.0
1586177621681,3390494.0,3487227.0,0.0
1586177621728,3404346.0,3507386.0,0.0
1586177621773,3420606.0,3529669.0,0.0
1586177621826,3441680.0,3552786.0,0.0
1586177621874,3460801.0,3573896.0,0.0
1586177621923,3480202.0,3593927.0,0.0
1586177621965,3499975.0,3614205.0,0.0
1586177622020,3504566.0,3610453.0,0.0
1586177622068,3439386.0,3516027.0,0.0
1586177622117,3380152.0,3442497.0,0.0
1586177622165,3351745.0,3421023.0,0.0
1586177622215,3347317.0,3434888.0,0.0
1586177622266,3359656.0,3457468.0,0.0
1586177622308,3374356.0,3477241.0,0.0
1586177622360,3384691.0,3481967.0,0.0
1586177622408,3391884.0,3481892.0,0.0
1586177622452,3399446.0,3485458.0,0.0
1586177622505,3411894.0,3497890.0,0.0
1586177622641,3425028.0,3518122.0,0.0
1586177622641,3428122.0,3539025.0,0.0
1586177622662,3440180.0,3562719.0,0.0
1586177622755,3453553.0,3600087.0,0.0
1586177622762,3478046.0,3629572.0,0.0
1586177622806,3458897.0,3573873.0,0.0
1586177622845,3408109.0,3472351.0,0.0
1586177622888,3383761.0,3417620.0,0.0
1586177622941,3388202.0,3407469.0,0.0
1586177622990,3399105.0,3423890.0,0.0
1586177623039,3399426.0,3451904.0,0.0
1586177623087,3393580.0,3470047.0,0.0
1586177623136,3391205.0,3475130.0,0.0
1586177623180,3395380.0,3470910.0,0.0
1586177623231,3408022.0,3472642.0,0.0
1586177623281,3425897.0,3484090.0,0.0
1586177623329,3451014.0,3490326.0,0.0
1586177623379,3471593.0,3496129.0,0.0
1586177623426,3486862.0,3508404.0,0.0
1586177623475,3491084.0,3545994.0,0.0
1586177623524,3458645.0,3528153.0,0.0
1586177623577,3380406.0,3441099.0,0.0
1586177623621,3329954.0,3391813.0,0.0
1586177623669,3314974.0,3384354.0,0.0
1586177623712,3315665.0,3392184.0,0.0
1586177623766,3328475.0,3413873.0,0.0
1586177623809,3340590.0,3423185.0,0.0
1586177623865,3336894.0,3413822.0,0.0
1586177623912,3335785.0,3409787.0,0.0
1586177623962,3340720.0,3416907.0,0.0
1586177624008,3356399.0,3432628.0,0.0
1586177624148,3373651.0,3445223.0,0.0
1586177624148,3390967.0,3461800.0,0.0
1586177624165,3406768.0,3479328.0,0.0
1586177624265,3424967.0,3495208.0,0.0
1586177624265,3439961.0,3513717.0,0.0
1586177624301,3435731.0,3501992.0,0.0
1586177624347,3365138.0,3396175.0,0.0
1586177624398,3309793.0,3324672.0,0.0
1586177624442,3289303.0,3311156.0,0.0
1586177624488,3287023.0,3322526.0,0.0
1586177624542,3293155.0,3351296.0,0.0
1586177624590,3298637.0,3369033.0,0.0
1586177624640,3295475.0,3375861.0,0.0
1586177624683,3293421.0,3380163.0,0.0
1586177624737,3298555.0,3386695.0,0.0
1586177624780,3310360.0,3401591.0,0.0
1586177624831,3325882.0,3421372.0,0.0
1586177624883,3343272.0,3441188.0,0.0
1586177624930,3357171.0,3459384.0,0.0
1586177624980,3373049.0,3476467.0,0.0
1586177625028,3389563.0,3490757.0,0.0
1586177625075,3405777.0,3503595.0,0.0
1586177625125,3422681.0,3518108.0,0.0
1586177625171,3401075.0,3472902.0,0.0
1586177625222,3329420.0,3357716.0,0.0
1586177625264,3281253.0,3281576.0,0.0
1586177625411,3271870.0,3253690.0,0.0
1586177625412,3278927.0,3252203.0,0.0
1586177625426,3300191.0,3259895.0,0.0
1586177625526,3311435.0,3253266.0,0.0
1586177625526,3306028.0,3228277.0,0.0
1586177625568,3299486.0,3211158.0,0.0
1586177625609,3301526.0,3209183.0,0.0
1586177625659,3316685.0,3212050.0,0.0
1586177625707,3331390.0,3220268.0,0.0
1586177625754,3345223.0,3236831.0,0.0
1586177625800,3360826.0,3252983.0,0.0
1586177625852,3376944.0,3274219.0,0.0
1586177625902,3389633.0,3293175.0,0.0
1586177625949,3407557.0,3309188.0,0.0
1586177625998,3424282.0,3326575.0,0.0
1586177626046,3439571.0,3339495.0,0.0
1586177626093,3386882.0,3261582.0,0.0
1586177626144,3315541.0,3168018.0,0.0
1586177626191,3281761.0,3131847.0,0.0
1586177626242,3279126.0,3133771.0,0.0
1586177626289,3293964.0,3156516.0,0.0
1586177626335,3308348.0,3178130.0,0.0
1586177626386,3308950.0,3179111.0,0.0
1586177626433,3302272.0,3174788.0,0.0
1586177626614,3302867.0,3175255.0,0.0
1586177626614,3311798.0,3188540.0,0.0
1586177626649,3343573.0,3232321.0,0.0
1586177626713,3359061.0,3257762.0,0.0
1586177626733,3374610.0,3281629.0,0.0
1586177626773,3389255.0,3308980.0,0.0
1586177626824,3405714.0,3336917.0,0.0
1586177626872,3423453.0,3355353.0,0.0
1586177626922,3437190.0,3373846.0,0.0
1586177626968,3452375.0,3394533.0,0.0
1586177627012,3409314.0,3327110.0,0.0
1586177627066,3322701.0,3223121.0,0.0
1586177627114,3272055.0,3164355.0,0.0
1586177627164,3259450.0,3151315.0,0.0
1586177627210,3262413.0,3157325.0,0.0
1586177627263,3272890.0,3173835.0,0.0
1586177627308,3275170.0,3177209.0,0.0
1586177627354,3266108.0,3167593.0,0.0
1586177627405,3262652.0,3165381.0,0.0
1586177627448,3268920.0,3175322.0,0.0
1586177627503,3280083.0,3189774.0,0.0
1586177627551,3296961.0,3209010.0,0.0
1586177627602,3315342.0,3230529.0,0.0
1586177627648,3333890.0,3250866.0,0.0
1586177627694,3350473.0,3269071.0,0.0
1586177627745,3366034.0,3289817.0,0.0
1586177627789,3384431.0,3311380.0,0.0
1586177627838,3400561.0,3327926.0,0.0
1586177627891,3417014.0,3349699.0,0.0
1586177627938,3433685.0,3370042.0,0.0
1586177627988,3406283.0,3326782.0,0.0
1586177628034,3318627.0,3217095.0,0.0
1586177628081,3262323.0,3149813.0,0.0
1586177628132,3246815.0,3136089.0,0.0
1586177628182,3249245.0,3143944.0,0.0
1586177628230,3262939.0,3164808.0,0.0
1586177628274,3268169.0,3167565.0,0.0
1586177628327,3258183.0,3157059.0,0.0
1586177628374,3254097.0,3148328.0,0.0
1586177628424,3256486.0,3155527.0,0.0
1586177628472,3268628.0,3170968.0,0.0
1586177628522,3283744.0,3192189.0,0.0
1586177628569,3294736.0,3224035.0,0.0
1586177628616,3301593.0,3270735.0,0.0
1586177628724,3315705.0,3309931.0,0.0
1586177628724,3331260.0,3347825.0,0.0
1586177628870,3349499.0,3382154.0,0.0
1586177628870,3368429.0,3416007.0,0.0
1586177628871,3386867.0,3445282.0,0.0
1586177628963,3403196.0,3462410.0,0.0
1586177629006,3330974.0,3359997.0,0.0
1586177629055,3275601.0,3287074.0,0.0
1586177629105,3261141.0,3268506.0,0.0
1586177629152,3268798.0,3275022.0,0.0
1586177629197,3286269.0,3295069.0,0.0
1586177629248,3293429.0,3297017.0,0.0
1586177629293,3286708.0,3284087.0,0.0
1586177629347,3281493.0,3270690.0,0.0
1586177629478,3286694.0,3270869.0,0.0
1586177629478,3295906.0,3282527.0,0.0
1586177629521,3312475.0,3296579.0,0.0
1586177629598,3327737.0,3313913.0,0.0
1586177629598,3345899.0,3329160.0,0.0
1586177629639,3362826.0,3347104.0,0.0
1586177629681,3380400.0,3362724.0,0.0
1586177629736,3395395.0,3378625.0,0.0
1586177629779,3410663.0,3395529.0,0.0
1586177629831,3426637.0,3409066.0,0.0
1586177629877,3441850.0,3426557.0,0.0
1586177629924,3427527.0,3398456.0,0.0
1586177629976,3346633.0,3284571.0,0.0
1586177630027,3288720.0,3211776.0,0.0
1586177630073,3269804.0,3187500.0,0.0
1586177630117,3268935.0,3189841.0,0.0
1586177630170,3279140.0,3198602.0,0.0
1586177630218,3284662.0,3201009.0,0.0
1586177630268,3280686.0,3192234.0,0.0
1586177630318,3271946.0,3192293.0,0.0
1586177630366,3276456.0,3206885.0,0.0
1586177630414,3286974.0,3223291.0,0.0
1586177630460,3302052.0,3244334.0,0.0
1586177630510,3320490.0,3261931.0,0.0
1586177630559,3339637.0,3277817.0,0.0
1586177630609,3355769.0,3294713.0,0.0
1586177630657,3374104.0,3306089.0,0.0
1586177630701,3389037.0,3323394.0,0.0
1586177630753,3404688.0,3337764.0,0.0
1586177630800,3420970.0,3354579.0,0.0
1586177630850,3434225.0,3376589.0,0.0
1586177630900,3391445.0,3310258.0,0.0
1586177630948,3324712.0,3215207.0,0.0
1586177630997,3289159.0,3170596.0,0.0
1586177631044,3285997.0,3167981.0,0.0
1586177631093,3301347.0,3182352.0,0.0
1586177631139,3314090.0,3197391.0,0.0
1586177631189,3309299.0,3190465.0,0.0
1586177631239,3301908.0,3176614.0,0.0
1586177631283,3298720.0,3173479.0,0.0
1586177631337,3306583.0,3186186.0,0.0
1586177631379,3319976.0,3204152.0,0.0
1586177631433,3335921.0,3224608.0,0.0
1586177631483,3353305.0,3247449.0,0.0
1586177631529,3368129.0,3265251.0,0.0
1586177631579,3386093.0,3283842.0,0.0
1586177631623,3401246.0,3302708.0,0.0
1586177631675,3392658.0,3284087.0,0.0
1586177631721,3321276.0,3184944.0,0.0
1586177631768,3266744.0,3118441.0,0.0
1586177631822,3253310.0,3103032.0,0.0
1586177631869,3254276.0,3110046.0,0.0
1586177631919,3267620.0,3126564.0,0.0
1586177631961,3273569.0,3133681.0,0.0
1586177632016,3266744.0,3129313.0,0.0
1586177632063,3264316.0,3127523.0,0.0
1586177632112,3273240.0,3136514.0,0.0
1586177632161,3285032.0,3152444.0,0.0
1586177632210,3299868.0,3173703.0,0.0
1586177632258,3318702.0,3198876.0,0.0
1586177632301,3333890.0,3218954.0,0.0
1586177632355,3348740.0,3239046.0,0.0
1586177632403,3364603.0,3258668.0,0.0
1586177632447,3363557.0,3251573.0,0.0
1586177632502,3291300.0,3150906.0,0.0
1586177632544,3229358.0,3070829.0,0.0
1586177632598,3207383.0,3046694.0,0.0
1586177632640,3204453.0,3045447.0,0.0
1586177632694,3208935.0,3056384.0,0.0
1586177632743,3215211.0,3066607.0,0.0
1586177632786,3216156.0,3061585.0,0.0
1586177632842,3212235.0,3056889.0,0.0
1586177632884,3217477.0,3063220.0,0.0
1586177632938,3230994.0,3076705.0,0.0
1586177632980,3246843.0,3098053.0,0.0
1586177633029,3262982.0,3125463.0,0.0
1586177633084,3280577.0,3163960.0,0.0
1586177633131,3296337.0,3199656.0,0.0
1586177633180,3305317.0,3234297.0,0.0
1586177633227,3314836.0,3262807.0,0.0
1586177633277,3322051.0,3294163.0,0.0
1586177633319,3337510.0,3323721.0,0.0
1586177633369,3354475.0,3345345.0,0.0
1586177633421,3374220.0,3353955.0,0.0
1586177633470,3395210.0,3356290.0,0.0
1586177633680,3382521.0,3296058.0,0.0
1586177633681,3297787.0,3157928.0,0.0
1586177633682,3235955.0,3078452.0,0.0
1586177633683,3216566.0,3069297.0,0.0
1586177633727,3222672.0,3104688.0,0.0
1586177633800,3227873.0,3135294.0,0.0
1586177633813,3222897.0,3146626.0,0.0
1586177633856,3218031.0,3145756.0,0.0
1586177633904,3220898.0,3152987.0,0.0
1586177633953,3225189.0,3169422.0,0.0
1586177634003,3241723.0,3194491.0,0.0
1586177634053,3257587.0,3219072.0,0.0
1586177634102,3271680.0,3245791.0,0.0
1586177634150,3287700.0,3272080.0,0.0
1586177634199,3301428.0,3294579.0,0.0
1586177634244,3316827.0,3309582.0,0.0
1586177634296,3330535.0,3327957.0,0.0
1586177634345,3345032.0,3347752.0,0.0
1586177634393,3359916.0,3372115.0,0.0
1586177634525,3374766.0,3396035.0,0.0
1586177634525,3362216.0,3366119.0,0.0
1586177634566,3276470.0,3245011.0,0.0
1586177634637,3209675.0,3157369.0,0.0
1586177634638,3183469.0,3122753.0,0.0
1586177634682,3177803.0,3117943.0,0.0
1586177634733,3187705.0,3146441.0,0.0
1586177634873,3193469.0,3165224.0,0.0
1586177634873,3187535.0,3165937.0,0.0
1586177634884,3185147.0,3151760.0,0.0
1586177634986,3188459.0,3144159.0,0.0
1586177634987,3198368.0,3147607.0,0.0
1586177635035,3215020.0,3181681.0,0.0
1586177635071,3233416.0,3225967.0,0.0
1586177635122,3246494.0,3270282.0,0.0
1586177635165,3261173.0,3303310.0,0.0
1586177635218,3278565.0,3336592.0,0.0
1586177635266,3299226.0,3359603.0,0.0
1586177635315,3318217.0,3387934.0,0.0
1586177635364,3341076.0,3413881.0,0.0
1586177635411,3357645.0,3425019.0,0.0
1586177635456,3375691.0,3441456.0,0.0
1586177635503,3372564.0,3427226.0,0.0
1586177635558,3292251.0,3303897.0,0.0
1586177635604,3223704.0,3196728.0,0.0
1586177635654,3199731.0,3150244.0,0.0
1586177635704,3196787.0,3131444.0,0.0
1586177635749,3207438.0,3127403.0,0.0
1586177635801,3210406.0,3120932.0,0.0
1586177635844,3201434.0,3105787.0,0.0
1586177635892,3191375.0,3092977.0,0.0
1586177635948,3196157.0,3094137.0,0.0
1586177635994,3207765.0,3107342.0,0.0
1586177636044,3223444.0,3124691.0,0.0
1586177636090,3239432.0,3141967.0,0.0
1586177636141,3256035.0,3159190.0,0.0
1586177636185,3270373.0,3177327.0,0.0
1586177636236,3282027.0,3195064.0,0.0
1586177636284,3294852.0,3209740.0,0.0
1586177636329,3306788.0,3223990.0,0.0
1586177636466,3323186.0,3241364.0,0.0
1586177636466,3339016.0,3263439.0,0.0
1586177636508,3326027.0,3242016.0,0.0
1586177636590,3247869.0,3142056.0,0.0
1586177636591,3191614.0,3078824.0,0.0
1586177636626,3181588.0,3073517.0,0.0
1586177636670,3186948.0,3121064.0,0.0
1586177636726,3207135.0,3157504.0,0.0
1586177636770,3215315.0,3162260.0,0.0
1586177636816,3212521.0,3151536.0,0.0
1586177636865,3206410.0,3149872.0,0.0
1586177636917,3209094.0,3190154.0,0.0
1586177636966,3218592.0,3226845.0,0.0
1586177637015,3236091.0,3265139.0,0.0
1586177637083,3251941.0,3303734.0,0.0
1586177637126,3274219.0,3341547.0,0.0
1586177637161,3290615.0,3371491.0,0.0
1586177637205,3308088.0,3398702.0,0.0
1586177637257,3329700.0,3414580.0,0.0
1586177637302,3343512.0,3441834.0,0.0
1586177637354,3354235.0,3454155.0,0.0
1586177637403,3293505.0,3348902.0,0.0
1586177637447,3227365.0,3230529.0,0.0
1586177637501,3206519.0,3169718.0,0.0
1586177637546,3206233.0,3140614.0,0.0
1586177637597,3203659.0,3128192.0,0.0
1586177637646,3204158.0,3151729.0,0.0
1586177637695,3195727.0,3163432.0,0.0
1586177637745,3184304.0,3172475.0,0.0
1586177637788,3183244.0,3188644.0,0.0
1586177637841,3192669.0,3214205.0,0.0
1586177637886,3206233.0,3247181.0,0.0
1586177637937,3221638.0,3279867.0,0.0
1586177637985,3239986.0,3304053.0,0.0
1586177638034,3259156.0,3334436.0,0.0
1586177638083,3279536.0,3361751.0,0.0
1586177638124,3297767.0,3381575.0,0.0
1586177638180,3317546.0,3401563.0,0.0
1586177638226,3341192.0,3423884.0,0.0
1586177638276,3358795.0,3427159.0,0.0
1586177638326,3297747.0,3325854.0,0.0
1586177638374,3234586.0,3231896.0,0.0
1586177638423,3211776.0,3195465.0,0.0
1586177638465,3216107.0,3193541.0,0.0
1586177638520,3227893.0,3203884.0,0.0
1586177638567,3237126.0,3211560.0,0.0
1586177638616,3224937.0,3199077.0,0.0
1586177638665,3211790.0,3191706.0,0.0
1586177638713,3211284.0,3193043.0,0.0
1586177638758,3220098.0,3214614.0,0.0
1586177638806,3232505.0,3245872.0,0.0
1586177638856,3249574.0,3275603.0,0.0
1586177638902,3262782.0,3305205.0,0.0
1586177638952,3279756.0,3335216.0,0.0
1586177639001,3302101.0,3361751.0,0.0
1586177639049,3312243.0,3376410.0,0.0
1586177639101,3261118.0,3291771.0,0.0
1586177639148,3207730.0,3206991.0,0.0
1586177639198,3184599.0,3176978.0,0.0
1586177639247,3189211.0,3180129.0,0.0
1586177639295,3204979.0,3199099.0,0.0
1586177639345,3224943.0,3209642.0,0.0
1586177639398,3230378.0,3201491.0,0.0
1586177639527,3227180.0,3187612.0,0.0
1586177639527,3219126.0,3195853.0,0.0
1586177639540,3222883.0,3220707.0,0.0
1586177639666,3239643.0,3251045.0,0.0
1586177639669,3261188.0,3276107.0,0.0
1586177639696,3283067.0,3294305.0,0.0
1586177639742,3302436.0,3302367.0,0.0
1586177639775,3339296.0,3307664.0,0.0
1586177639828,3368395.0,3299023.0,0.0
1586177639878,3327128.0,3205109.0,0.0
1586177639926,3239157.0,3101011.0,0.0
1586177639973,3190184.0,3080019.0,0.0
1586177640024,3173717.0,3090139.0,0.0
1586177640068,3172979.0,3106562.0,0.0
1586177640116,3178603.0,3127761.0,0.0
1586177640168,3182177.0,3146105.0,0.0
1586177640217,3180198.0,3153342.0,0.0
1586177640266,3183847.0,3167416.0,0.0
1586177640309,3193421.0,3186876.0,0.0
1586177640363,3204242.0,3220039.0,0.0
1586177640409,3224218.0,3252167.0,0.0
1586177640456,3241498.0,3286235.0,0.0
1586177640508,3258628.0,3319145.0,0.0
1586177640558,3282568.0,3343203.0,0.0
1586177640606,3302272.0,3365518.0,0.0
1586177640650,3294071.0,3339184.0,0.0
1586177640700,3217162.0,3238064.0,0.0
1586177640750,3167030.0,3174631.0,0.0
1586177640800,3159387.0,3158068.0,0.0
1586177640847,3166785.0,3155854.0,0.0
1586177640893,3180253.0,3163211.0,0.0
1586177640941,3186925.0,3163194.0,0.0
1586177640988,3190239.0,3151500.0,0.0
1586177641043,3197212.0,3142680.0,0.0
1586177641093,3211010.0,3143558.0,0.0
1586177641140,3238515.0,3149181.0,0.0
1586177641187,3252449.0,3159598.0,0.0
1586177641237,3251285.0,3179030.0,0.0
1586177641286,3255734.0,3212942.0,0.0
1586177641329,3264316.0,3242172.0,0.0
1586177641382,3278140.0,3269851.0,0.0
1586177641429,3298131.0,3288198.0,0.0
1586177641480,3281822.0,3227215.0,0.0
1586177641527,3232136.0,3109875.0,0.0
1586177641575,3209031.0,3040371.0,0.0
1586177641624,3216312.0,3017969.0,0.0
1586177641670,3228980.0,3021023.0,0.0
1586177641721,3234094.0,3042005.0,0.0
1586177641766,3218182.0,3069423.0,0.0
1586177641815,3205487.0,3090147.0,0.0
1586177641867,3204740.0,3122358.0,0.0
1586177641912,3219618.0,3160862.0,0.0
1586177641965,3231575.0,3205705.0,0.0
1586177642011,3246604.0,3251009.0,0.0
1586177642062,3270680.0,3284882.0,0.0
1586177642109,3302983.0,3306453.0,0.0
1586177642159,3335580.0,3310242.0,0.0
1586177642206,3367472.0,3305301.0,0.0
1586177642250,3396640.0,3300807.0,0.0
1586177642304,3372550.0,3243615.0,0.0
1586177642351,3271338.0,3153141.0,0.0
1586177642401,3202647.0,3113665.0,0.0
1586177642448,3179296.0,3126570.0,0.0
1586177642499,3175606.0,3147235.0,0.0
1586177642547,3176311.0,3172721.0,0.0
1586177642591,3183114.0,3189097.0,0.0
1586177642644,3186925.0,3188443.0,0.0
1586177642687,3189731.0,3195050.0,0.0
1586177642741,3203084.0,3208045.0,0.0
1586177642784,3223779.0,3226607.0,0.0
1586177642838,3240342.0,3241392.0,0.0
1586177642884,3260858.0,3261923.0,0.0
1586177642933,3277572.0,3279859.0,0.0
1586177642983,3296885.0,3294319.0,0.0
1586177643031,3309395.0,3309240.0,0.0
1586177643081,3326683.0,3323536.0,0.0
1586177643124,3347905.0,3335767.0,0.0
1586177643172,3329913.0,3302068.0,0.0
1586177643226,3253085.0,3189550.0,0.0
1586177643272,3204289.0,3127448.0,0.0
1586177643322,3194152.0,3115060.0,0.0
1586177643370,3196322.0,3118531.0,0.0
1586177643421,3207499.0,3130034.0,0.0
1586177643467,3209484.0,3131684.0,0.0
1586177643514,3201792.0,3128086.0,0.0
1586177643565,3199874.0,3128866.0,0.0
1586177643613,3205329.0,3143617.0,0.0
1586177643662,3218277.0,3168440.0,0.0
1586177643710,3229570.0,3200971.0,0.0
1586177643756,3242819.0,3233145.0,0.0
1586177643808,3254085.0,3266507.0,0.0
1586177643856,3262913.0,3299951.0,0.0
1586177643900,3276032.0,3334422.0,0.0
1586177643953,3268108.0,3327213.0,0.0
1586177644002,3206712.0,3238985.0,0.0
1586177644049,3162762.0,3177573.0,0.0
1586177644100,3162638.0,3168345.0,0.0
1586177644147,3177476.0,3180160.0,0.0
1586177644198,3196117.0,3202293.0,0.0
1586177644241,3202462.0,3209673.0,0.0
1586177644292,3197397.0,3209650.0,0.0
1586177644342,3197090.0,3213864.0,0.0
1586177644390,3209346.0,3224756.0,0.0
1586177644437,3231309.0,3240866.0,0.0
1586177644482,3255726.0,3255860.0,0.0
1586177644534,3275314.0,3272756.0,0.0
1586177644579,3295024.0,3291014.0,0.0
1586177644633,3312298.0,3307954.0,0.0
1586177644677,3328934.0,3327006.0,0.0
1586177644726,3340438.0,3335529.0,0.0
1586177644775,3282793.0,3244342.0,0.0
1586177644822,3214082.0,3150364.0,0.0
1586177644875,3183327.0,3118181.0,0.0
1586177644925,3179351.0,3118086.0,0.0
1586177644969,3183758.0,3136572.0,0.0
1586177645015,3187139.0,3161449.0,0.0
1586177645063,3182362.0,3178398.0,0.0
1586177645113,3175361.0,3185962.0,0.0
1586177645166,3174402.0,3201194.0,0.0
1586177645216,3187754.0,3221644.0,0.0
1586177645263,3208340.0,3244773.0,0.0
1586177645312,3226422.0,3267577.0,0.0
1586177645356,3247124.0,3286400.0,0.0
1586177645403,3269735.0,3305427.0,0.0
1586177645453,3292669.0,3322042.0,0.0
1586177645503,3315301.0,3337238.0,0.0
1586177645552,3338721.0,3352017.0,0.0
1586177645601,3337860.0,3336553.0,0.0
1586177645653,3274274.0,3229429.0,0.0
1586177645697,3225429.0,3148468.0,0.0
1586177645750,3212521.0,3123606.0,0.0
1586177645798,3217271.0,3127604.0,0.0
1586177645842,3217840.0,3163700.0,0.0
1586177645894,3218066.0,3187447.0,0.0
1586177645945,3207915.0,3203579.0,0.0
1586177645991,3203714.0,3215425.0,0.0
1586177646040,3208929.0,3242225.0,0.0
1586177646088,3225134.0,3270326.0,0.0
1586177646135,3249499.0,3297605.0,0.0
1586177646185,3269770.0,3321136.0,0.0
1586177646325,3287072.0,3343851.0,0.0
1586177646325,3303673.0,3368102.0,0.0
1586177646370,3318710.0,3395403.0,0.0
1586177646490,3329633.0,3422612.0,0.0
1586177646490,3335519.0,3419054.0,0.0
1586177646490,3282184.0,3325275.0,0.0
1586177646543,3238062.0,3250413.0,0.0
1586177646570,3229815.0,3231733.0,0.0
1586177646625,3242087.0,3238324.0,0.0
1586177646673,3260702.0,3249664.0,0.0
1586177646719,3277511.0,3247611.0,0.0
1586177646768,3282088.0,3228598.0,0.0
1586177646818,3287783.0,3213803.0,0.0
1586177646866,3291999.0,3227751.0,0.0
1586177646915,3298145.0,3264532.0,0.0
1586177646965,3306323.0,3305421.0,0.0
1586177647011,3319222.0,3346301.0,0.0
1586177647058,3336169.0,3386894.0,0.0
1586177647105,3352368.0,3422955.0,0.0
1586177647158,3370749.0,3456733.0,0.0
1586177647206,3390303.0,3484596.0,0.0
1586177647254,3369579.0,3441314.0,0.0
1586177647303,3307465.0,3348532.0,0.0
1586177647351,3266163.0,3306839.0,0.0
1586177647398,3258006.0,3310801.0,0.0
1586177647444,3266308.0,3314730.0,0.0
1586177647591,3272945.0,3307093.0,0.0
1586177647591,3270920.0,3286204.0,0.0
1586177647629,3259087.0,3269048.0,0.0
1586177647727,3247465.0,3265296.0,0.0
1586177647727,3250340.0,3279183.0,0.0
1586177647743,3266580.0,3312101.0,0.0
1586177647790,3291089.0,3347364.0,0.0
1586177647838,3313180.0,3362820.0,0.0
1586177647884,3335129.0,3361631.0,0.0
1586177647929,3350328.0,3357047.0,0.0
1586177647979,3370162.0,3356229.0,0.0
1586177648031,3389330.0,3360843.0,0.0
1586177648079,3355125.0,3281131.0,0.0
1586177648128,3296412.0,3179676.0,0.0
1586177648176,3252591.0,3124104.0,0.0
1586177648224,3236900.0,3105231.0,0.0
1586177648273,3230480.0,3103715.0,0.0
1586177648319,3232965.0,3092756.0,0.0
1586177648366,3236496.0,3037793.0,0.0
1586177648418,3240677.0,2995714.0,0.0
1586177648468,3244359.0,3008132.0,0.0
1586177648517,3277222.0,3062938.0,0.0
1586177648562,3334924.0,3105024.0,0.0
1586177648613,3395271.0,3152050.0,0.0
1586177648661,3429900.0,3203275.0,0.0
1586177648710,3430639.0,3239306.0,0.0
1586177648760,3401075.0,3237566.0,0.0
1586177648801,3336756.0,3175842.0,0.0
1586177648856,3282417.0,3135711.0,0.0
1586177648902,3243743.0,3139523.0,0.0
1586177648952,3263611.0,3176220.0,0.0
1586177649003,3289185.0,3203319.0,0.0
1586177649049,3290835.0,3199737.0,0.0
1586177649100,3278037.0,3195688.0,0.0
1586177649142,3280891.0,3194083.0,0.0
1586177649196,3291958.0,3205117.0,0.0
1586177649241,3302416.0,3230573.0,0.0
1586177649292,3299458.0,3253304.0,0.0
1586177649342,3294285.0,3247857.0,0.0
1586177649390,3272370.0,3236563.0,0.0
1586177649440,3224450.0,3194752.0,0.0
1586177649482,3152652.0,3122403.0,0.0
1586177649535,3116046.0,3083170.0,0.0
1586177649583,3106663.0,3079143.0,0.0
1586177649632,3117954.0,3095578.0,0.0
1586177649676,3149834.0,3121288.0,0.0
1586177649729,3180328.0,3133779.0,0.0
1586177649778,3192517.0,3133466.0,0.0
1586177649821,3203043.0,3135026.0,0.0
1586177649875,3207354.0,3148060.0,0.0
1586177649926,3217005.0,3173359.0,0.0
1586177649970,3232889.0,3202852.0,0.0
1586177650021,3253201.0,3235909.0,0.0
1586177650067,3240342.0,3208610.0,0.0
1586177650118,3188439.0,3136595.0,0.0
1586177650160,3161618.0,3102415.0,0.0
1586177650214,3158838.0,3104495.0,0.0
1586177650266,3162857.0,3126593.0,0.0
1586177650311,3177106.0,3156337.0,0.0
1586177650361,3193545.0,3175300.0,0.0
1586177650403,3208880.0,3183079.0,0.0
1586177650451,3224758.0,3194292.0,0.0
1586177650499,3239336.0,3213135.0,0.0
1586177650550,3256596.0,3240760.0,0.0
1586177650600,3274240.0,3264627.0,0.0
1586177650646,3286162.0,3289876.0,0.0
1586177650695,3255275.0,3240019.0,0.0
1586177650743,3206918.0,3167624.0,0.0
1586177650797,3188540.0,3146833.0,0.0
1586177650842,3191210.0,3157755.0,0.0
1586177650888,3207259.0,3177150.0,0.0
1586177650939,3222337.0,3198876.0,0.0
1586177650990,3230876.0,3211708.0,0.0
1586177651039,3232396.0,3218306.0,0.0
1586177651082,3246673.0,3226882.0,0.0
1586177651135,3262858.0,3242819.0,0.0
1586177651182,3277531.0,3265995.0,0.0
1586177651231,3296761.0,3293123.0,0.0
1586177651281,3308137.0,3300345.0,0.0
1586177651329,3259743.0,3233280.0,0.0
1586177651379,3216985.0,3183985.0,0.0
1586177651422,3211481.0,3178116.0,0.0
1586177651474,3225004.0,3189483.0,0.0
1586177651525,3243804.0,3215036.0,0.0
1586177651571,3255810.0,3232321.0,0.0
1586177651621,3260566.0,3232394.0,0.0
1586177651668,3265779.0,3235366.0,0.0
1586177651712,3282013.0,3245947.0,0.0
1586177651762,3297735.0,3275119.0,0.0
1586177651809,3314885.0,3310088.0,0.0
1586177651860,3335574.0,3343136.0,0.0
1586177651906,3354784.0,3364656.0,0.0
1586177651961,3313249.0,3314381.0,0.0
1586177652006,3252866.0,3241073.0,0.0
1586177652057,3228619.0,3211960.0,0.0
1586177652103,3230000.0,3219027.0,0.0
1586177652154,3239253.0,3245992.0,0.0
1586177652204,3261106.0,3264188.0,0.0
1586177652250,3288899.0,3271612.0,0.0
1586177652301,3306849.0,3269420.0,0.0
1586177652343,3314535.0,3268156.0,0.0
1586177652398,3321851.0,3281800.0,0.0
1586177652443,3330249.0,3295961.0,0.0
1586177652490,3337092.0,3308466.0,0.0
1586177652543,3335710.0,3317569.0,0.0
1586177652592,3350623.0,3335306.0,0.0
1586177652641,3371249.0,3339318.0,0.0
1586177652682,3323603.0,3267592.0,0.0
1586177652740,3272734.0,3208632.0,0.0
1586177652784,3234846.0,3182232.0,0.0
1586177652829,3221221.0,3176228.0,0.0
1586177652884,3217976.0,3192604.0,0.0
1586177652931,3226853.0,3215788.0,0.0
1586177652982,3234429.0,3229653.0,0.0
1586177653023,3240986.0,3249275.0,0.0
1586177653077,3262809.0,3270253.0,0.0
1586177653124,3286989.0,3299758.0,0.0
1586177653174,3319395.0,3333426.0,0.0
1586177653223,3351944.0,3365071.0,0.0
1586177653264,3382597.0,3392564.0,0.0
1586177653322,3399076.0,3409186.0,0.0
1586177653365,3357830.0,3339517.0,0.0
1586177653416,3310984.0,3268268.0,0.0
1586177653465,3297206.0,3248934.0,0.0
1586177653510,3308054.0,3257256.0,0.0
1586177653562,3326429.0,3275304.0,0.0
1586177653608,3348823.0,3292759.0,0.0
1586177653660,3363208.0,3297172.0,0.0
1586177653705,3371373.0,3295502.0,0.0
1586177653756,3378277.0,3303430.0,0.0
1586177653805,3391869.0,3315577.0,0.0
1586177653852,3405127.0,3331835.0,0.0
1586177653902,3422921.0,3348843.0,0.0
1586177653946,3438147.0,3368602.0,0.0
1586177654000,3455750.0,3389450.0,0.0
1586177654045,3469594.0,3402973.0,0.0
1586177654095,3422017.0,3329347.0,0.0
1586177654144,3368704.0,3254322.0,0.0
1586177654193,3349410.0,3229748.0,0.0
1586177654241,3353216.0,3236012.0,0.0
1586177654283,3362387.0,3250830.0,0.0
1586177654339,3374480.0,3265267.0,0.0
1586177654386,3377292.0,3269711.0,0.0
1586177654435,3377635.0,3270341.0,0.0
1586177654484,3380967.0,3276993.0,0.0
1586177654530,3392274.0,3294772.0,0.0
1586177654576,3409554.0,3315734.0,0.0
1586177654624,3425458.0,3338240.0,0.0
1586177654678,3440735.0,3357708.0,0.0
1586177654725,3456461.0,3379338.0,0.0
1586177654774,3473229.0,3402416.0,0.0
1586177654824,3484816.0,3425056.0,0.0
1586177654867,3446483.0,3361594.0,0.0
1586177654921,3379976.0,3287245.0,0.0
1586177654969,3339247.0,3261909.0,0.0
1586177655097,3309253.0,3267191.0,0.0
1586177655098,3299130.0,3283100.0,0.0
1586177655122,3302339.0,3309179.0,0.0
1586177655267,3312564.0,3325884.0,0.0
1586177655267,3323268.0,3329613.0,0.0
1586177655267,3325984.0,3340454.0,0.0
1586177655328,3325013.0,3358980.0,0.0
1586177655357,3330200.0,3378728.0,0.0
1586177655405,3349569.0,3404734.0,0.0
1586177655448,3364207.0,3424432.0,0.0
1586177655500,3378962.0,3449205.0,0.0
1586177655546,3388283.0,3472768.0,0.0
1586177655597,3403196.0,3501234.0,0.0
1586177655646,3411730.0,3526942.0,0.0
1586177655697,3403587.0,3508975.0,0.0
1586177655741,3349323.0,3422724.0,0.0
1586177655790,3307725.0,3361698.0,0.0
1586177655839,3300238.0,3347313.0,0.0
1586177655885,3310149.0,3358896.0,0.0
1586177655940,3325019.0,3378395.0,0.0
1586177655987,3337291.0,3385929.0,0.0
1586177656035,3336545.0,3375422.0,0.0
1586177656242,3336189.0,3383462.0,0.0
1586177656242,3348002.0,3396465.0,0.0
1586177656242,3357397.0,3414200.0,0.0
1586177656242,3378832.0,3442273.0,0.0
1586177656304,3391555.0,3463005.0,0.0
1586177656367,3403818.0,3480049.0,0.0
1586177656375,3414974.0,3490273.0,0.0
1586177656425,3428122.0,3501472.0,0.0
1586177656474,3430954.0,3486774.0,0.0
1586177656523,3376499.0,3399913.0,0.0
1586177656567,3325862.0,3337311.0,0.0
1586177656620,3310695.0,3337274.0,0.0
1586177656668,3314801.0,3360390.0,0.0
1586177656718,3330775.0,3393351.0,0.0
1586177656762,3337961.0,3412158.0,0.0
1586177656809,3337331.0,3412989.0,0.0
1586177656859,3336340.0,3401577.0,0.0
1586177656907,3338530.0,3399734.0,0.0
1586177656956,3351149.0,3404765.0,0.0
1586177657007,3366418.0,3434843.0,0.0
1586177657057,3379551.0,3462840.0,0.0
1586177657105,3387572.0,3491551.0,0.0
1586177657152,3407707.0,3520233.0,0.0
1586177657203,3425869.0,3546441.0,0.0
1586177657251,3431495.0,3556262.0,0.0
1586177657299,3378381.0,3478184.0,0.0
1586177657344,3327703.0,3409564.0,0.0
1586177657397,3308013.0,3386650.0,0.0
1586177657445,3315159.0,3391806.0,0.0
1586177657488,3325813.0,3403233.0,0.0
1586177657543,3336886.0,3413504.0,0.0
1586177657589,3342642.0,3410182.0,0.0
1586177657640,3339625.0,3408197.0,0.0
1586177657682,3332315.0,3401049.0,0.0
1586177657737,3330119.0,3403353.0,0.0
1586177657785,3343908.0,3407892.0,0.0
1586177657830,3362490.0,3417293.0,0.0
1586177657881,3380242.0,3427561.0,0.0
1586177657929,3398932.0,3438774.0,0.0
1586177657979,3423132.0,3450536.0,0.0
1586177658028,3438291.0,3449057.0,0.0
1586177658076,3383562.0,3365540.0,0.0
1586177658125,3322522.0,3287885.0,0.0
1586177658168,3296900.0,3261090.0,0.0
1586177658222,3295941.0,3259003.0,0.0
1586177658269,3308635.0,3271137.0,0.0
1586177658320,3319497.0,3280796.0,0.0
1586177658367,3314486.0,3275780.0,0.0
1586177658411,3311975.0,3264761.0,0.0
1586177658461,3313989.0,3262673.0,0.0
1586177658508,3321973.0,3269739.0,0.0
1586177658561,3334369.0,3283321.0,0.0
1586177658609,3344948.0,3300077.0,0.0
1586177658659,3352689.0,3319129.0,0.0
1586177658707,3357267.0,3343746.0,0.0
1586177658760,3350213.0,3375392.0,0.0
1586177658883,3303202.0,3338307.0,0.0
1586177658883,3241157.0,3267555.0,0.0
1586177658909,3200107.0,3236705.0,0.0
1586177659201,3221132.0,3283486.0,0.0
1586177659201,3228194.0,3289230.0,0.0
1586177659201,3228954.0,3284102.0,0.0
1586177659201,3230843.0,3287826.0,0.0
1586177659251,3238050.0,3299632.0,0.0
1586177659315,3252106.0,3321075.0,0.0
1586177659338,3263227.0,3342929.0,0.0
1586177659386,3273061.0,3364047.0,0.0
1586177659431,3286509.0,3384598.0,0.0
1586177659484,3301757.0,3401963.0,0.0
1586177659532,3323213.0,3425162.0,0.0
1586177659581,3317566.0,3401035.0,0.0
1586177659628,3258758.0,3312384.0,0.0
1586177659673,3223669.0,3262041.0,0.0
1586177659726,3218736.0,3252226.0,0.0
1586177659772,3228235.0,3259619.0,0.0
1586177659907,3239671.0,3276344.0,0.0
1586177659907,3252634.0,3287180.0,0.0
1586177659934,3250135.0,3282513.0,0.0
1586177660082,3251340.0,3283724.0,0.0
1586177660082,3258162.0,3292684.0,0.0
1586177660083,3273685.0,3311238.0,0.0
1586177660142,3292040.0,3331598.0,0.0
1586177660162,3311148.0,3351237.0,0.0
1586177660210,3328682.0,3376625.0,0.0
1586177660261,3348473.0,3395937.0,0.0
1586177660307,3365733.0,3414840.0,0.0
1586177660353,3384657.0,3438506.0,0.0
1586177660404,3370339.0,3411474.0,0.0
1586177660453,3310750.0,3327815.0,0.0
1586177660503,3272651.0,3281777.0,0.0
1586177660546,3268764.0,3276769.0,0.0
1586177660601,3275751.0,3285382.0,0.0
1586177660648,3289618.0,3302493.0,0.0
1586177660698,3292846.0,3304045.0,0.0
1586177660746,3284894.0,3295821.0,0.0
1586177660794,3281377.0,3291778.0,0.0
1586177660839,3286448.0,3298763.0,0.0
1586177660891,3296331.0,3311388.0,0.0
1586177660941,3311311.0,3321142.0,0.0
1586177661161,3326732.0,3330683.0,0.0
1586177661161,3336332.0,3340099.0,0.0
1586177661161,3347084.0,3354038.0,0.0
1586177661162,3352620.0,3365473.0,0.0
1586177661209,3292641.0,3300205.0,0.0
1586177661295,3234401.0,3234222.0,0.0
1586177661295,3214870.0,3212637.0,0.0
1586177661328,3220707.0,3219673.0,0.0
1586177661377,3236955.0,3232855.0,0.0
1586177661424,3250539.0,3245123.0,0.0
1586177661473,3250429.0,3242410.0,0.0
1586177661522,3247809.0,3240953.0,0.0
1586177661569,3250730.0,3249647.0,0.0
1586177661619,3261003.0,3263380.0,0.0
1586177661667,3269483.0,3283998.0,0.0
1586177661716,3275792.0,3306089.0,0.0
1586177661760,3280753.0,3331212.0,0.0
1586177661814,3292615.0,3352068.0,0.0
1586177661857,3303373.0,3374411.0,0.0
1586177662000,3320578.0,3396250.0,0.0
1586177662003,3342342.0,3416326.0,0.0
1586177662019,3308519.0,3354305.0,0.0
1586177662175,3253229.0,3276062.0,0.0
1586177662175,3229029.0,3247538.0,0.0
1586177662175,3220441.0,3247063.0,0.0
1586177662209,3214362.0,3256305.0,0.0
1586177662254,3222562.0,3267555.0,0.0
1586177662293,3234551.0,3275282.0,0.0
1586177662346,3239637.0,3273872.0,0.0
1586177662395,3246953.0,3278262.0,0.0
1586177662444,3261037.0,3292862.0,0.0
1586177662488,3278866.0,3313497.0,0.0
1586177662539,3299376.0,3336204.0,0.0
1586177662588,3319005.0,3360904.0,0.0
1586177662640,3342163.0,3385126.0,0.0
1586177662681,3359876.0,3405129.0,0.0
1586177662735,3378982.0,3426633.0,0.0
1586177662784,3397091.0,3445016.0,0.0
1586177662831,3414590.0,3464557.0,0.0
1586177662877,3384897.0,3418599.0,0.0
1586177662929,3326602.0,3343857.0,0.0
1586177662975,3300801.0,3311559.0,0.0
1586177663026,3299356.0,3312546.0,0.0
1586177663074,3308710.0,3326100.0,0.0
1586177663125,3320448.0,3338782.0,0.0
1586177663166,3318280.0,3333091.0,0.0
1586177663214,3312215.0,3320096.0,0.0
1586177663267,3312770.0,3316246.0,0.0
1586177663315,3319326.0,3326715.0,0.0
1586177663365,3332041.0,3342230.0,0.0
1586177663413,3342128.0,3358287.0,0.0
1586177663464,3350418.0,3373015.0,0.0
1586177663511,3356261.0,3386292.0,0.0
1586177663561,3364488.0,3403003.0,0.0
1586177663607,3377225.0,3421675.0,0.0
1586177663657,3393170.0,3445453.0,0.0
1586177663703,3385006.0,3429306.0,0.0
1586177663750,3323103.0,3345373.0,0.0
1586177663803,3281692.0,3293116.0,0.0
1586177663846,3270091.0,3282913.0,0.0
1586177663899,3275245.0,3287893.0,0.0
1586177663978,3278722.0,3296845.0,0.0
1586177664076,3263548.0,3301623.0,0.0
1586177664204,3237953.0,3300829.0,0.0
1586177664204,3240758.0,3311819.0,0.0
1586177664204,3258725.0,3330610.0,0.0
1586177664259,3275800.0,3355664.0,0.0
1586177664288,3295469.0,3376209.0,0.0
1586177664336,3318087.0,3392000.0,0.0
1586177664386,3339467.0,3407908.0,0.0
1586177664432,3358732.0,3420182.0,0.0
1586177664477,3375075.0,3434678.0,0.0
1586177664529,3400773.0,3447052.0,0.0
1586177664579,3426247.0,3451272.0,0.0
1586177664628,3455744.0,3459868.0,0.0
1586177664677,3470177.0,3462558.0,0.0
1586177664725,3417534.0,3387503.0,0.0
1586177664775,3339556.0,3304179.0,0.0
1586177664819,3293736.0,3273833.0,0.0
1586177664870,3266259.0,3273484.0,0.0
1586177664917,3265042.0,3285365.0,0.0
1586177664968,3274061.0,3297633.0,0.0
1586177665018,3278687.0,3297351.0,0.0
1586177665064,3276141.0,3288324.0,0.0
1586177665114,3276950.0,3282088.0,0.0
1586177665158,3289864.0,3288257.0,0.0
1586177665210,3307083.0,3299722.0,0.0
1586177665261,3322693.0,3313416.0,0.0
1586177665308,3341767.0,3329072.0,0.0
1586177665358,3358732.0,3345135.0,0.0
1586177665406,3376609.0,3360160.0,0.0
1586177665449,3388537.0,3373535.0,0.0
1586177665504,3404032.0,3387148.0,0.0
1586177665550,3417220.0,3400173.0,0.0
1586177665601,3430018.0,3414907.0,0.0
1586177665646,3446456.0,3432695.0,0.0
1586177665697,3437066.0,3417642.0,0.0
1586177665747,3378696.0,3332823.0,0.0
1586177665870,3331494.0,3271092.0,0.0
1586177665870,3318485.0,3256515.0,0.0
1586177665890,3325984.0,3266872.0,0.0
1586177666034,3339056.0,3282513.0,0.0
1586177666036,3342807.0,3287060.0,0.0
1586177666055,3334540.0,3275639.0,0.0
1586177666100,3326108.0,3267021.0,0.0
1586177666134,3329714.0,3271151.0,0.0
1586177666182,3339591.0,3283612.0,0.0
1586177666231,3352326.0,3300449.0,0.0
1586177666283,3362373.0,3317837.0,0.0
1586177666361,3374055.0,3337498.0,0.0
1586177666446,3393280.0,3356639.0,0.0
1586177666446,3407898.0,3370682.0,0.0
1586177666481,3418916.0,3392117.0,0.0
1586177666602,3429879.0,3411779.0,0.0
1586177666602,3403266.0,3378275.0,0.0
1586177666627,3337016.0,3295284.0,0.0
1586177666667,3292881.0,3244202.0,0.0
1586177666718,3283464.0,3235553.0,0.0
1586177666762,3287694.0,3239111.0,0.0
1586177666814,3292964.0,3252435.0,0.0
1586177666865,3295209.0,3262600.0,0.0
1586177666911,3290615.0,3259613.0,0.0
1586177666961,3285723.0,3256663.0,0.0
1586177667007,3291889.0,3258995.0,0.0
1586177667052,3300971.0,3274689.0,0.0
1586177667101,3315665.0,3293858.0,0.0
1586177667151,3330153.0,3317280.0,0.0
1586177667201,3342136.0,3339117.0,0.0
1586177667247,3358957.0,3357255.0,0.0
1586177667298,3376554.0,3374019.0,0.0
1586177667342,3393519.0,3390996.0,0.0
1586177667394,3409034.0,3401496.0,0.0
1586177667443,3368799.0,3335566.0,0.0
1586177667578,3314206.0,3257807.0,0.0
1586177667578,3286038.0,3221859.0,0.0
1586177667630,3288783.0,3217170.0,0.0
1586177667746,3293854.0,3223753.0,0.0
1586177667746,3306392.0,3238718.0,0.0
1586177667746,3307129.0,3234742.0,0.0
1586177667795,3302107.0,3225067.0,0.0
1586177667833,3299561.0,3224527.0,0.0
1586177667881,3307239.0,3235204.0,0.0
1586177667930,3319291.0,3251535.0,0.0
1586177667980,3330249.0,3273990.0,0.0
1586177668025,3331488.0,3296839.0,0.0
1586177668216,3326102.0,3319486.0,0.0
1586177668217,3317896.0,3340574.0,0.0
1586177668217,3322782.0,3361966.0,0.0
1586177668245,3297617.0,3330840.0,0.0
1586177668344,3247008.0,3263209.0,0.0
1586177668344,3224634.0,3230998.0,0.0
1586177668367,3226044.0,3232505.0,0.0
1586177668412,3237172.0,3244298.0,0.0
1586177668465,3254337.0,3258162.0,0.0
1586177668512,3254966.0,3257116.0,0.0
1586177668561,3248150.0,3247108.0,0.0
1586177668609,3250054.0,3250338.0,0.0
1586177668659,3254871.0,3261336.0,0.0
1586177668703,3267218.0,3280461.0,0.0
1586177668756,3287940.0,3296125.0,0.0
1586177668805,3309949.0,3307345.0,0.0
1586177668978,3331974.0,3317926.0,0.0
1586177668978,3348528.0,3333166.0,0.0
1586177668978,3331474.0,3300605.0,0.0
1586177669016,3273719.0,3213929.0,0.0
1586177669132,3238836.0,3169304.0,0.0
1586177669132,3215890.0,3176675.0,0.0
1586177669163,3206158.0,3188859.0,0.0
1586177669205,3199723.0,3211225.0,0.0
1586177669238,3207753.0,3223470.0,0.0
1586177669289,3205479.0,3217659.0,0.0
1586177669339,3203653.0,3203632.0,0.0
1586177669381,3217881.0,3199002.0,0.0
1586177669436,3234982.0,3209443.0,0.0
1586177669566,3247672.0,3228405.0,0.0
1586177669566,3261838.0,3254314.0,0.0
1586177669593,3279030.0,3279317.0,0.0
1586177669730,3294606.0,3299149.0,0.0
1586177669731,3308580.0,3304254.0,0.0
1586177669731,3270905.0,3229482.0,0.0
1586177669785,3218066.0,3155141.0,0.0
1586177669824,3196233.0,3141869.0,0.0
1586177669872,3187480.0,3156567.0,0.0
1586177669921,3183093.0,3171844.0,0.0
1586177669967,3188260.0,3191936.0,0.0
1586177670019,3188465.0,3199924.0,0.0
1586177670065,3186364.0,3203334.0,0.0
1586177670115,3184195.0,3209665.0,0.0
1586177670160,3191470.0,3226644.0,0.0
1586177670213,3207088.0,3246029.0,0.0
1586177670260,3227270.0,3267451.0,0.0
1586177670307,3249135.0,3291377.0,0.0
1586177670360,3268784.0,3313468.0,0.0
1586177670404,3289459.0,3330222.0,0.0
1586177670579,3311209.0,3357114.0,0.0
1586177670579,3317321.0,3362813.0,0.0
1586177670579,3258963.0,3292507.0,0.0
1586177670626,3202442.0,3229921.0,0.0
1586177670856,3217231.0,3238056.0,0.0
1586177670856,3225088.0,3244745.0,0.0
1586177670857,3220173.0,3236356.0,0.0
1586177670893,3210989.0,3225805.0,0.0
1586177670963,3210634.0,3227877.0,0.0
1586177670984,3223163.0,3239289.0,0.0
1586177671038,3234675.0,3252226.0,0.0
1586177671084,3250813.0,3262205.0,0.0
1586177671134,3263748.0,3275698.0,0.0
1586177671185,3276840.0,3289333.0,0.0
1586177671227,3289419.0,3303606.0,0.0
1586177671281,3301408.0,3309700.0,0.0
1586177671323,3252299.0,3238265.0,0.0
1586177671379,3199744.0,3167995.0,0.0
1586177671422,3181787.0,3143186.0,0.0
1586177671475,3182053.0,3143988.0,0.0
1586177671524,3192846.0,3151709.0,0.0
1586177671572,3200991.0,3157504.0,0.0
1586177671620,3200737.0,3156561.0,0.0
1586177671799,3197370.0,3148804.0,0.0
1586177671799,3201804.0,3149478.0,0.0
1586177671799,3214055.0,3159836.0,0.0
1586177671825,3227085.0,3176102.0,0.0
1586177671937,3245462.0,3193660.0,0.0
1586177671937,3259387.0,3213255.0,0.0
1586177671964,3271001.0,3237418.0,0.0
1586177672008,3283498.0,3261255.0,0.0
1586177672057,3287598.0,3283262.0,0.0
1586177672106,3296891.0,3308483.0,0.0
1586177672154,3289358.0,3317800.0,0.0
1586177672203,3228318.0,3246230.0,0.0
1586177672247,3178016.0,3177864.0,0.0
1586177672301,3170090.0,3158619.0,0.0
1586177672345,3176817.0,3160982.0,0.0
1586177672397,3187254.0,3167744.0,0.0
1586177672445,3198923.0,3178918.0,0.0
1586177672493,3198492.0,3177900.0,0.0
1586177672538,3196186.0,3171919.0,0.0
1586177672584,3192175.0,3174282.0,0.0
1586177672642,3190274.0,3188748.0,0.0
1586177672685,3201338.0,3209449.0,0.0
1586177672736,3216436.0,3224645.0,0.0
1586177672785,3233970.0,3242768.0,0.0
1586177672833,3253892.0,3257337.0,0.0
1586177672882,3270619.0,3273195.0,0.0
1586177672924,3292669.0,3286889.0,0.0
1586177672979,3322863.0,3294669.0,0.0
1586177673027,3348173.0,3299996.0,0.0
1586177673076,3335271.0,3267852.0,0.0
1586177673124,3266560.0,3179735.0,0.0
1586177673173,3205985.0,3135384.0,0.0
1586177673221,3184702.0,3135585.0,0.0
1586177673438,3180499.0,3155171.0,0.0
1586177673439,3191942.0,3182514.0,0.0
1586177673439,3191525.0,3194337.0,0.0
1586177673441,3184203.0,3192271.0,0.0
1586177673473,3182287.0,3189782.0,0.0
1586177673567,3196330.0,3195881.0,0.0
1586177673569,3217777.0,3212005.0,0.0
1586177673607,3238706.0,3229102.0,0.0
1586177673659,3260913.0,3245153.0,0.0
1586177673707,3280542.0,3263811.0,0.0
1586177673756,3296585.0,3279548.0,0.0
1586177673804,3312796.0,3295091.0,0.0
1586177673849,3327758.0,3310845.0,0.0
1586177673901,3341972.0,3328818.0,0.0
1586177673950,3321762.0,3294266.0,0.0
1586177673995,3255241.0,3205481.0,0.0
1586177674042,3213966.0,3154265.0,0.0
1586177674096,3203523.0,3145801.0,0.0
1586177674145,3208764.0,3149844.0,0.0
1586177674187,3219783.0,3162481.0,0.0
1586177674241,3226400.0,3167817.0,0.0
1586177674288,3225463.0,3163233.0,0.0
1586177674339,3219586.0,3159763.0,0.0
1586177674386,3223808.0,3169645.0,0.0
1586177674435,3235496.0,3182618.0,0.0
1586177674484,3250909.0,3200243.0,0.0
1586177674529,3272336.0,3221166.0,0.0
1586177674679,3290069.0,3241906.0,0.0
1586177674679,3305138.0,3260586.0,0.0
1586177674679,3319785.0,3280505.0,0.0
1586177674840,3333814.0,3299230.0,0.0
1586177674841,3340856.0,3324196.0,0.0
1586177674841,3350670.0,3344237.0,0.0
1586177674872,3311510.0,3291926.0,0.0
1586177674920,3247904.0,3216806.0,0.0
1586177674968,3220658.0,3183941.0,0.0
1586177675018,3210209.0,3188504.0,0.0
1586177675062,3210441.0,3208336.0,0.0
1586177675110,3204404.0,3229141.0,0.0
1586177675164,3204419.0,3237002.0,0.0
1586177675208,3215512.0,3233235.0,0.0
1586177675262,3229630.0,3226138.0,0.0
1586177675308,3240116.0,3232186.0,0.0
1586177675351,3252975.0,3249521.0,0.0
1586177675400,3270824.0,3268224.0,0.0
1586177675450,3287659.0,3289490.0,0.0
1586177675503,3302278.0,3306839.0,0.0
1586177675549,3314159.0,3318074.0,0.0
1586177675600,3327717.0,3333343.0,0.0
1586177675649,3343347.0,3345781.0,0.0
1586177675697,3332205.0,3322607.0,0.0
1586177675746,3273130.0,3243288.0,0.0
1586177675789,3235297.0,3195034.0,0.0
1586177675844,3225498.0,3189284.0,0.0
1586177675889,3231794.0,3204902.0,0.0
1586177675941,3238418.0,3230425.0,0.0
1586177675987,3244332.0,3241409.0,0.0
1586177676038,3239480.0,3231934.0,0.0
1586177676085,3237302.0,3228442.0,0.0
1586177676132,3243477.0,3235872.0,0.0
1586177676183,3252805.0,3253719.0,0.0
1586177676230,3253195.0,3273856.0,0.0
1586177676281,3260881.0,3294238.0,0.0
1586177676327,3273500.0,3317443.0,0.0
1586177676378,3287523.0,3337691.0,0.0
1586177676425,3309620.0,3353874.0,0.0
1586177676468,3302688.0,3317747.0,0.0
1586177676524,3249519.0,3217601.0,0.0
1586177676572,3220461.0,3154212.0,0.0
1586177676620,3218750.0,3134240.0,0.0
1586177676667,3221207.0,3142962.0,0.0
1586177676719,3212166.0,3166717.0,0.0
1586177676767,3214732.0,3181116.0,0.0
1586177676811,3218783.0,3178636.0,0.0
1586177676954,3228399.0,3166793.0,0.0
1586177676954,3248170.0,3158901.0,0.0
1586177676975,3259656.0,3175574.0,0.0
1586177677103,3260078.0,3203504.0,0.0
1586177677103,3267868.0,3226888.0,0.0
1586177677120,3286729.0,3247611.0,0.0
1586177677162,3312611.0,3258506.0,0.0
1586177677204,3336504.0,3266202.0,0.0
1586177677251,3317457.0,3238056.0,0.0
1586177677301,3234840.0,3163723.0,0.0
1586177677348,3188404.0,3125457.0,0.0
1586177677399,3190300.0,3122856.0,0.0
1586177677446,3204412.0,3126148.0,0.0
1586177677495,3232930.0,3131676.0,0.0
1586177677544,3243613.0,3126192.0,0.0
1586177677591,3232280.0,3124929.0,0.0
1586177677641,3222337.0,3131044.0,0.0
1586177677683,3214850.0,3140591.0,0.0
1586177677733,3224799.0,3167022.0,0.0
1586177677787,3238883.0,3191052.0,0.0
1586177677832,3258546.0,3214197.0,0.0
1586177677883,3275889.0,3237611.0,0.0
1586177677931,3292505.0,3256730.0,0.0
1586177677981,3301977.0,3261202.0,0.0
1586177678027,3256766.0,3193037.0,0.0
1586177678072,3209799.0,3126178.0,0.0
1586177678125,3195160.0,3110127.0,0.0
1586177678173,3200318.0,3118270.0,0.0
1586177678222,3217135.0,3137739.0,0.0
1586177678270,3226749.0,3150742.0,0.0
1586177678321,3222233.0,3145289.0,0.0
1586177678368,3217326.0,3142473.0,0.0
1586177678413,3219311.0,3143625.0,0.0
1586177678464,3230665.0,3156055.0,0.0
1586177678512,3246439.0,3169852.0,0.0
1586177678646,3262248.0,3189268.0,0.0
1586177678647,3278900.0,3207889.0,0.0
1586177678669,3293811.0,3226784.0,0.0
1586177678818,3299842.0,3231725.0,0.0
1586177678819,3243729.0,3153603.0,0.0
1586177678819,3189445.0,3084812.0,0.0
1586177678864,3166963.0,3067247.0,0.0
1586177678902,3168373.0,3071148.0,0.0
1586177678950,3176441.0,3087130.0,0.0
1586177678995,3174127.0,3105223.0,0.0
1586177679047,3162528.0,3112915.0,0.0
1586177679095,3147164.0,3114995.0,0.0
1586177679144,3138718.0,3126385.0,0.0
1586177679193,3137328.0,3150876.0,0.0
1586177679238,3154385.0,3174810.0,0.0
1586177679290,3177010.0,3196038.0,0.0
1586177679335,3198978.0,3212830.0,0.0
1586177679386,3218462.0,3229742.0,0.0
1586177679435,3227044.0,3246957.0,0.0
1586177679484,3188829.0,3204203.0,0.0
1586177679533,3112862.0,3134299.0,0.0
1586177679581,3082634.0,3102317.0,0.0
1586177679629,3092516.0,3096671.0,0.0
1586177679675,3108538.0,3097532.0,0.0
1586177679727,3126324.0,3107171.0,0.0
1586177679776,3135181.0,3107325.0,0.0
1586177679824,3137186.0,3096165.0,0.0
1586177679868,3142599.0,3093863.0,0.0
1586177679922,3152995.0,3097823.0,0.0
1586177679968,3169064.0,3116005.0,0.0
1586177680014,3189028.0,3134618.0,0.0
1586177680066,3208943.0,3149791.0,0.0
1586177680115,3232896.0,3162912.0,0.0
1586177680160,3254714.0,3171340.0,0.0
1586177680380,3267970.0,3182744.0,0.0
1586177680381,3224773.0,3152154.0,0.0
1586177680382,3149224.0,3087063.0,0.0
1586177680383,3103467.0,3064803.0,0.0
1586177680419,3091947.0,3077180.0,0.0
1586177680516,3100387.0,3102445.0,0.0
1586177680516,3114191.0,3125443.0,0.0
1586177680549,3121527.0,3125851.0,0.0
1586177680599,3121267.0,3116377.0,0.0
1586177680646,3128356.0,3118665.0,0.0
1586177680696,3146684.0,3126786.0,0.0
1586177680746,3163658.0,3137434.0,0.0
1586177680798,3182573.0,3159718.0,0.0
1586177680840,3194030.0,3183845.0,0.0
1586177680888,3207635.0,3202911.0,0.0
1586177680942,3222836.0,3224829.0,0.0
1586177680989,3230959.0,3231177.0,0.0
1586177681036,3179308.0,3153848.0,0.0
1586177681086,3130430.0,3087636.0,0.0
1586177681136,3120678.0,3071504.0,0.0
1586177681185,3127665.0,3074923.0,0.0
1586177681316,3141113.0,3087124.0,0.0
1586177681317,3151071.0,3096872.0,0.0
1586177681331,3153680.0,3092057.0,0.0
1586177681490,3147895.0,3087524.0,0.0
1586177681490,3148554.0,3099479.0,0.0
1586177681490,3132962.0,3129662.0,0.0
1586177681544,3140156.0,3161984.0,0.0
1586177681572,3166750.0,3187033.0,0.0
1586177681617,3196288.0,3205459.0,0.0
1586177681665,3215705.0,3224764.0,0.0
1586177681717,3237453.0,3246764.0,0.0
1586177681767,3254261.0,3268864.0,0.0
1586177681816,3252819.0,3269977.0,0.0
1586177681860,3179528.0,3190962.0,0.0
1586177681912,3122704.0,3124268.0,0.0
1586177681957,3120932.0,3104719.0,0.0
1586177682009,3134126.0,3106791.0,0.0
1586177682058,3154110.0,3120426.0,0.0
1586177682106,3170584.0,3131794.0,0.0
1586177682154,3173875.0,3128385.0,0.0
1586177682200,3175312.0,3123955.0,0.0
1586177682247,3187543.0,3128704.0,0.0
1586177682297,3205705.0,3142450.0,0.0
1586177682348,3224874.0,3157971.0,0.0
1586177682398,3246679.0,3179133.0,0.0
1586177682442,3266663.0,3198652.0,0.0
1586177682494,3284677.0,3214665.0,0.0
1586177682540,3302511.0,3224236.0,0.0
1586177682592,3319306.0,3236711.0,0.0
1586177682642,3337886.0,3248363.0,0.0
1586177682683,3329584.0,3223917.0,0.0
1586177682732,3274924.0,3144730.0,0.0
1586177682779,3237707.0,3093380.0,0.0
1586177682828,3234655.0,3089448.0,0.0
1586177682880,3244619.0,3097837.0,0.0
1586177682926,3258786.0,3115983.0,0.0
1586177682979,3263337.0,3115857.0,0.0
1586177683025,3257971.0,3103544.0,0.0
1586177683073,3257512.0,3102697.0,0.0
1586177683123,3266108.0,3111732.0,0.0
1586177683171,3282452.0,3125991.0,0.0
1586177683219,3294155.0,3164682.0,0.0
1586177683272,3309389.0,3201491.0,0.0
1586177683322,3327093.0,3233375.0,0.0
1586177683369,3336080.0,3253327.0,0.0
1586177683419,3348187.0,3274680.0,0.0
1586177683466,3363057.0,3297960.0,0.0
1586177683514,3344546.0,3269048.0,0.0
1586177683559,3285682.0,3185182.0,0.0
1586177683607,3242046.0,3139766.0,0.0
1586177683661,3219831.0,3146008.0,0.0
1586177683704,3227885.0,3163678.0,0.0
1586177683759,3246837.0,3180115.0,0.0
1586177683800,3261011.0,3184290.0,0.0
1586177683854,3261133.0,3177388.0,0.0
1586177683901,3263166.0,3179609.0,0.0
1586177683951,3277072.0,3189721.0,0.0
1586177684001,3296050.0,3206062.0,0.0
1586177684046,3316370.0,3227475.0,0.0
1586177684097,3334595.0,3246906.0,0.0
1586177684140,3342301.0,3267080.0,0.0
1586177684194,3345066.0,3285581.0,0.0
1586177684240,3343368.0,3302946.0,0.0
1586177684291,3354016.0,3326835.0,0.0
1586177684334,3368389.0,3349564.0,0.0
1586177684381,3376286.0,3366631.0,0.0
1586177684438,3343183.0,3314263.0,0.0
1586177684594,3291875.0,3231890.0,0.0
1586177684594,3267559.0,3199278.0,0.0
1586177684594,3261592.0,3199821.0,0.0
1586177684737,3261358.0,3218909.0,0.0
1586177684737,3264814.0,3262390.0,0.0
1586177684737,3260858.0,3342336.0,0.0
1586177684795,3266137.0,3440089.0,0.0
1586177684820,3315535.0,3553974.0,0.0
1586177684870,3385744.0,3635061.0,0.0
1586177684925,3445731.0,3690561.0,0.0
1586177684970,3495909.0,3741206.0,0.0
1586177685021,3540591.0,3781508.0,0.0
1586177685066,3578514.0,3805204.0,0.0
1586177685117,3607621.0,3806021.0,0.0
1586177685160,3625837.0,3793879.0,0.0
1586177685210,3644432.0,3785839.0,0.0
1586177685266,3662691.0,3762872.0,0.0
1586177685310,3615839.0,3655318.0,0.0
1586177685360,3549147.0,3544665.0,0.0
1586177685403,3510473.0,3484107.0,0.0
1586177685452,3497669.0,3457818.0,0.0
1586177685503,3492488.0,3451895.0,0.0
1586177685546,3482420.0,3448246.0,0.0
1586177685599,3466884.0,3422025.0,0.0
1586177685645,3449063.0,3393507.0,0.0
1586177685697,3440455.0,3382786.0,0.0
1586177685742,3440227.0,3382280.0,0.0
1586177685792,3445778.0,3387347.0,0.0
1586177685840,3451540.0,3393672.0,0.0
1586177685887,3458870.0,3403820.0,0.0
1586177685943,3467623.0,3420830.0,0.0
1586177685990,3471888.0,3422041.0,0.0
1586177686041,3424083.0,3334467.0,0.0
1586177686087,3365713.0,3254046.0,0.0
1586177686138,3334259.0,3227343.0,0.0
1586177686183,3326457.0,3223604.0,0.0
1586177686234,3326992.0,3230841.0,0.0
1586177686283,3331000.0,3235864.0,0.0
1586177686331,3327339.0,3228649.0,0.0
1586177686381,3319722.0,3221449.0,0.0
1586177686427,3322884.0,3217103.0,0.0
1586177686477,3330379.0,3221323.0,0.0
1586177686523,3336257.0,3241557.0,0.0
1586177686573,3350007.0,3265631.0,0.0
1586177686623,3358807.0,3283271.0,0.0
1586177686670,3368655.0,3300161.0,0.0
1586177686721,3370995.0,3304084.0,0.0
1586177686762,3316041.0,3223040.0,0.0
1586177686817,3263481.0,3145140.0,0.0
1586177686866,3227475.0,3120077.0,0.0
1586177686907,3197370.0,3126637.0,0.0
1586177686959,3186795.0,3141528.0,0.0
1586177687006,3176852.0,3157822.0,0.0
1586177687058,3178617.0,3165104.0,0.0
1586177687101,3189239.0,3158351.0,0.0
1586177687158,3199232.0,3155275.0,0.0
1586177687203,3209614.0,3164718.0,0.0
1586177687254,3224773.0,3184186.0,0.0
1586177687303,3237270.0,3201342.0,0.0
1586177687350,3249944.0,3219896.0,0.0
1586177687399,3262886.0,3240970.0,0.0
1586177687442,3282478.0,3246594.0,0.0
1586177687497,3242676.0,3181511.0,0.0
1586177687546,3184963.0,3117521.0,0.0
1586177687593,3167203.0,3102407.0,0.0
1586177687643,3165834.0,3110745.0,0.0
1586177687685,3177126.0,3130368.0,0.0
1586177687741,3187734.0,3144114.0,0.0
1586177687783,3194435.0,3128295.0,0.0
1586177687837,3197663.0,3111769.0,0.0
1586177687882,3207984.0,3105655.0,0.0
1586177687934,3221672.0,3108813.0,0.0
1586177687980,3238775.0,3116830.0,0.0
1586177688030,3256055.0,3130138.0,0.0
1586177688077,3273541.0,3149427.0,0.0
1586177688124,3295242.0,3164452.0,0.0
1586177688176,3309210.0,3170887.0,0.0
1586177688225,3263242.0,3103581.0,0.0
1586177688275,3211660.0,3037949.0,0.0
1586177688323,3197541.0,3018065.0,0.0
1586177688365,3198191.0,3023481.0,0.0
1586177688421,3215026.0,3042421.0,0.0
1586177688466,3226244.0,3056806.0,0.0
1586177688517,3225620.0,3054697.0,0.0
1586177688565,3222034.0,3049555.0,0.0
1586177688614,3223383.0,3058688.0,0.0
1586177688663,3234525.0,3076148.0,0.0
1586177688706,3250066.0,3100245.0,0.0
1586177688761,3265808.0,3122090.0,0.0
1586177688806,3281952.0,3143393.0,0.0
1586177688857,3297446.0,3166829.0,0.0
1586177688904,3277612.0,3131735.0,0.0
1586177688953,3218586.0,3048939.0,0.0
1586177689002,3187289.0,3011535.0,0.0
1586177689046,3184538.0,3011921.0,0.0
1586177689099,3195857.0,3025310.0,0.0
1586177689145,3207738.0,3043173.0,0.0
1586177689195,3215150.0,3049362.0,0.0
1586177689245,3213385.0,3046560.0,0.0
1586177689293,3216751.0,3048092.0,0.0
1586177689342,3224917.0,3061831.0,0.0
1586177689384,3240663.0,3080592.0,0.0
1586177689441,3261051.0,3105885.0,0.0
1586177689617,3278886.0,3130152.0,0.0
1586177689617,3293155.0,3142948.0,0.0
1586177689618,3253140.0,3079864.0,0.0
1586177689646,3205404.0,3016216.0,0.0
1586177689772,3185879.0,3002030.0,0.0
1586177689772,3182287.0,3021305.0,0.0
1586177689795,3181746.0,3049116.0,0.0
1586177689827,3174641.0,3069893.0,0.0
1586177689871,3174395.0,3082189.0,0.0
1586177689924,3173315.0,3096017.0,0.0
1586177689971,3181013.0,3114363.0,0.0
1586177690020,3197740.0,3139612.0,0.0
1586177690065,3216902.0,3172008.0,0.0
1586177690118,3242353.0,3203892.0,0.0
1586177690166,3266759.0,3232782.0,0.0
1586177690215,3275286.0,3237231.0,0.0
1586177690264,3234970.0,3158387.0,0.0
1586177690312,3203569.0,3107951.0,0.0
1586177690362,3206519.0,3104020.0,0.0
1586177690406,3221898.0,3122180.0,0.0
1586177690455,3247910.0,3150088.0,0.0
1586177690506,3266115.0,3166421.0,0.0
1586177690556,3272336.0,3167156.0,0.0
1586177690758,3280583.0,3168507.0,0.0
1586177690759,3290089.0,3179066.0,0.0
1586177690760,3300670.0,3196379.0,0.0
1586177690761,3313304.0,3219258.0,0.0
1586177690881,3337161.0,3247835.0,0.0
1586177690881,3360162.0,3270617.0,0.0
1586177690901,3379222.0,3289171.0,0.0
1586177690944,3365048.0,3255942.0,0.0
1586177690994,3314171.0,3178940.0,0.0
1586177691042,3287159.0,3148958.0,0.0
1586177691087,3288829.0,3157451.0,0.0
1586177691140,3303188.0,3180294.0,0.0
1586177691187,3318066.0,3201032.0,0.0
1586177691236,3323534.0,3207556.0,0.0
1586177691284,3323924.0,3204122.0,0.0
1586177691329,3328093.0,3211166.0,0.0
1586177691382,3341718.0,3228582.0,0.0
1586177691428,3360170.0,3249024.0,0.0
1586177691479,3379106.0,3269577.0,0.0
1586177691526,3399070.0,3292544.0,0.0
1586177691575,3414804.0,3315013.0,0.0
1586177691624,3432714.0,3333382.0,0.0
1586177691668,3448892.0,3349749.0,0.0
1586177691722,3462217.0,3369819.0,0.0
1586177691771,3478956.0,3393255.0,0.0
1586177691819,3493855.0,3414016.0,0.0
1586177691867,3463675.0,3350174.0,0.0
1586177692005,3406864.0,3260198.0,0.0
1586177692009,3379161.0,3226146.0,0.0
1586177692027,3369969.0,3230604.0,0.0
1586177692182,3364386.0,3243778.0,0.0
1586177692182,3360211.0,3260147.0,0.0
1586177692182,3354051.0,3266137.0,0.0
1586177692212,3351109.0,3262429.0,0.0
1586177692256,3360026.0,3263557.0,0.0
1586177692303,3371784.0,3273179.0,0.0
1586177692350,3385232.0,3287714.0,0.0
1586177692400,3407227.0,3302107.0,0.0
1586177692449,3424166.0,3316484.0,0.0
1586177692498,3444752.0,3328737.0,0.0
1586177692546,3467891.0,3343071.0,0.0
1586177692591,3489653.0,3356214.0,0.0
1586177692643,3512129.0,3372858.0,0.0
1586177692692,3533393.0,3386040.0,0.0
1586177692736,3552323.0,3398901.0,0.0
1586177692789,3569739.0,3414662.0,0.0
1586177692838,3586186.0,3434315.0,0.0
1586177692881,3603275.0,3453576.0,0.0
1586177692929,3578288.0,3398538.0,0.0
1586177692983,3519355.0,3305860.0,0.0
1586177693029,3481961.0,3258156.0,0.0
1586177693081,3474824.0,3254434.0,0.0
1586177693128,3480846.0,3263906.0,0.0
1586177693178,3490173.0,3277683.0,0.0
1586177693225,3491653.0,3275863.0,0.0
1586177693269,3479539.0,3259144.0,0.0
1586177693323,3472290.0,3252614.0,0.0
1586177693370,3473434.0,3257488.0,0.0
1586177693420,3479300.0,3269621.0,0.0
1586177693467,3492022.0,3286741.0,0.0
1586177693517,3503841.0,3303637.0,0.0
1586177693566,3516009.0,3316536.0,0.0
1586177693610,3527952.0,3334444.0,0.0
1586177693663,3539409.0,3350337.0,0.0
1586177693710,3549118.0,3365004.0,0.0
1586177693760,3560261.0,3380437.0,0.0
1586177693807,3571998.0,3395417.0,0.0
1586177693858,3581559.0,3414172.0,0.0
1586177693901,3570753.0,3395431.0,0.0
1586177693950,3507612.0,3316321.0,0.0
1586177694003,3448441.0,3264709.0,0.0
1586177694050,3416281.0,3266677.0,0.0
1586177694102,3405092.0,3294831.0,0.0
1586177694147,3391890.0,3324881.0,0.0
1586177694197,3386142.0,3350895.0,0.0
1586177694246,3378927.0,3357210.0,0.0
1586177694291,3373515.0,3359477.0,0.0
1586177694343,3376595.0,3367011.0,0.0
1586177694390,3387867.0,3380705.0,0.0
1586177694441,3400590.0,3399972.0,0.0
1586177694486,3419717.0,3420034.0,0.0
1586177694537,3436190.0,3442913.0,0.0
1586177694586,3451144.0,3464222.0,0.0
1586177694631,3468856.0,3484336.0,0.0
1586177694742,3481230.0,3502437.0,0.0
1586177694742,3499735.0,3517744.0,0.0
1586177694891,3513250.0,3532806.0,0.0
1586177694893,3527424.0,3545921.0,0.0
1586177694893,3486238.0,3477597.0,0.0
1586177694976,3423207.0,3388113.0,0.0
1586177695013,3386936.0,3341880.0,0.0
1586177695022,3377751.0,3338055.0,0.0
1586177695070,3378299.0,3348309.0,0.0
1586177695117,3384909.0,3358785.0,0.0
1586177695168,3389994.0,3363793.0,0.0
1586177695214,3382603.0,3361015.0,0.0
1586177695265,3368224.0,3362143.0,0.0
1586177695313,3362283.0,3367940.0,0.0
1586177695363,3363441.0,3378602.0,0.0
1586177695411,3366233.0,3399058.0,0.0
1586177695455,3376130.0,3418890.0,0.0
1586177695507,3392219.0,3439099.0,0.0
1586177695552,3402532.0,3453025.0,0.0
1586177695605,3410308.0,3472589.0,0.0
1586177695652,3416919.0,3492020.0,0.0
1586177695703,3424071.0,3513329.0,0.0
1586177695746,3394519.0,3484003.0,0.0
1586177695802,3339440.0,3404667.0,0.0
1586177695847,3305872.0,3360479.0,0.0
1586177695894,3296516.0,3354469.0,0.0
1586177695945,3305858.0,3365822.0,0.0
1586177695994,3322536.0,3384911.0,0.0
1586177696043,3330474.0,3393806.0,0.0
1586177696091,3321476.0,3387385.0,0.0
1586177696142,3315124.0,3382341.0,0.0
1586177696188,3320003.0,3373283.0,0.0
1586177696235,3328599.0,3376016.0,0.0
1586177696285,3335710.0,3390134.0,0.0
1586177696333,3348542.0,3406214.0,0.0
1586177696383,3361840.0,3417144.0,0.0
1586177696429,3374610.0,3430645.0,0.0
1586177696482,3367677.0,3415673.0,0.0
1586177696526,3317396.0,3343225.0,0.0
1586177696576,3271706.0,3292135.0,0.0
1586177696624,3257260.0,3278575.0,0.0
1586177696673,3268443.0,3283189.0,0.0
1586177696723,3284772.0,3299535.0,0.0
1586177696770,3293614.0,3312264.0,0.0
1586177696820,3286085.0,3310220.0,0.0
1586177696868,3276525.0,3299260.0,0.0
1586177696916,3269339.0,3299202.0,0.0
1586177696964,3269558.0,3309834.0,0.0
1586177697013,3270934.0,3328060.0,0.0
1586177697063,3272131.0,3347277.0,0.0
1586177697109,3269723.0,3371765.0,0.0
1586177697153,3276485.0,3390529.0,0.0
1586177697202,3243997.0,3358734.0,0.0
1586177697255,3168154.0,3282549.0,0.0
1586177697304,3124963.0,3236764.0,0.0
1586177697353,3124325.0,3234661.0,0.0
1586177697400,3144645.0,3244722.0,0.0
1586177697450,3175176.0,3260525.0,0.0
1586177697493,3199766.0,3269294.0,0.0
1586177697546,3184682.0,3264851.0,0.0
1586177697596,3151989.0,3279057.0,0.0
1586177697644,3147294.0,3312635.0,0.0
1586177697691,3161124.0,3355322.0,0.0
1586177697740,3183382.0,3407693.0,0.0
1586177697791,3217320.0,3476705.0,0.0
1586177697835,3260653.0,3542501.0,0.0
1586177697882,3300868.0,3591885.0,0.0
1586177697936,3315260.0,3597249.0,0.0
1586177697985,3262858.0,3499406.0,0.0
1586177698032,3209790.0,3417567.0,0.0
1586177698077,3191771.0,3369522.0,0.0
1586177698129,3186058.0,3354237.0,0.0
1586177698179,3190046.0,3351206.0,0.0
1586177698226,3192510.0,3345322.0,0.0
1586177698276,3183114.0,3322823.0,0.0
1586177698320,3173306.0,3305821.0,0.0
1586177698371,3168160.0,3300508.0,0.0
1586177698421,3178288.0,3300033.0,0.0
1586177698468,3189699.0,3304254.0,0.0
1586177698516,3197013.0,3320147.0,0.0
1586177698566,3210900.0,3340818.0,0.0
1586177698615,3220898.0,3347246.0,0.0
1586177698663,3203092.0,3315868.0,0.0
1586177698712,3144179.0,3238590.0,0.0
1586177698757,3108941.0,3193490.0,0.0
1586177698809,3107429.0,3179684.0,0.0
1586177698856,3108750.0,3161583.0,0.0
1586177698902,3087800.0,3170434.0,0.0
1586177698955,3064683.0,3203817.0,0.0
1586177699005,3092297.0,3255363.0,0.0
1586177699052,3142133.0,3271204.0,0.0
1586177699098,3192545.0,3265771.0,0.0
1586177699148,3219777.0,3261537.0,0.0
1586177699198,3207608.0,3262071.0,0.0
1586177699247,3172445.0,3273679.0,0.0
1586177699291,3207279.0,3296719.0,0.0
1586177699340,3263392.0,3312770.0,0.0
1586177699392,3435710.0,3425682.0,0.0
1586177699437,3646382.0,3652502.0,0.0
1586177699484,3836997.0,3801435.0,0.0
1586177699537,3958568.0,3940161.0,0.0
1586177699583,4074256.0,4041364.0,0.0
1586177699635,4140982.0,4032491.0,0.0
1586177699685,4221801.0,3948401.0,0.0
1586177699733,4313402.0,3941438.0,0.0
1586177699780,4318986.0,3997598.0,0.0
1586177699830,4315822.0,4016591.0,0.0
1586177699880,4309034.0,4046110.0,0.0
1586177699923,4297071.0,4058260.0,0.0
1586177699976,4331920.0,4082675.0,0.0
1586177700020,4355169.0,4097225.0,0.0
1586177700070,4397976.0,4134979.0,0.0
1586177700118,4379572.0,4088301.0,0.0
1586177700165,4348615.0,4012852.0,0.0
1586177700220,4328236.0,3955787.0,0.0
1586177700267,4317131.0,3902065.0,0.0
1586177700316,4292788.0,3857617.0,0.0
1586177700360,4226490.0,3803034.0,0.0
1586177700413,4132711.0,3787845.0,0.0
1586177700464,4174234.0,3820227.0,0.0
1586177700509,4293205.0,3874082.0,0.0
1586177700560,4406211.0,3932887.0,0.0
1586177700606,4573068.0,3991572.0,0.0
1586177700657,4645538.0,3984237.0,0.0
1586177700699,4717161.0,3982612.0,0.0
1586177700753,4738659.0,3926489.0,0.0
1586177700804,4682138.0,3787369.0,0.0
1586177700850,4547693.0,3652902.0,0.0
1586177700898,4425500.0,3557688.0,0.0
1586177700946,4354025.0,3530747.0,0.0
1586177700996,4379408.0,3558365.0,0.0
1586177701039,4426028.0,3575529.0,0.0
1586177701093,4407312.0,3555378.0,0.0
1586177701144,4368501.0,3535829.0,0.0
1586177701190,4295675.0,3515633.0,0.0
1586177701240,4229412.0,3504414.0,0.0
1586177701285,4167170.0,3473517.0,0.0
1586177701336,4095357.0,3467536.0,0.0
1586177701381,4046283.0,3483259.0,0.0
1586177701434,3974237.0,3453486.0,0.0
1586177701485,3853801.0,3409550.0,0.0
1586177701530,3760422.0,3434546.0,0.0
1586177701580,3724029.0,3475242.0,0.0
1586177701629,3711209.0,3503648.0,0.0
1586177701677,3698777.0,3531721.0,0.0
1586177701720,3681509.0,3549500.0,0.0
1586177701774,3657341.0,3560356.0,0.0
1586177701822,3645179.0,3579156.0,0.0
1586177701870,3647016.0,3596460.0,0.0
1586177701916,3651376.0,3615223.0,0.0
1586177701965,3640376.0,3613923.0,0.0
1586177702012,3635955.0,3617050.0,0.0
1586177702060,3629878.0,3619049.0,0.0
1586177702111,3618539.0,3610526.0,0.0
1586177702160,3519083.0,3478519.0,0.0
1586177702210,3398733.0,3343116.0,0.0
1586177702258,3322587.0,3268498.0,0.0
1586177702308,3273825.0,3230872.0,0.0
1586177702357,3255092.0,3227326.0,0.0
1586177702399,3257563.0,3235167.0,0.0
1586177702449,3255249.0,3233917.0,0.0
1586177702503,3244690.0,3227958.0,0.0
1586177702551,3243440.0,3231652.0,0.0
1586177702600,3253558.0,3245718.0,0.0
1586177702648,3266161.0,3264048.0,0.0
1586177702697,3281221.0,3288888.0,0.0
1586177702742,3293884.0,3315370.0,0.0
1586177702794,3311457.0,3344802.0,0.0
1586177702845,3323715.0,3372450.0,0.0
1586177702886,3282763.0,3326344.0,0.0
1586177702939,3217980.0,3245293.0,0.0
1586177702988,3182620.0,3207377.0,0.0
1586177703037,3156120.0,3221057.0,0.0
1586177703083,3154907.0,3214390.0,0.0
1586177703134,3177333.0,3188421.0,0.0
1586177703183,3228131.0,3144047.0,0.0
1586177703230,3313623.0,3177165.0,0.0
1586177703280,3475626.0,3277496.0,0.0
1586177703329,3655070.0,3360138.0,0.0
1586177703377,3810753.0,3414343.0,0.0
1586177703424,3951274.0,3472054.0,0.0
1586177703474,4027229.0,3520991.0,0.0
1586177703523,4116110.0,3567089.0,0.0
1586177703572,4232324.0,3656232.0,0.0
1586177703620,4325739.0,3714173.0,0.0
1586177703663,4365303.0,3698606.0,0.0
1586177703718,4354328.0,3636876.0,0.0
1586177703762,4367809.0,3591387.0,0.0
1586177703814,4365381.0,3563798.0,0.0
1586177703863,4260012.0,3483461.0,0.0
1586177703906,4151757.0,3399556.0,0.0
1586177703956,4077517.0,3346251.0,0.0
1586177704007,4028980.0,3316699.0,0.0
1586177704058,4028832.0,3326360.0,0.0
1586177704105,4087277.0,3376522.0,0.0
1586177704153,4113172.0,3388507.0,0.0
1586177704203,4175794.0,3425867.0,0.0
1586177704246,4215645.0,3460293.0,0.0
1586177704299,4275842.0,3488914.0,0.0
1586177704346,4202538.0,3438134.0,0.0
1586177704398,4100575.0,3352129.0,0.0
1586177704443,4039269.0,3318097.0,0.0
1586177704490,4026172.0,3322591.0,0.0
1586177704542,4028885.0,3331204.0,0.0
1586177704592,4037883.0,3346696.0,0.0
1586177704640,4057656.0,3353740.0,0.0
1586177704683,4071814.0,3375638.0,0.0
1586177704737,4158535.0,3462558.0,0.0
1586177704786,4293526.0,3585523.0,0.0
1586177704834,4425673.0,3699937.0,0.0
1586177704883,4531675.0,3790120.0,0.0
1586177704931,4618215.0,3872709.0,0.0
1586177704981,4692490.0,3955750.0,0.0
1586177705022,4764657.0,4063579.0,0.0
1586177705072,4794286.0,4124680.0,0.0
1586177705124,4765472.0,4163399.0,0.0
1586177705173,4815603.0,4203093.0,0.0
1586177705224,4883141.0,4231968.0,0.0
1586177705271,4963059.0,4252860.0,0.0
1586177705320,4994458.0,4240058.0,0.0
1586177705363,4991414.0,4158600.0,0.0
1586177705412,4929477.0,4005252.0,0.0
1586177705467,4850677.0,3895533.0,0.0
1586177705514,4765515.0,3816549.0,0.0
1586177705563,4715790.0,3770733.0,0.0
1586177705612,4647143.0,3735745.0,0.0
1586177705660,4601728.0,3725750.0,0.0
1586177705704,4541003.0,3722481.0,0.0
1586177705758,4416735.0,3688724.0,0.0
1586177705807,4309069.0,3656439.0,0.0
1586177705854,4207896.0,3651683.0,0.0
1586177705903,4158848.0,3668603.0,0.0
1586177705952,4118538.0,3682801.0,0.0
1586177705997,4098173.0,3691778.0,0.0
1586177706044,4038489.0,3663758.0,0.0
1586177706094,4004118.0,3608878.0,0.0
1586177706146,3989122.0,3567758.0,0.0
1586177706194,3991592.0,3564444.0,0.0
1586177706244,3984111.0,3584958.0,0.0
1586177706292,3993715.0,3588845.0,0.0
1586177706342,3989987.0,3599106.0,0.0
1586177706388,4029864.0,3586622.0,0.0
1586177706437,4020199.0,3521964.0,0.0
1586177706486,4003866.0,3436068.0,0.0
1586177706534,3988965.0,3383795.0,0.0
1586177706583,3964302.0,3353689.0,0.0
1586177706630,3930737.0,3337638.0,0.0
1586177706681,3880996.0,3333686.0,0.0
1586177706726,3851036.0,3322873.0,0.0
1586177706777,3812278.0,3306556.0,0.0
1586177706827,3720632.0,3315258.0,0.0
1586177706873,3666165.0,3347031.0,0.0
1586177706923,3654306.0,3411163.0,0.0
1586177706969,3644243.0,3461755.0,0.0
1586177707019,3651610.0,3568924.0,0.0
1586177707065,3686095.0,3695166.0,0.0
1586177707117,3654550.0,3675038.0,0.0
1586177707165,3589863.0,3592909.0,0.0
1586177707209,3549718.0,3545400.0,0.0
1586177707264,3525869.0,3524640.0,0.0
1586177707307,3522204.0,3521771.0,0.0
1586177707362,3517358.0,3518701.0,0.0
1586177707407,3504536.0,3500474.0,0.0
1586177707453,3492321.0,3480718.0,0.0
1586177707505,3483054.0,3477865.0,0.0
1586177707554,3480299.0,3481394.0,0.0
1586177707604,3483133.0,3483400.0,0.0
1586177707650,3492053.0,3493223.0,0.0
1586177707700,3499353.0,3512809.0,0.0
1586177707746,3491246.0,3496425.0,0.0
1586177707798,3424662.0,3404334.0,0.0
1586177707846,3357852.0,3333306.0,0.0
1586177707890,3322483.0,3307946.0,0.0
1586177707943,3306325.0,3297499.0,0.0
1586177707986,3304661.0,3307322.0,0.0
1586177708041,3301288.0,3318105.0,0.0
1586177708089,3294967.0,3312085.0,0.0
1586177708138,3287574.0,3303866.0,0.0
1586177708185,3284540.0,3310354.0,0.0
1586177708234,3288431.0,3325088.0,0.0
1586177708283,3299155.0,3346927.0,0.0
1586177708326,3301800.0,3389368.0,0.0
1586177708380,3292237.0,3468117.0,0.0
1586177708427,3268831.0,3459630.0,0.0
1586177708478,3391010.0,3522194.0,0.0
1586177708526,3532814.0,3737957.0,0.0
1586177708571,3739010.0,3952487.0,0.0
1586177708624,3927529.0,4074882.0,0.0
1586177708671,4065466.0,4182257.0,0.0
1586177708722,4155414.0,4263330.0,0.0
1586177708767,4233234.0,4334892.0,0.0
1586177708819,4299282.0,4405140.0,0.0
1586177708862,4345244.0,4453512.0,0.0
1586177708916,4384522.0,4498480.0,0.0
1586177708964,4422448.0,4607813.0,0.0
1586177709008,4454861.0,4655020.0,0.0
1586177709060,4481456.0,4686910.0,0.0
1586177709108,4513582.0,4722318.0,0.0
1586177709159,4553754.0,4762396.0,0.0
1586177709206,4596221.0,4807745.0,0.0
1586177709256,4636871.0,4850799.0,0.0
1586177709304,4673816.0,4897351.0,0.0
1586177709347,4702537.0,4932768.0,0.0
1586177709401,4728673.0,4967413.0,0.0
1586177709449,4746461.0,4999728.0,0.0
1586177709499,4766398.0,5032189.0,0.0
1586177709546,4788045.0,5063271.0,0.0
1586177709597,4814069.0,5085531.0,0.0
1586177709644,4843993.0,5108916.0,0.0
1586177709690,4861956.0,5128779.0,0.0
1586177709741,4872799.0,5150498.0,0.0
1586177709785,4871291.0,5167827.0,0.0
1586177709835,4898736.0,5203417.0,0.0
1586177709886,4913724.0,5226725.0,0.0
1586177709931,4931565.0,5232544.0,0.0
1586177709984,4848379.0,5107423.0,0.0
1586177710029,4757564.0,4944056.0,0.0
1586177710081,4663405.0,4762764.0,0.0
1586177710128,4577046.0,4610289.0,0.0
1586177710179,4527435.0,4518072.0,0.0
1586177710227,4456448.0,4445687.0,0.0
1586177710274,4451376.0,4395400.0,0.0
1586177710324,4410520.0,4356246.0,0.0
1586177710369,4401763.0,4323179.0,0.0
1586177710415,4356738.0,4283524.0,0.0
1586177710462,4339175.0,4276098.0,0.0
1586177710515,4278718.0,4202634.0,0.0
1586177710563,4129755.0,4040740.0,0.0
1586177710612,3997616.0,3878672.0,0.0
1586177710661,3904262.0,3757242.0,0.0
1586177710712,3820566.0,3672578.0,0.0
1586177710761,3752854.0,3622432.0,0.0
1586177710812,3678526.0,3568774.0,0.0
1586177710860,3605623.0,3520420.0,0.0
1586177710906,3553194.0,3467454.0,0.0
1586177710956,3517314.0,3429022.0,0.0
1586177711004,3492947.0,3400590.0,0.0
1586177711051,3475799.0,3379100.0,0.0
1586177711099,3459978.0,3360847.0,0.0
1586177711149,3451881.0,3351456.0,0.0
1586177711200,3425129.0,3327839.0,0.0
1586177711246,3339568.0,3240573.0,0.0
1586177711290,3258075.0,3165828.0,0.0
1586177711345,3211704.0,3134457.0,0.0
1586177711396,3194583.0,3118902.0,0.0
1586177711442,3186557.0,3117726.0,0.0
1586177711490,3181165.0,3121395.0,0.0
1586177711540,3170744.0,3071297.0,0.0
1586177711586,3157560.0,3063019.0,0.0
1586177711635,3150242.0,3058738.0,0.0
1586177711680,3151595.0,3058241.0,0.0
1586177711732,3159700.0,3067194.0,0.0
1586177711782,3168101.0,3087613.0,0.0
1586177711831,3184069.0,3112029.0,0.0
1586177711881,3198112.0,3125308.0,0.0
1586177711927,3164771.0,3082420.0,0.0
1586177711973,3096393.0,3006199.0,0.0
1586177712025,3056446.0,2969975.0,0.0
1586177712072,3049764.0,2963957.0,0.0
1586177712123,3064535.0,2975146.0,0.0
1586177712170,3078040.0,2997833.0,0.0
1586177712221,3088243.0,3011905.0,0.0
1586177712267,3086277.0,3008020.0,0.0
1586177712311,3089596.0,3009572.0,0.0
1586177712365,3098359.0,3022248.0,0.0
1586177712411,3113695.0,3043744.0,0.0
1586177712461,3138029.0,3069817.0,0.0
1586177712510,3161894.0,3090133.0,0.0
1586177712560,3178772.0,3108813.0,0.0
1586177712608,3136270.0,3060894.0,0.0
1586177712654,3078631.0,2996471.0,0.0
1586177712705,3056680.0,2965784.0,0.0
1586177712755,3063728.0,2973244.0,0.0
1586177712802,3086744.0,2997825.0,0.0
1586177712852,3107376.0,3022665.0,0.0
1586177712897,3113148.0,3023288.0,0.0
1586177712948,3112421.0,3013028.0,0.0
1586177712995,3120170.0,3015413.0,0.0
1586177713045,3136052.0,3030757.0,0.0
1586177713094,3159015.0,3056087.0,0.0
1586177713142,3188429.0,3072390.0,0.0
1586177713191,3210223.0,3083520.0,0.0
1586177713241,3172668.0,3027569.0,0.0
1586177713287,3123803.0,2970028.0,0.0
1586177713334,3107705.0,2950784.0,0.0
1586177713385,3119485.0,2957129.0,0.0
1586177713433,3144183.0,2981144.0,0.0
1586177713483,3166557.0,3003635.0,0.0
1586177713524,3178530.0,3011102.0,0.0
1586177713579,3184570.0,3007589.0,0.0
1586177713623,3193465.0,3013674.0,0.0
1586177713673,3211635.0,3033618.0,0.0
1586177713720,3234139.0,3060039.0,0.0
1586177713774,3258558.0,3085696.0,0.0
1586177713818,3274589.0,3099176.0,0.0
1586177713870,3228574.0,3042385.0,0.0
1586177713921,3175694.0,2989131.0,0.0
1586177713967,3164166.0,2971745.0,0.0
1586177714014,3173883.0,2979086.0,0.0
1586177714065,3196976.0,3004164.0,0.0
1586177714113,3217115.0,3029804.0,0.0
1586177714163,3224240.0,3037496.0,0.0
1586177714211,3229102.0,3039412.0,0.0
1586177714262,3240009.0,3048425.0,0.0
1586177714307,3259010.0,3069275.0,0.0
1586177714354,3278843.0,3101931.0,0.0
1586177714405,3302761.0,3137560.0,0.0
1586177714453,3330702.0,3159145.0,0.0
1586177714502,3309056.0,3121489.0,0.0
1586177714549,3263674.0,3058791.0,0.0
1586177714596,3249145.0,3037645.0,0.0
1586177714646,3252847.0,3048263.0,0.0
1586177714699,3270853.0,3070547.0,0.0
1586177714745,3292316.0,3091366.0,0.0
1586177714794,3301694.0,3098380.0,0.0
1586177714841,3307607.0,3101212.0,0.0
1586177714890,3316813.0,3112535.0,0.0
1586177714935,3330649.0,3130510.0,0.0
1586177714987,3352173.0,3153485.0,0.0
1586177715036,3378944.0,3177291.0,0.0
1586177715084,3403536.0,3202785.0,0.0
1586177715133,3414867.0,3208194.0,0.0
1586177715181,3370292.0,3144210.0,0.0
1586177715230,3328889.0,3094345.0,0.0
1586177715274,3320888.0,3087093.0,0.0
1586177715326,3329999.0,3100200.0,0.0
1586177715376,3346531.0,3127129.0,0.0
1586177715425,3362629.0,3145228.0,0.0
1586177715474,3370682.0,3148342.0,0.0
1586177715516,3376757.0,3154553.0,0.0
1586177715563,3387940.0,3168857.0,0.0
1586177715616,3403692.0,3188719.0,0.0
1586177715662,3425668.0,3213381.0,0.0
1586177715711,3449325.0,3236207.0,0.0
1586177715761,3471882.0,3260726.0,0.0
1586177715808,3495677.0,3283768.0,0.0
1586177715857,3503591.0,3290983.0,0.0
1586177715905,3456459.0,3226191.0,0.0
1586177715956,3412327.0,3171175.0,0.0
1586177716007,3396809.0,3158253.0,0.0
1586177716056,3403814.0,3168507.0,0.0
1586177716105,3422149.0,3188912.0,0.0
1586177716152,3433443.0,3205154.0,0.0
1586177716199,3435194.0,3210282.0,0.0
1586177716248,3437179.0,3211054.0,0.0
1586177716298,3441852.0,3218968.0,0.0
1586177716347,3459754.0,3233375.0,0.0
1586177716396,3475695.0,3255444.0,0.0
1586177716440,3494194.0,3279146.0,0.0
1586177716492,3511107.0,3302649.0,0.0
1586177716538,3529961.0,3322221.0,0.0
1586177716584,3548816.0,3334347.0,0.0
1586177716639,3520798.0,3285656.0,0.0
1586177716682,3469671.0,3212131.0,0.0
1586177716735,3442641.0,3180107.0,0.0
1586177716782,3437293.0,3181675.0,0.0
1586177716833,3448007.0,3197978.0,0.0
1586177716878,3463785.0,3214287.0,0.0
1586177716930,3468761.0,3214071.0,0.0
1586177716980,3465179.0,3209941.0,0.0
1586177717027,3464305.0,3214770.0,0.0
1586177717076,3474931.0,3225914.0,0.0
1586177717123,3488325.0,3242774.0,0.0
1586177717169,3509495.0,3259367.0,0.0
1586177717217,3524534.0,3277169.0,0.0
1586177717270,3541977.0,3295099.0,0.0
1586177717320,3559600.0,3315874.0,0.0
1586177717363,3547385.0,3295678.0,0.0
1586177717417,3490190.0,3207600.0,0.0
1586177717466,3441999.0,3148253.0,0.0
1586177717509,3422720.0,3129386.0,0.0
1586177717563,3422226.0,3129492.0,0.0
1586177717605,3429447.0,3143497.0,0.0
1586177717661,3434154.0,3153722.0,0.0
1586177717708,3430757.0,3147934.0,0.0
1586177717757,3425538.0,3140414.0,0.0
1586177717799,3430237.0,3144344.0,0.0
1586177717854,3441393.0,3161754.0,0.0
1586177717900,3455063.0,3182439.0,0.0
1586177717948,3471101.0,3201619.0,0.0
1586177718000,3485188.0,3219035.0,0.0
1586177718047,3497817.0,3237217.0,0.0
1586177718098,3511202.0,3254997.0,0.0
1586177718140,3526702.0,3271917.0,0.0
1586177718194,3509052.0,3241081.0,0.0
1586177718243,3439581.0,3146819.0,0.0
1586177718291,3384206.0,3084308.0,0.0
1586177718341,3358927.0,3068279.0,0.0
1586177718385,3352823.0,3071089.0,0.0
1586177718437,3360044.0,3081677.0,0.0
1586177718480,3364595.0,3090236.0,0.0
1586177718534,3360349.0,3086439.0,0.0
1586177718583,3356483.0,3083645.0,0.0
1586177718627,3358181.0,3089011.0,0.0
1586177718681,3368220.0,3107518.0,0.0
1586177718721,3383442.0,3127434.0,0.0
1586177718778,3397294.0,3149746.0,0.0
1586177718821,3416608.0,3170714.0,0.0
1586177718874,3434778.0,3189506.0,0.0
1586177718923,3448415.0,3205363.0,0.0
1586177718970,3464183.0,3225827.0,0.0
1586177719021,3479779.0,3241994.0,0.0
1586177719067,3491134.0,3251811.0,0.0
1586177719117,3442407.0,3178865.0,0.0
1586177719159,3369337.0,3094515.0,0.0
1586177719215,3332833.0,3059653.0,0.0
1586177719262,3323237.0,3058033.0,0.0
1586177719311,3324174.0,3067879.0,0.0
1586177719359,3336137.0,3084462.0,0.0
1586177719409,3338512.0,3088304.0,0.0
1586177719452,3333709.0,3085326.0,0.0
1586177719500,3329792.0,3085830.0,0.0
1586177719554,3338565.0,3096011.0,0.0
1586177719604,3353213.0,3113108.0,0.0
1586177719651,3370863.0,3138155.0,0.0
1586177719701,3390082.0,3162311.0,0.0
1586177719748,3406717.0,3186639.0,0.0
1586177719797,3422929.0,3208031.0,0.0
1586177719841,3438522.0,3225878.0,0.0
1586177719893,3456103.0,3242760.0,0.0
1586177719942,3472591.0,3261039.0,0.0
1586177719990,3487762.0,3280522.0,0.0
1586177720039,3448962.0,3226042.0,0.0
1586177720088,3388046.0,3145532.0,0.0
1586177720138,3352980.0,3106048.0,0.0
1586177720182,3347866.0,3107252.0,0.0
1586177720233,3358112.0,3125888.0,0.0
1586177720282,3372320.0,3145593.0,0.0
1586177720331,3376958.0,3150557.0,0.0
1586177720380,3371686.0,3145272.0,0.0
1586177720428,3368055.0,3147146.0,0.0
1586177720478,3378535.0,3156628.0,0.0
1586177720523,3391634.0,3172260.0,0.0
1586177720574,3406275.0,3195050.0,0.0
1586177720623,3424776.0,3219102.0,0.0
1586177720671,3442476.0,3238962.0,0.0
1586177720720,3457162.0,3256320.0,0.0
1586177720768,3474265.0,3273053.0,0.0
1586177720820,3489686.0,3289400.0,0.0
1586177720861,3503236.0,3306691.0,0.0
1586177720914,3481313.0,3264985.0,0.0
1586177720962,3423404.0,3191958.0,0.0
1586177721010,3389076.0,3154718.0,0.0
1586177721060,3385809.0,3159005.0,0.0
1586177721103,3401715.0,3176689.0,0.0
1586177721153,3421793.0,3198845.0,0.0
1586177721207,3427340.0,3206834.0,0.0
1586177721253,3425893.0,3201930.0,0.0
1586177721302,3424662.0,3201529.0,0.0
1586177721346,3430912.0,3208439.0,0.0
1586177721402,3443413.0,3223403.0,0.0
1586177721443,3458348.0,3242589.0,0.0
1586177721497,3477550.0,3262927.0,0.0
1586177721543,3492687.0,3282742.0,0.0
1586177721592,3512771.0,3303897.0,0.0
1586177721642,3528271.0,3322873.0,0.0
1586177721685,3544604.0,3339995.0,0.0
1586177721741,3517003.0,3295004.0,0.0
1586177721782,3455912.0,3214843.0,0.0
1586177721837,3416643.0,3169273.0,0.0
1586177721883,3404515.0,3158083.0,0.0
1586177721933,3412293.0,3168286.0,0.0
1586177721982,3423587.0,3185353.0,0.0
1586177722027,3429144.0,3199693.0,0.0
1586177722079,3430487.0,3192813.0,0.0
1586177722125,3424195.0,3185828.0,0.0
1586177722176,3430001.0,3192025.0,0.0
1586177722225,3437405.0,3207444.0,0.0
1586177722272,3452897.0,3227483.0,0.0
1586177722322,3471967.0,3246535.0,0.0
1586177722365,3485968.0,3264702.0,0.0
1586177722417,3501728.0,3284666.0,0.0
1586177722467,3519662.0,3303986.0,0.0
1586177722515,3531747.0,3317688.0,0.0
1586177722564,3494091.0,3258260.0,0.0
1586177722613,3437102.0,3180783.0,0.0
1586177722661,3406500.0,3146729.0,0.0
1586177722705,3399037.0,3144248.0,0.0
1586177722759,3406163.0,3155653.0,0.0
1586177722809,3418343.0,3173694.0,0.0
1586177722855,3426127.0,3180233.0,0.0
1586177722899,3420830.0,3174981.0,0.0
1586177722947,3417675.0,3173241.0,0.0
1586177723000,3422027.0,3180011.0,0.0
1586177723043,3434207.0,3195629.0,0.0
1586177723098,3448397.0,3215097.0,0.0
1586177723145,3462666.0,3234921.0,0.0
1586177723190,3478442.0,3255302.0,0.0
1586177723329,3496647.0,3276999.0,0.0
1586177723329,3509920.0,3294699.0,0.0
1586177723352,3520097.0,3302820.0,0.0
1586177723505,3476102.0,3238383.0,0.0
1586177723505,3420283.0,3169824.0,0.0
1586177723505,3393672.0,3141544.0,0.0
1586177723556,3388141.0,3143163.0,0.0
1586177723583,3396782.0,3160699.0,0.0
1586177723632,3409275.0,3176474.0,0.0
1586177723681,3408095.0,3177358.0,0.0
1586177723723,3402713.0,3168605.0,0.0
1586177723777,3398334.0,3169964.0,0.0
1586177723827,3403841.0,3178814.0,0.0
1586177723874,3415048.0,3193616.0,0.0
1586177723919,3431076.0,3210749.0,0.0
1586177723972,3443360.0,3229228.0,0.0
1586177724020,3457915.0,3248562.0,0.0
1586177724065,3472540.0,3265430.0,0.0
1586177724117,3468326.0,3260734.0,0.0
1586177724166,3421862.0,3193988.0,0.0
1586177724215,3373352.0,3138052.0,0.0
1586177724263,3357236.0,3122685.0,0.0
1586177724392,3360495.0,3135101.0,0.0
1586177724392,3376455.0,3154992.0,0.0
1586177724421,3386172.0,3169050.0,0.0
1586177724542,3386215.0,3164682.0,0.0
1586177724547,3380408.0,3157912.0,0.0
1586177724571,3381552.0,3163812.0,0.0
1586177724609,3387396.0,3172573.0,0.0
1586177724644,3400754.0,3192858.0,0.0
1586177724701,3414832.0,3210282.0,0.0
1586177724746,3430590.0,3227914.0,0.0
1586177724796,3446040.0,3248148.0,0.0
1586177724845,3455522.0,3256744.0,0.0
1586177724888,3404820.0,3189662.0,0.0
1586177724942,3342837.0,3113894.0,0.0
1586177724985,3314472.0,3085763.0,0.0
1586177725041,3305648.0,3092228.0,0.0
1586177725087,3315998.0,3106419.0,0.0
1586177725136,3325838.0,3118427.0,0.0
1586177725185,3325976.0,3119022.0,0.0
1586177725233,3316372.0,3112460.0,0.0
1586177725277,3313086.0,3112571.0,0.0
1586177725327,3320931.0,3121548.0,0.0
1586177725379,3333067.0,3137034.0,0.0
1586177725426,3348012.0,3157451.0,0.0
1586177725475,3364985.0,3176681.0,0.0
1586177725524,3381449.0,3193258.0,0.0
1586177725569,3394980.0,3211924.0,0.0
1586177725622,3388842.0,3203222.0,0.0
1586177725670,3326931.0,3123807.0,0.0
1586177725719,3268425.0,3063212.0,0.0
1586177725766,3248278.0,3046985.0,0.0
1586177725815,3249363.0,3050500.0,0.0
1586177725865,3260458.0,3068867.0,0.0
1586177725908,3268961.0,3079031.0,0.0
1586177725956,3264784.0,3074647.0,0.0
1586177726007,3256194.0,3072507.0,0.0
1586177726058,3258638.0,3079619.0,0.0
1586177726105,3271312.0,3091990.0,0.0
1586177726155,3286552.0,3110960.0,0.0
1586177726203,3304356.0,3129878.0,0.0
1586177726246,3320549.0,3152369.0,0.0
1586177726300,3337307.0,3171807.0,0.0
1586177726348,3354912.0,3188146.0,0.0
1586177726397,3366599.0,3200146.0,0.0
1586177726445,3326201.0,3145415.0,0.0
1586177726494,3259652.0,3068718.0,0.0
1586177726539,3227517.0,3034197.0,0.0
1586177726588,3224742.0,3038364.0,0.0
1586177726640,3236713.0,3054504.0,0.0
1586177726683,3250828.0,3072924.0,0.0
1586177726738,3252179.0,3072091.0,0.0
1586177726785,3244300.0,3062351.0,0.0
1586177726830,3241829.0,3062930.0,0.0
1586177726884,3247967.0,3077122.0,0.0
1586177726928,3264810.0,3094613.0,0.0
1586177726974,3284063.0,3116606.0,0.0
1586177727028,3300733.0,3133035.0,0.0
1586177727078,3320480.0,3149687.0,0.0
1586177727125,3336214.0,3171785.0,0.0
1586177727173,3350042.0,3186371.0,0.0
1586177727223,3336821.0,3160141.0,0.0
1586177727272,3276739.0,3079870.0,0.0
1586177727320,3239870.0,3038780.0,0.0
1586177727367,3232796.0,3036544.0,0.0
1586177727418,3246120.0,3052407.0,0.0
1586177727466,3265781.0,3073257.0,0.0
1586177727510,3273634.0,3083245.0,0.0
1586177727563,3270877.0,3074513.0,0.0
1586177727608,3269993.0,3069149.0,0.0
1586177727659,3276842.0,3078475.0,0.0
1586177727707,3292810.0,3095253.0,0.0
1586177727753,3313450.0,3117104.0,0.0
1586177727805,3330718.0,3138600.0,0.0
1586177727849,3350422.0,3158306.0,0.0
1586177727899,3369311.0,3175196.0,0.0
1586177727944,3387022.0,3192819.0,0.0
1586177727997,3373846.0,3164013.0,0.0
1586177728043,3313477.0,3078131.0,0.0
1586177728092,3268303.0,3026484.0,0.0
1586177728141,3259331.0,3021876.0,0.0
1586177728189,3268459.0,3032874.0,0.0
1586177728238,3285172.0,3051769.0,0.0
1586177728286,3291326.0,3060122.0,0.0
1586177728338,3291162.0,3053576.0,0.0
1586177728386,3287868.0,3052854.0,0.0
1586177728435,3299086.0,3062186.0,0.0
1586177728484,3315289.0,3080681.0,0.0
1586177728530,3334072.0,3102809.0,0.0
1586177728582,3354357.0,3125331.0,0.0
1586177728628,3374669.0,3145096.0,0.0
1586177728676,3392926.0,3162282.0,0.0
1586177728727,3413747.0,3181779.0,0.0
1586177728772,3428303.0,3198957.0,0.0
1586177728822,3405765.0,3156715.0,0.0
1586177728875,3346383.0,3074499.0,0.0
1586177728922,3316510.0,3034546.0,0.0
1586177728964,3309748.0,3035073.0,0.0
1586177729104,3320419.0,3047661.0,0.0
1586177729104,3335322.0,3066711.0,0.0
1586177729124,3347006.0,3073028.0,0.0
1586177729275,3345170.0,3067818.0,0.0
1586177729275,3346937.0,3069112.0,0.0
1586177729275,3357029.0,3082487.0,0.0
1586177729334,3376203.0,3101626.0,0.0
1586177729359,3396132.0,3125278.0,0.0
1586177729406,3416653.0,3148312.0,0.0
1586177729452,3436609.0,3169741.0,0.0
1586177729504,3457767.0,3188949.0,0.0
1586177729553,3475202.0,3205534.0,0.0
1586177729601,3491931.0,3223545.0,0.0
1586177729648,3482969.0,3202421.0,0.0
1586177729701,3427427.0,3121282.0,0.0
1586177729744,3389909.0,3075584.0,0.0
1586177729791,3386156.0,3074448.0,0.0
1586177729844,3395128.0,3090935.0,0.0
1586177729892,3419928.0,3105306.0,0.0
1586177729949,3420336.0,3090326.0,0.0
1586177730059,3387109.0,3070329.0,0.0
1586177730059,3353916.0,3069884.0,0.0
1586177730121,3348941.0,3079165.0,0.0
1586177730218,3379939.0,3086224.0,0.0
1586177730218,3406778.0,3097384.0,0.0
1586177730236,3430036.0,3086506.0,0.0
1586177730286,3434189.0,3079046.0,0.0
1586177730328,3433348.0,3082552.0,0.0
1586177730374,3484009.0,3114520.0,0.0
1586177730426,3483810.0,3095312.0,0.0
1586177730475,3453667.0,3028431.0,0.0
1586177730524,3437649.0,2995143.0,0.0
1586177730571,3417545.0,3000573.0,0.0
1586177730621,3414060.0,3014849.0,0.0
1586177730669,3399680.0,3033179.0,0.0
1586177730715,3387005.0,3041962.0,0.0
1586177730767,3362950.0,3045528.0,0.0
1586177730815,3355320.0,3051873.0,0.0
1586177730864,3359906.0,3058271.0,0.0
1586177730907,3368722.0,3073822.0,0.0
1586177730957,3384708.0,3085578.0,0.0
1586177731009,3403615.0,3099302.0,0.0
1586177731057,3425607.0,3117767.0,0.0
1586177731105,3441324.0,3132225.0,0.0
1586177731155,3413054.0,3086825.0,0.0
1586177731204,3354177.0,3010212.0,0.0
1586177731252,3323757.0,2977495.0,0.0
1586177731300,3319623.0,2979413.0,0.0
1586177731349,3329643.0,2989673.0,0.0
1586177731394,3341484.0,3008168.0,0.0
1586177731446,3347848.0,3018101.0,0.0
1586177731494,3346547.0,3017472.0,0.0
1586177731544,3345212.0,3017916.0,0.0
1586177731589,3349512.0,3030072.0,0.0
1586177731643,3359412.0,3048403.0,0.0
1586177731685,3368982.0,3069356.0,0.0
1586177731733,3380685.0,3094345.0,0.0
1586177731786,3404300.0,3122753.0,0.0
1586177731838,3404645.0,3115010.0,0.0
1586177731884,3350881.0,3042429.0,0.0
1586177731933,3306376.0,2994013.0,0.0
1586177731982,3288649.0,2991018.0,0.0
1586177732029,3287470.0,3009885.0,0.0
1586177732077,3302026.0,3037049.0,0.0
1586177732127,3314413.0,3054073.0,0.0
1586177732171,3330657.0,3062499.0,0.0
1586177732225,3346123.0,3067729.0,0.0
1586177732272,3358398.0,3077946.0,0.0
1586177732321,3373793.0,3091842.0,0.0
1586177732369,3384145.0,3106092.0,0.0
1586177732416,3395683.0,3112185.0,0.0
1586177732466,3404411.0,3127417.0,0.0
1586177732516,3412603.0,3135770.0,0.0
1586177732560,3364839.0,3069009.0,0.0
1586177732612,3287531.0,2987131.0,0.0
1586177732658,3250610.0,2955493.0,0.0
1586177732709,3240935.0,2954936.0,0.0
1586177732755,3238570.0,2970741.0,0.0
1586177732806,3240988.0,2982651.0,0.0
1586177732858,3229121.0,2980356.0,0.0
1586177732900,3210500.0,2973513.0,0.0
1586177732952,3201397.0,2980370.0,0.0
1586177732999,3198520.0,3001132.0,0.0
1586177733044,3220979.0,3029382.0,0.0
1586177733095,3240606.0,3048864.0,0.0
1586177733142,3251738.0,3083765.0,0.0
1586177733191,3261724.0,3146701.0,0.0
1586177733240,3257311.0,3148438.0,0.0
1586177733288,3206771.0,3089456.0,0.0
1586177733340,3199985.0,3051702.0,0.0
1586177733385,3237018.0,3045735.0,0.0
1586177733436,3258550.0,3049935.0,0.0
1586177733486,3253548.0,3050240.0,0.0
1586177733536,3215839.0,3046330.0,0.0
1586177733584,3192598.0,3044569.0,0.0
1586177733633,3200644.0,3052074.0,0.0
1586177733678,3208766.0,3083721.0,0.0
1586177733729,3222497.0,3115574.0,0.0
1586177733780,3257892.0,3141544.0,0.0
1586177733827,3295914.0,3158306.0,0.0
1586177733878,3322040.0,3162691.0,0.0
1586177733924,3297674.0,3102029.0,0.0
1586177733968,3274441.0,3047675.0,0.0
1586177734019,3274640.0,3030942.0,0.0
1586177734069,3292178.0,3038470.0,0.0
1586177734118,3312505.0,3055477.0,0.0
1586177734163,3322985.0,3054096.0,0.0
1586177734216,3320576.0,3048039.0,0.0
1586177734260,3319673.0,3045357.0,0.0
1586177734313,3326522.0,3052779.0,0.0
1586177734362,3340879.0,3066481.0,0.0
1586177734409,3359187.0,3086112.0,0.0
1586177734455,3377097.0,3103447.0,0.0
1586177734506,3377070.0,3095133.0,0.0
1586177734556,3323091.0,3019737.0,0.0
1586177734599,3282545.0,2967308.0,0.0
1586177734648,3272968.0,2961379.0,0.0
1586177734704,3279087.0,2973437.0,0.0
1586177734750,3291119.0,2991910.0,0.0
1586177734798,3302286.0,3001435.0,0.0
1586177734841,3304834.0,3000982.0,0.0
1586177734891,3303881.0,2999608.0,0.0
1586177734938,3312912.0,3008026.0,0.0
1586177735091,3325084.0,3026149.0,0.0
1586177735093,3345342.0,3046227.0,0.0
1586177735093,3365402.0,3067790.0,0.0
1586177735168,3368557.0,3062290.0,0.0
1586177735263,3317569.0,2986790.0,0.0
1586177735264,3276495.0,2937459.0,0.0
1586177735284,3266917.0,2933879.0,0.0
1586177735333,3275003.0,2944266.0,0.0
1586177735382,3292446.0,2966156.0,0.0
