time,value,value2,value3
1578827872837,4905102.0,4159599.0,0.0
1578827872883,4855440.0,4023409.0,0.0
1578827872931,4819031.0,3903396.0,0.0
1578827872981,4791940.0,3830599.0,0.0
1578827873030,4764316.0,3779730.0,0.0
1578827873077,4745274.0,3745964.0,0.0
1578827873127,4717222.0,3684807.0,0.0
1578827873176,4713514.0,3647534.0,0.0
1578827873226,4706683.0,3615776.0,0.0
1578827873277,4707622.0,3606997.0,0.0
1578827873323,4701110.0,3607027.0,0.0
1578827873370,4697526.0,3606851.0,0.0
1578827873425,4695988.0,3599735.0,0.0
1578827873471,4682158.0,3572939.0,0.0
1578827873520,4628293.0,3501316.0,0.0
1578827873568,4573429.0,3413894.0,0.0
1578827873617,4539849.0,3364689.0,0.0
1578827873667,4540968.0,3352758.0,0.0
1578827873715,4537711.0,3334324.0,0.0
1578827873780,4538435.0,3268185.0,0.0
1578827873881,4523792.0,3245836.0,0.0
1578827873882,4517392.0,3232329.0,0.0
1578827873928,4511603.0,3233156.0,0.0
1578827873998,4511321.0,3233454.0,0.0
1578827874014,4509669.0,3233635.0,0.0
1578827874058,4510596.0,3236679.0,0.0
1578827874106,4517087.0,3235354.0,0.0
1578827874155,4520525.0,3236859.0,0.0
1578827874205,4499346.0,3205888.0,0.0
1578827874256,4472051.0,3172150.0,0.0
1578827874304,4460257.0,3165610.0,0.0
1578827874356,4461037.0,3164718.0,0.0
1578827874401,4464871.0,3165515.0,0.0
1578827874451,4463061.0,3164458.0,0.0
1578827874499,4461161.0,3163741.0,0.0
1578827874549,4457374.0,3164806.0,0.0
1578827874601,4456232.0,3165665.0,0.0
1578827874647,4457713.0,3168099.0,0.0
1578827874698,4458380.0,3176596.0,0.0
1578827874745,4459261.0,3180472.0,0.0
1578827874793,4465084.0,3186462.0,0.0
1578827874843,4464961.0,3178321.0,0.0
1578827874893,4445049.0,3151252.0,0.0
1578827874941,4424606.0,3132464.0,0.0
1578827874991,4427444.0,3138649.0,0.0
1578827875040,4433414.0,3150549.0,0.0
1578827875090,4436138.0,3155334.0,0.0
1578827875139,4437666.0,3160825.0,0.0
1578827875189,4442335.0,3159076.0,0.0
1578827875240,4450295.0,3169164.0,0.0
1578827875286,4442246.0,3181198.0,0.0
1578827875334,4423306.0,3216629.0,0.0
1578827875385,4428304.0,3295264.0,0.0
1578827875432,4442617.0,3317313.0,0.0
1578827875481,4446281.0,3321238.0,0.0
1578827875535,4431796.0,3339056.0,0.0
1578827875577,4401936.0,3306390.0,0.0
1578827875633,4375860.0,3295445.0,0.0
1578827875683,4356390.0,3289266.0,0.0
1578827875730,4343533.0,3248270.0,0.0
1578827875778,4332769.0,3209378.0,0.0
1578827875831,4327320.0,3189725.0,0.0
1578827875878,4323317.0,3175728.0,0.0
1578827875922,4334815.0,3194461.0,0.0
1578827875975,4330022.0,3350658.0,0.0
1578827876018,4418352.0,3516365.0,0.0
1578827876074,4394461.0,3493115.0,0.0
1578827876119,4371429.0,3361280.0,0.0
1578827876175,4369676.0,3303436.0,0.0
1578827876218,4370523.0,3308361.0,0.0
1578827876268,4375296.0,3322853.0,0.0
1578827876317,4374934.0,3305059.0,0.0
1578827876361,4367516.0,3252203.0,0.0
1578827876415,4356583.0,3204650.0,0.0
1578827876460,4358334.0,3195044.0,0.0
1578827876513,4369822.0,3199205.0,0.0
1578827876563,4365118.0,3214187.0,0.0
1578827876607,4360370.0,3293498.0,0.0
1578827876659,4356660.0,3230413.0,0.0
1578827876710,4333007.0,3214415.0,0.0
1578827876758,4341091.0,3194871.0,0.0
1578827876810,4356276.0,3215337.0,0.0
1578827876862,4364407.0,3237095.0,0.0
1578827876900,4368648.0,3258705.0,0.0
1578827876948,4390154.0,3265379.0,0.0
1578827876999,4409669.0,3266909.0,0.0
1578827877049,4415752.0,3267854.0,0.0
1578827877096,4429693.0,3271881.0,0.0
1578827877144,4439757.0,3278815.0,0.0
1578827877194,4420715.0,3377538.0,0.0
1578827877243,4447695.0,3402134.0,0.0
1578827877293,4454479.0,3408501.0,0.0
1578827877343,4453609.0,3359246.0,0.0
1578827877395,4472378.0,3360335.0,0.0
1578827877444,4492572.0,3397067.0,0.0
1578827877493,4509431.0,3425271.0,0.0
1578827877542,4526585.0,3420606.0,0.0
1578827877591,4541929.0,3408658.0,0.0
1578827877638,4552760.0,3408501.0,0.0
1578827877689,4563626.0,3409895.0,0.0
1578827877737,4560042.0,3392605.0,0.0
1578827877782,4550013.0,3380776.0,0.0
1578827877839,4533369.0,3372550.0,0.0
1578827877885,4533109.0,3355969.0,0.0
1578827877934,4543804.0,3369988.0,0.0
1578827877986,4564904.0,3378594.0,0.0
1578827878031,4591951.0,3404521.0,0.0
1578827878080,4608934.0,3424956.0,0.0
1578827878129,4615673.0,3434877.0,0.0
1578827878178,4615797.0,3442096.0,0.0
1578827878226,4607114.0,3427596.0,0.0
1578827878275,4613841.0,3429189.0,0.0
1578827878327,4591081.0,3433065.0,0.0
1578827878373,4557895.0,3405444.0,0.0
1578827878422,4542268.0,3392709.0,0.0
1578827878467,4530655.0,3392449.0,0.0
1578827878520,4535472.0,3395915.0,0.0
1578827878567,4544609.0,3410147.0,0.0
1578827878614,4558697.0,3430686.0,0.0
1578827878667,4563185.0,3441568.0,0.0
1578827878718,4554524.0,3453531.0,0.0
1578827878763,4569077.0,3455108.0,0.0
1578827878816,4579874.0,3462792.0,0.0
1578827878868,4566487.0,3452444.0,0.0
1578827878907,4542583.0,3440544.0,0.0
1578827878954,4528745.0,3425901.0,0.0
1578827879006,4528540.0,3426856.0,0.0
1578827879052,4541669.0,3423861.0,0.0
1578827879107,4560008.0,3436485.0,0.0
1578827879157,4559725.0,3494219.0,0.0
1578827879200,4573271.0,3661031.0,0.0
1578827879255,4628167.0,3891486.0,0.0
1578827879308,4656481.0,3856290.0,0.0
1578827879356,4670896.0,3833335.0,0.0
1578827879405,4643884.0,3792032.0,0.0
1578827879451,4613501.0,3754810.0,0.0
1578827879494,4616669.0,3756877.0,0.0
1578827879550,4629026.0,3767562.0,0.0
1578827879597,4641556.0,3769872.0,0.0
1578827879643,4651686.0,3783938.0,0.0
1578827879696,4662938.0,3817557.0,0.0
1578827879742,4670864.0,3844636.0,0.0
1578827879794,4673001.0,3859074.0,0.0
1578827879845,4680236.0,3877694.0,0.0
1578827879894,4685370.0,3888499.0,0.0
1578827879940,4678292.0,3879570.0,0.0
1578827879990,4647944.0,3849624.0,0.0
1578827880032,4630462.0,3830749.0,0.0
1578827880084,4620976.0,3814137.0,0.0
1578827880131,4624865.0,3815044.0,0.0
1578827880189,4633912.0,3821244.0,0.0
1578827880235,4638073.0,3820497.0,0.0
1578827880283,4636184.0,3814721.0,0.0
1578827880336,4635664.0,3808132.0,0.0
1578827880382,4635235.0,3801591.0,0.0
1578827880433,4628924.0,3795514.0,0.0
1578827880472,4596699.0,3754613.0,0.0
1578827880525,4565006.0,3711404.0,0.0
1578827880576,4551121.0,3695880.0,0.0
1578827880624,4554365.0,3696808.0,0.0
1578827880675,4561387.0,3703233.0,0.0
1578827880725,4570049.0,3717906.0,0.0
1578827880774,4572785.0,3729310.0,0.0
1578827880826,4570920.0,3732461.0,0.0
1578827880866,4573578.0,3735629.0,0.0
1578827880920,4580825.0,3743329.0,0.0
1578827880964,4580835.0,3735275.0,0.0
1578827881020,4542165.0,3690024.0,0.0
1578827881067,4512745.0,3653323.0,0.0
1578827881112,4507373.0,3647555.0,0.0
1578827881165,4506120.0,3650643.0,0.0
1578827881214,4514543.0,3652354.0,0.0
1578827881262,4514836.0,3649107.0,0.0
1578827881313,4508200.0,3643481.0,0.0
1578827881361,4501652.0,3634582.0,0.0
1578827881408,4501201.0,3630973.0,0.0
1578827881458,4504309.0,3631746.0,0.0
1578827881509,4493307.0,3618176.0,0.0
1578827881556,4448814.0,3576196.0,0.0
1578827881604,4417131.0,3546776.0,0.0
1578827881655,4404140.0,3532757.0,0.0
1578827881702,4404016.0,3531503.0,0.0
1578827881752,4414067.0,3541339.0,0.0
1578827881801,4417233.0,3543710.0,0.0
1578827881848,4414203.0,3543554.0,0.0
1578827881894,4415888.0,3545484.0,0.0
1578827881944,4417030.0,3545768.0,0.0
1578827881992,4420376.0,3545878.0,0.0
1578827882043,4400160.0,3525577.0,0.0
1578827882091,4356063.0,3479050.0,0.0
1578827882140,4328992.0,3447793.0,0.0
1578827882190,4315719.0,3435430.0,0.0
1578827882237,4319880.0,3443295.0,0.0
1578827882288,4326188.0,3449244.0,0.0
1578827882340,4329400.0,3456881.0,0.0
1578827882391,4331310.0,3455683.0,0.0
1578827882437,4329614.0,3456755.0,0.0
1578827882491,4335053.0,3457629.0,0.0
1578827882529,4335008.0,3451286.0,0.0
1578827882577,4279491.0,3380469.0,0.0
1578827882627,4218296.0,3313515.0,0.0
1578827882675,4195388.0,3290969.0,0.0
1578827882732,4189249.0,3284199.0,0.0
1578827882780,4188186.0,3280826.0,0.0
1578827882831,4181276.0,3268547.0,0.0
1578827882879,4175488.0,3259389.0,0.0
1578827882929,4173090.0,3256553.0,0.0
1578827882972,4170638.0,3259389.0,0.0
1578827883021,4177659.0,3267074.0,0.0
1578827883068,4162992.0,3248453.0,0.0
1578827883119,4108458.0,3183396.0,0.0
1578827883167,4068228.0,3132164.0,0.0
1578827883220,4057973.0,3113746.0,0.0
1578827883268,4064633.0,3119374.0,0.0
1578827883332,4086013.0,3142936.0,0.0
1578827883369,4127388.0,3202090.0,0.0
1578827883417,4160325.0,3287170.0,0.0
1578827883468,4189486.0,3351942.0,0.0
1578827883516,4214611.0,3385268.0,0.0
1578827883564,4255520.0,3406240.0,0.0
1578827883607,4298961.0,3441143.0,0.0
1578827883663,4291758.0,3427982.0,0.0
1578827883708,4276788.0,3432569.0,0.0
1578827883759,4284330.0,3450947.0,0.0
1578827883813,4314790.0,3481161.0,0.0
1578827883855,4350815.0,3518744.0,0.0
1578827883910,4370297.0,3532984.0,0.0
1578827883957,4420445.0,3576817.0,0.0
1578827884004,4454263.0,3587866.0,0.0
1578827884052,4484896.0,3603722.0,0.0
1578827884103,4507576.0,3592232.0,0.0
1578827884151,4509058.0,3590584.0,0.0
1578827884199,4491532.0,3597803.0,0.0
1578827884253,4498667.0,3611950.0,0.0
1578827884298,4504116.0,3614795.0,0.0
1578827884348,4506266.0,3605337.0,0.0
1578827884399,4499821.0,3587913.0,0.0
1578827884445,4487338.0,3567786.0,0.0
1578827884495,4495038.0,3575942.0,0.0
1578827884544,4510935.0,3593478.0,0.0
1578827884593,4546452.0,3626260.0,0.0
1578827884640,4542913.0,3620689.0,0.0
1578827884693,4522707.0,3614817.0,0.0
1578827884738,4522311.0,3621130.0,0.0
1578827884787,4552998.0,3654979.0,0.0
1578827884831,4584307.0,3685768.0,0.0
1578827884890,4607396.0,3709954.0,0.0
1578827884929,4616600.0,3723217.0,0.0
1578827884983,4632295.0,3739387.0,0.0
1578827885028,4649323.0,3737474.0,0.0
1578827885076,4663864.0,3743360.0,0.0
1578827885131,4656583.0,3720066.0,0.0
1578827885179,4639949.0,3701749.0,0.0
1578827885230,4641804.0,3706069.0,0.0
1578827885277,4644461.0,3728410.0,0.0
1578827885332,4643002.0,3746488.0,0.0
1578827885372,4637246.0,3757403.0,0.0
1578827885424,4635245.0,3760438.0,0.0
1578827885475,4637801.0,3763181.0,0.0
1578827885522,4638140.0,3772251.0,0.0
1578827885576,4644461.0,3780203.0,0.0
1578827885615,4628134.0,3754693.0,0.0
1578827885670,4603574.0,3720578.0,0.0
1578827885712,4598113.0,3713666.0,0.0
1578827885767,4614135.0,3734889.0,0.0
1578827885812,4635133.0,3763984.0,0.0
1578827885867,4650997.0,3781408.0,0.0
1578827885916,4649358.0,3777011.0,0.0
1578827885963,4643783.0,3769555.0,0.0
1578827886011,4654785.0,3780329.0,0.0
1578827886060,4661581.0,3786445.0,0.0
1578827886107,4644947.0,3758807.0,0.0
1578827886155,4611500.0,3717542.0,0.0
1578827886208,4602286.0,3694390.0,0.0
1578827886251,4603643.0,3688527.0,0.0
1578827886305,4614792.0,3690693.0,0.0
1578827886359,4618601.0,3691505.0,0.0
1578827886402,4622502.0,3694303.0,0.0
1578827886450,4619077.0,3691820.0,0.0
1578827886501,4623272.0,3697013.0,0.0
1578827886546,4629965.0,3698874.0,0.0
1578827886599,4600498.0,3664623.0,0.0
1578827886644,4564203.0,3624787.0,0.0
1578827886694,4558742.0,3617127.0,0.0
1578827886746,4559364.0,3619744.0,0.0
1578827886793,4568545.0,3626284.0,0.0
1578827886846,4568275.0,3626071.0,0.0
1578827886901,4568015.0,3630486.0,0.0
1578827886939,4585595.0,3646065.0,0.0
1578827886990,4597932.0,3660739.0,0.0
1578827887037,4600612.0,3664601.0,0.0
1578827887089,4574390.0,3639824.0,0.0
1578827887137,4544857.0,3609632.0,0.0
1578827887182,4523928.0,3597157.0,0.0
1578827887233,4529761.0,3604439.0,0.0
1578827887279,4549256.0,3631825.0,0.0
1578827887333,4555757.0,3646159.0,0.0
1578827887378,4569088.0,3666468.0,0.0
1578827887428,4573362.0,3680314.0,0.0
1578827887479,4599448.0,3719718.0,0.0
1578827887529,4615651.0,3723375.0,0.0
1578827887576,4587428.0,3673624.0,0.0
1578827887623,4559839.0,3627040.0,0.0
1578827887669,4548012.0,3604494.0,0.0
1578827887724,4551675.0,3597836.0,0.0
1578827887775,4556468.0,3594817.0,0.0
1578827887835,4554705.0,3593713.0,0.0
1578827887872,4563265.0,3598441.0,0.0
1578827887920,4570875.0,3610177.0,0.0
1578827887970,4583562.0,3625102.0,0.0
1578827888014,4566690.0,3593218.0,0.0
1578827888064,4520240.0,3525766.0,0.0
1578827888109,4482454.0,3482414.0,0.0
1578827888161,4495648.0,3496734.0,0.0
1578827888215,4531718.0,3530951.0,0.0
1578827888262,4550623.0,3546469.0,0.0
1578827888314,4551188.0,3531369.0,0.0
1578827888362,4546824.0,3523118.0,0.0
1578827888410,4564396.0,3548249.0,0.0
1578827888454,4599007.0,3581058.0,0.0
1578827888508,4613412.0,3593469.0,0.0
1578827888551,4587304.0,3555122.0,0.0
1578827888606,4558222.0,3518870.0,0.0
1578827888655,4562631.0,3524189.0,0.0
1578827888698,4568647.0,3547005.0,0.0
1578827888748,4594415.0,3580702.0,0.0
1578827888801,4592121.0,3671543.0,0.0
1578827888846,4569925.0,3849766.0,0.0
1578827888902,4598623.0,3981342.0,0.0
1578827888949,4628167.0,3986212.0,0.0
1578827888993,4666861.0,3964076.0,0.0
1578827889046,4669009.0,3891163.0,0.0
1578827889091,4643025.0,3800220.0,0.0
1578827889136,4629004.0,3745007.0,0.0
1578827889187,4629660.0,3714681.0,0.0
1578827889236,4627332.0,3687810.0,0.0
1578827889291,4613434.0,3650809.0,0.0
1578827889333,4594767.0,3617639.0,0.0
1578827889389,4588763.0,3606481.0,0.0
1578827889433,4587203.0,3595786.0,0.0
1578827889488,4582499.0,3586952.0,0.0
1578827889539,4563163.0,3556494.0,0.0
1578827889584,4507871.0,3476331.0,0.0
1578827889633,4459138.0,3400667.0,0.0
1578827889682,4426867.0,3344745.0,0.0
1578827889731,4404435.0,3303255.0,0.0
1578827889779,4385473.0,3272102.0,0.0
1578827889832,4366352.0,3245630.0,0.0
1578827889872,4350126.0,3221650.0,0.0
1578827889928,4337913.0,3212444.0,0.0
1578827889973,4330621.0,3208732.0,0.0
1578827890025,4332227.0,3211121.0,0.0
1578827890075,4292697.0,3157319.0,0.0
1578827890120,4235495.0,3091760.0,0.0
1578827890173,4199606.0,3053167.0,0.0
1578827890216,4184533.0,3037123.0,0.0
1578827890270,4179072.0,3035223.0,0.0
1578827890315,4172718.0,3032827.0,0.0
1578827890370,4162269.0,3017295.0,0.0
1578827890415,4167143.0,3028360.0,0.0
1578827890466,4184657.0,3059236.0,0.0
1578827890517,4206537.0,3093455.0,0.0
1578827890564,4226257.0,3127972.0,0.0
1578827890610,4228337.0,3126144.0,0.0
1578827890662,4202093.0,3072121.0,0.0
1578827890710,4178846.0,3041765.0,0.0
1578827890753,4181434.0,3045160.0,0.0
1578827890814,4189056.0,3060701.0,0.0
1578827890884,4203450.0,3079474.0,0.0
1578827890909,4215820.0,3090972.0,0.0
1578827890965,4223758.0,3104572.0,0.0
1578827891011,4238287.0,3127537.0,0.0
1578827891049,4255441.0,3149966.0,0.0
1578827891097,4268263.0,3169913.0,0.0
1578827891153,4286636.0,3194713.0,0.0
1578827891200,4293985.0,3205778.0,0.0
1578827891251,4262292.0,3150368.0,0.0
1578827891296,4236070.0,3111665.0,0.0
1578827891352,4228813.0,3111942.0,0.0
1578827891398,4244766.0,3133748.0,0.0
1578827891449,4253155.0,3147042.0,0.0
1578827891496,4257046.0,3148383.0,0.0
1578827891546,4266735.0,3161148.0,0.0
1578827891588,4277760.0,3173325.0,0.0
1578827891637,4295434.0,3196440.0,0.0
1578827891686,4309715.0,3212649.0,0.0
1578827891736,4324650.0,3221571.0,0.0
1578827891787,4337789.0,3241201.0,0.0
1578827891837,4356605.0,3259296.0,0.0
1578827891888,4361341.0,3253731.0,0.0
1578827891932,4334262.0,3211436.0,0.0
1578827891988,4313673.0,3188053.0,0.0
1578827892036,4309975.0,3187787.0,0.0
1578827892082,4314010.0,3189684.0,0.0
1578827892132,4317324.0,3193681.0,0.0
1578827892179,4322661.0,3199750.0,0.0
1578827892231,4328405.0,3205052.0,0.0
1578827892274,4325069.0,3197598.0,0.0
1578827892330,4328462.0,3196115.0,0.0
1578827892379,4333358.0,3203405.0,0.0
1578827892425,4350679.0,3225904.0,0.0
1578827892474,4361738.0,3233613.0,0.0
1578827892526,4362981.0,3232115.0,0.0
1578827892573,4362835.0,3242242.0,0.0
1578827892617,4358426.0,3240476.0,0.0
1578827892670,4328903.0,3204297.0,0.0
1578827892720,4311332.0,3184532.0,0.0
1578827892771,4305871.0,3174932.0,0.0
1578827892819,4302852.0,3171655.0,0.0
1578827892870,4304026.0,3172104.0,0.0
1578827892918,4303563.0,3172356.0,0.0
1578827892962,4307803.0,3177754.0,0.0
1578827893014,4315639.0,3192443.0,0.0
1578827893056,4324979.0,3209758.0,0.0
1578827893110,4337156.0,3230388.0,0.0
1578827893159,4353552.0,3252384.0,0.0
1578827893211,4365289.0,3270769.0,0.0
1578827893259,4375883.0,3279116.0,0.0
1578827893306,4360380.0,3256033.0,0.0
1578827893357,4342087.0,3233952.0,0.0
1578827893398,4346077.0,3245710.0,0.0
1578827893451,4350409.0,3249507.0,0.0
1578827893496,4357227.0,3247561.0,0.0
1578827893550,4363005.0,3251777.0,0.0
1578827893600,4370320.0,3263676.0,0.0
1578827893648,4380858.0,3284640.0,0.0
1578827893699,4393116.0,3301315.0,0.0
1578827893748,4405926.0,3316998.0,0.0
1578827893798,4418104.0,3333493.0,0.0
1578827893841,4434238.0,3353138.0,0.0
1578827893893,4453495.0,3374677.0,0.0
1578827893937,4447412.0,3356694.0,0.0
1578827893992,4424628.0,3322617.0,0.0
1578827894038,4412281.0,3303529.0,0.0
1578827894092,4407296.0,3302269.0,0.0
1578827894141,4411818.0,3304287.0,0.0
1578827894190,4415945.0,3313475.0,0.0
1578827894239,4416893.0,3316644.0,0.0
1578827894286,4423452.0,3328227.0,0.0
1578827894338,4429433.0,3343713.0,0.0
1578827894381,4439972.0,3358049.0,0.0
1578827894437,4453768.0,3373582.0,0.0
1578827894478,4466058.0,3385301.0,0.0
1578827894530,4445354.0,3345503.0,0.0
1578827894580,4403598.0,3292261.0,0.0
1578827894630,4381696.0,3272496.0,0.0
1578827894679,4377931.0,3275034.0,0.0
1578827894721,4381661.0,3286452.0,0.0
1578827894777,4381683.0,3287950.0,0.0
1578827894818,4381819.0,3292190.0,0.0
1578827894886,4390718.0,3303521.0,0.0
1578827894920,4399221.0,3321797.0,0.0
1578827894975,4410233.0,3338561.0,0.0
1578827895019,4421304.0,3353746.0,0.0
1578827895066,4421654.0,3349743.0,0.0
1578827895114,4379276.0,3301993.0,0.0
1578827895163,4352635.0,3271692.0,0.0
1578827895212,4343105.0,3269721.0,0.0
1578827895261,4352975.0,3281850.0,0.0
1578827895311,4358414.0,3298180.0,0.0
1578827895361,4352286.0,3294522.0,0.0
1578827895414,4343862.0,3289888.0,0.0
1578827895458,4347830.0,3292489.0,0.0
1578827895505,4350758.0,3303222.0,0.0
1578827895555,4363310.0,3319442.0,0.0
1578827895605,4349222.0,3302932.0,0.0
1578827895654,4304038.0,3244314.0,0.0
1578827895703,4271778.0,3215077.0,0.0
1578827895749,4271258.0,3221176.0,0.0
1578827895798,4280825.0,3239980.0,0.0
1578827895851,4291803.0,3255253.0,0.0
1578827895901,4292595.0,3258097.0,0.0
1578827895955,4289068.0,3258798.0,0.0
1578827895997,4292719.0,3268075.0,0.0
1578827896052,4306728.0,3286192.0,0.0
1578827896101,4322639.0,3307446.0,0.0
1578827896148,4329128.0,3316028.0,0.0
1578827896199,4291260.0,3271990.0,0.0
1578827896248,4272390.0,3242140.0,0.0
1578827896295,4289779.0,3258902.0,0.0
1578827896340,4307951.0,3293356.0,0.0
1578827896405,4318919.0,3322073.0,0.0
1578827896445,4321655.0,3329678.0,0.0
1578827896493,4319766.0,3334887.0,0.0
1578827896540,4338976.0,3358490.0,0.0
1578827896585,4380011.0,3427045.0,0.0
1578827896639,4424244.0,3526467.0,0.0
1578827896680,4458754.0,3609632.0,0.0
1578827896729,4470761.0,3685382.0,0.0
1578827896781,4495613.0,3816051.0,0.0
1578827896836,4532441.0,3962776.0,0.0
1578827896887,4589813.0,4155040.0,0.0
1578827896932,4630158.0,4282999.0,0.0
1578827896983,4653710.0,4366953.0,0.0
1578827897030,4703553.0,4462057.0,0.0
1578827897081,4785269.0,4547429.0,0.0
1578827897124,4862214.0,4612998.0,0.0
1578827897179,4915254.0,4672323.0,0.0
1578827897220,4945050.0,4732405.0,0.0
1578827897278,4929706.0,4763314.0,0.0
1578827897323,4889419.0,4762426.0,0.0
1578827897372,4885032.0,4718923.0,0.0
1578827897422,4926563.0,4799522.0,0.0
1578827897471,5019778.0,4831177.0,0.0
1578827897511,5093940.0,4836305.0,0.0
1578827897564,5164249.0,4849330.0,0.0
1578827897610,5207952.0,4960627.0,0.0
1578827897660,5226912.0,5024487.0,0.0
1578827897708,5221904.0,5060408.0,0.0
1578827897760,5177161.0,5051587.0,0.0
1578827897806,5143432.0,5013751.0,0.0
1578827897854,5126438.0,4992542.0,0.0
1578827897911,5105576.0,4951442.0,0.0
1578827897952,5088570.0,4916738.0,0.0
1578827898007,5082703.0,4890118.0,0.0
1578827898054,5075872.0,4847821.0,0.0
1578827898100,5078597.0,4855738.0,0.0
1578827898152,5086886.0,4874274.0,0.0
1578827898204,5094168.0,4859743.0,0.0
1578827898251,5101653.0,4824582.0,0.0
1578827898295,5109024.0,4778134.0,0.0
1578827898345,5090765.0,4714721.0,0.0
1578827898393,5083617.0,4658964.0,0.0
1578827898447,5065425.0,4599263.0,0.0
1578827898495,5083572.0,4600813.0,0.0
1578827898544,5082951.0,4615064.0,0.0
1578827898598,5093918.0,4650422.0,0.0
1578827898645,5110032.0,4692729.0,0.0
1578827898696,5113378.0,4696756.0,0.0
1578827898744,5130847.0,4704765.0,0.0
1578827898791,5141985.0,4704132.0,0.0
1578827898843,5156673.0,4702165.0,0.0
1578827898886,5183087.0,4713295.0,0.0
1578827898933,5201212.0,4727444.0,0.0
1578827898982,5214362.0,4728878.0,0.0
1578827899039,5234308.0,4739147.0,0.0
1578827899085,5255023.0,4742682.0,0.0
1578827899138,5268230.0,4749683.0,0.0
1578827899186,5293161.0,4764757.0,0.0
1578827899232,5298476.0,4772246.0,0.0
1578827899283,5317743.0,4791200.0,0.0
1578827899332,5331866.0,4813431.0,0.0
1578827899382,5338469.0,4822137.0,0.0
1578827899433,5350759.0,4845169.0,0.0
1578827899470,5359591.0,4851141.0,0.0
1578827899526,5374504.0,4863227.0,0.0
1578827899577,5381922.0,4865631.0,0.0
1578827899620,5386965.0,4873610.0,0.0
1578827899675,5401031.0,4884636.0,0.0
1578827899723,5407748.0,4890721.0,0.0
1578827899770,5417776.0,4887320.0,0.0
1578827899821,5422254.0,4887694.0,0.0
1578827899863,5420139.0,4882005.0,0.0
1578827899919,5428089.0,4889941.0,0.0
1578827899965,5432206.0,4898472.0,0.0
1578827900019,5437633.0,4906752.0,0.0
1578827900065,5445831.0,4915116.0,0.0
1578827900111,5449526.0,4925289.0,0.0
1578827900165,5459285.0,4936722.0,0.0
1578827900212,5465866.0,4944243.0,0.0
1578827900263,5471124.0,4946531.0,0.0
1578827900310,5476721.0,4949288.0,0.0
1578827900360,5484625.0,4954697.0,0.0
1578827900405,5497650.0,4963653.0,0.0
1578827900452,5519733.0,4981026.0,0.0
1578827900506,5532667.0,4987414.0,0.0
1578827900557,5538027.0,4978019.0,0.0
1578827900607,5542267.0,4962935.0,0.0
1578827900653,5563548.0,4983417.0,0.0
1578827900703,5570423.0,4988194.0,0.0
1578827900745,5573193.0,4971654.0,0.0
1578827900801,5567563.0,4943108.0,0.0
1578827900843,5567867.0,4914241.0,0.0
1578827900898,5565425.0,4880392.0,0.0
1578827900949,5584410.0,4965422.0,0.0
1578827900996,5567934.0,4990025.0,0.0
1578827901049,5575726.0,5033226.0,0.0
1578827901096,5562055.0,4990502.0,0.0
1578827901145,5543015.0,4910943.0,0.0
1578827901186,5552197.0,4910642.0,0.0
1578827901243,5567427.0,4963945.0,0.0
1578827901284,5598984.0,5042058.0,0.0
1578827901340,5639972.0,5099282.0,0.0
1578827901388,5683132.0,5145780.0,0.0
1578827901441,5752490.0,5225423.0,0.0
1578827901489,5727433.0,5248308.0,0.0
1578827901528,5703123.0,5236315.0,0.0
1578827901586,5710008.0,5205191.0,0.0
1578827901636,5721530.0,5185133.0,0.0
1578827901683,5712384.0,5106180.0,0.0
1578827901726,5702694.0,5097211.0,0.0
1578827901776,5707509.0,5087776.0,0.0
1578827901825,5718568.0,5117039.0,0.0
1578827901870,5718964.0,5122043.0,0.0
1578827901919,5712995.0,5103526.0,0.0
1578827901970,5707125.0,5095111.0,0.0
1578827902021,5747063.0,5161437.0,0.0
1578827902071,5884365.0,5290969.0,0.0
1578827902118,5951065.0,5359939.0,0.0
1578827902167,5942619.0,5385571.0,0.0
1578827902222,5924494.0,5418713.0,0.0
1578827902267,5913118.0,5429926.0,0.0
1578827902320,5940177.0,5471849.0,0.0
1578827902370,5915731.0,5442492.0,0.0
1578827902418,5896181.0,5411888.0,0.0
1578827902459,5850997.0,5330946.0,0.0
1578827902511,5802749.0,5199802.0,0.0
1578827902565,5741704.0,5078436.0,0.0
1578827902606,5692054.0,4988005.0,0.0
1578827902662,5675680.0,4990732.0,0.0
1578827902708,5629344.0,4944284.0,0.0
1578827902759,5596791.0,4974244.0,0.0
1578827902811,5592529.0,5027547.0,0.0
1578827902857,5581312.0,5039020.0,0.0
1578827902907,5572853.0,5032892.0,0.0
1578827902950,5575308.0,5037813.0,0.0
1578827903006,5575682.0,5065443.0,0.0
1578827903049,5579548.0,5080630.0,0.0
1578827903097,5577693.0,5068407.0,0.0
1578827903148,5554186.0,5001114.0,0.0
1578827903196,5554490.0,4991575.0,0.0
1578827903250,5569247.0,4993145.0,0.0
1578827903294,5610439.0,5038604.0,0.0
1578827903349,5623556.0,5030844.0,0.0
1578827903399,5632160.0,5015198.0,0.0
1578827903447,5660993.0,4989578.0,0.0
1578827903489,5702444.0,4978799.0,0.0
1578827903542,5762893.0,4954280.0,0.0
1578827903590,5820897.0,4935578.0,0.0
1578827903643,5830588.0,4910933.0,0.0
1578827903690,5879921.0,4894488.0,0.0
1578827903741,5908719.0,4878145.0,0.0
1578827903791,5969418.0,4872527.0,0.0
1578827903834,5981470.0,4864528.0,0.0
1578827903900,6012700.0,4876334.0,0.0
1578827903937,5991466.0,4880101.0,0.0
1578827903984,5964125.0,4889287.0,0.0
1578827904031,5939464.0,4906262.0,0.0
1578827904075,5937621.0,4948132.0,0.0
1578827904131,5896159.0,4918662.0,0.0
1578827904174,5851111.0,4847874.0,0.0
1578827904227,5783098.0,4771561.0,0.0
1578827904272,5748057.0,4730658.0,0.0
1578827904328,5740572.0,4712204.0,0.0
1578827904370,5741647.0,4712151.0,0.0
1578827904427,5729582.0,4690316.0,0.0
1578827904473,5684963.0,4653116.0,0.0
1578827904525,5610201.0,4595663.0,0.0
1578827904574,5569564.0,4578677.0,0.0
1578827904617,5511005.0,4541665.0,0.0
1578827904670,5459602.0,4489640.0,0.0
1578827904714,5417392.0,4443964.0,0.0
1578827904773,5386207.0,4401989.0,0.0
1578827904812,5350127.0,4359848.0,0.0
1578827904869,5316963.0,4326103.0,0.0
1578827904912,5295490.0,4297776.0,0.0
1578827904967,5270558.0,4267099.0,0.0
1578827905010,5249775.0,4252348.0,0.0
1578827905066,5175013.0,4185752.0,0.0
1578827905110,5116058.0,4177741.0,0.0
1578827905163,5088684.0,4208688.0,0.0
1578827905214,5087496.0,4285490.0,0.0
1578827905253,5092459.0,4387124.0,0.0
1578827905310,5107260.0,4464457.0,0.0
1578827905351,5115392.0,4520777.0,0.0
1578827905411,5119303.0,4526352.0,0.0
1578827905451,5133708.0,4517270.0,0.0
1578827905502,5141069.0,4509655.0,0.0
1578827905554,5158166.0,4510165.0,0.0
1578827905601,5166657.0,4517562.0,0.0
1578827905651,5165651.0,4533977.0,0.0
1578827905695,5173690.0,4542652.0,0.0
1578827905751,5174991.0,4546440.0,0.0
1578827905792,5178305.0,4527038.0,0.0
1578827905847,5184365.0,4516053.0,0.0
1578827905896,5192551.0,4495435.0,0.0
1578827905943,5199370.0,4496735.0,0.0
1578827905995,5211524.0,4502416.0,0.0
1578827906041,5219100.0,4509354.0,0.0
1578827906090,5217267.0,4504860.0,0.0
1578827906141,5218941.0,4501542.0,0.0
1578827906191,5214758.0,4499909.0,0.0
1578827906232,5185926.0,4452827.0,0.0
1578827906288,5180712.0,4444245.0,0.0
1578827906331,5177636.0,4437743.0,0.0
1578827906392,5187100.0,4443704.0,0.0
1578827906434,5187541.0,4470802.0,0.0
1578827906483,5196588.0,4468398.0,0.0
1578827906529,5219269.0,4518060.0,0.0
1578827906574,5228212.0,4585803.0,0.0
1578827906631,5231571.0,4650932.0,0.0
1578827906673,5193161.0,4609873.0,0.0
1578827906720,5173103.0,4557830.0,0.0
1578827906769,5147491.0,4491544.0,0.0
1578827906817,5134116.0,4454471.0,0.0
1578827906875,5143048.0,4464987.0,0.0
1578827906916,5146136.0,4451527.0,0.0
1578827906971,5141839.0,4415971.0,0.0
1578827907014,5140006.0,4398110.0,0.0
1578827907072,5155531.0,4410853.0,0.0
1578827907114,5149517.0,4396797.0,0.0
1578827907169,5160563.0,4401219.0,0.0
1578827907212,5172142.0,4405172.0,0.0
1578827907266,5170887.0,4441134.0,0.0
1578827907313,5154027.0,4493844.0,0.0
1578827907362,5125239.0,4516803.0,0.0
1578827907412,5113774.0,4538272.0,0.0
1578827907455,5120672.0,4648882.0,0.0
1578827907504,5181165.0,4845834.0,0.0
1578827907562,5204254.0,4918891.0,0.0
1578827907602,5220569.0,4929960.0,0.0
1578827907654,5226912.0,4900020.0,0.0
1578827907707,5220331.0,4815189.0,0.0
1578827907749,5223350.0,4816999.0,0.0
1578827907797,5218501.0,4839021.0,0.0
1578827907845,5211999.0,4814969.0,0.0
1578827907893,5217156.0,4802622.0,0.0
1578827907947,5222300.0,4783221.0,0.0
1578827907995,5197740.0,4710966.0,0.0
1578827908044,5187462.0,4668710.0,0.0
1578827908092,5176120.0,4628670.0,0.0
1578827908144,5164474.0,4581028.0,0.0
1578827908198,5153767.0,4540696.0,0.0
1578827908244,5130034.0,4475452.0,0.0
1578827908291,5087191.0,4411767.0,0.0
1578827908335,5060100.0,4379489.0,0.0
1578827908404,5052986.0,4361575.0,0.0
1578827908433,5049289.0,4386968.0,0.0
1578827908490,5064464.0,4440645.0,0.0
1578827908533,5089985.0,4535361.0,0.0
1578827908587,5118195.0,4573527.0,0.0
1578827908636,5133121.0,4580154.0,0.0
1578827908685,5147085.0,4579665.0,0.0
1578827908730,5159285.0,4579882.0,0.0
1578827908775,5170830.0,4578572.0,0.0
1578827908833,5185349.0,4588537.0,0.0
1578827908872,5193941.0,4587383.0,0.0
1578827908931,5194530.0,4579581.0,0.0
1578827908971,5193467.0,4573330.0,0.0
1578827909027,5202535.0,4591004.0,0.0
1578827909075,5218082.0,4615700.0,0.0
1578827909119,5221000.0,4632135.0,0.0
1578827909171,5225770.0,4638210.0,0.0
1578827909219,5217664.0,4636743.0,0.0
1578827909273,5212529.0,4597900.0,0.0
1578827909314,5196135.0,4556582.0,0.0
1578827909372,5175318.0,4516542.0,0.0
1578827909414,5166183.0,4480621.0,0.0
1578827909467,5124776.0,4415429.0,0.0
1578827909514,5074153.0,4350902.0,0.0
1578827909564,5037553.0,4312454.0,0.0
1578827909609,5025239.0,4306992.0,0.0
1578827909662,5025917.0,4306578.0,0.0
1578827909710,5009613.0,4285397.0,0.0
1578827909757,5001721.0,4271270.0,0.0
1578827909811,4991002.0,4244360.0,0.0
1578827909858,4979683.0,4227923.0,0.0
1578827909906,4989271.0,4236184.0,0.0
1578827909955,4989860.0,4237192.0,0.0
1578827910006,5008119.0,4258340.0,0.0
1578827910055,4978360.0,4216356.0,0.0
1578827910101,4914803.0,4144359.0,0.0
1578827910150,4884839.0,4098724.0,0.0
1578827910197,4868681.0,4079916.0,0.0
1578827910251,4855531.0,4062545.0,0.0
1578827910300,4851573.0,4059331.0,0.0
1578827910348,4822198.0,4019175.0,0.0
1578827910397,4808358.0,3995272.0,0.0
1578827910446,4800002.0,3977805.0,0.0
1578827910495,4796948.0,3972583.0,0.0
1578827910542,4792380.0,3961463.0,0.0
1578827910591,4766035.0,3925469.0,0.0
1578827910635,4700793.0,3848606.0,0.0
1578827910692,4649866.0,3792193.0,0.0
1578827910738,4616578.0,3759611.0,0.0
1578827910788,4607939.0,3748585.0,0.0
1578827910835,4601551.0,3741824.0,0.0
1578827910891,4589543.0,3731431.0,0.0
1578827910934,4573588.0,3712436.0,0.0
1578827910982,4551188.0,3699390.0,0.0
1578827911031,4540131.0,3690091.0,0.0
1578827911078,4540210.0,3684400.0,0.0
1578827911131,4534150.0,3668475.0,0.0
1578827911177,4482090.0,3598913.0,0.0
1578827911230,4433097.0,3549096.0,0.0
1578827911276,4425352.0,3543562.0,0.0
1578827911327,4426461.0,3551613.0,0.0
1578827911374,4436173.0,3570931.0,0.0
1578827911417,4442969.0,3575850.0,0.0
1578827911468,4447368.0,3590684.0,0.0
1578827911515,4438649.0,3579710.0,0.0
1578827911574,4449832.0,3610949.0,0.0
1578827911613,4441295.0,3599412.0,0.0
1578827911670,4433639.0,3603947.0,0.0
1578827911713,4412507.0,3596604.0,0.0
1578827911765,4392878.0,3622548.0,0.0
1578827911815,4365267.0,3562266.0,0.0
1578827911863,4364757.0,3564397.0,0.0
1578827911912,4314158.0,3499318.0,0.0
1578827911955,4320828.0,3489166.0,0.0
1578827912013,4327558.0,3520113.0,0.0
1578827912057,4312078.0,3546485.0,0.0
1578827912105,4391306.0,3780386.0,0.0
1578827912158,4346756.0,3644706.0,0.0
1578827912204,4347977.0,3624315.0,0.0
1578827912257,4315944.0,3562774.0,0.0
1578827912302,4257601.0,3479929.0,0.0
1578827912351,4229558.0,3469381.0,0.0
1578827912396,4223260.0,3469151.0,0.0
1578827912449,4234126.0,3486555.0,0.0
1578827912497,4250103.0,3502606.0,0.0
1578827912551,4254309.0,3496157.0,0.0
1578827912598,4262631.0,3558426.0,0.0
1578827912639,4269799.0,3582082.0,0.0
1578827912688,4273103.0,3612925.0,0.0
1578827912737,4282091.0,3703125.0,0.0
1578827912787,4278416.0,3677722.0,0.0
1578827912838,4212394.0,3540929.0,0.0
1578827912903,4161558.0,3450729.0,0.0
1578827912939,4169415.0,3441844.0,0.0
1578827912991,4221462.0,3533543.0,0.0
1578827913040,4264531.0,3619644.0,0.0
1578827913086,4289848.0,3632826.0,0.0
1578827913138,4337960.0,3785025.0,0.0
1578827913179,4338639.0,3755513.0,0.0
1578827913229,4387303.0,3819426.0,0.0
1578827913275,4397039.0,3823681.0,0.0
1578827913330,4415492.0,3862857.0,0.0
1578827913379,4404796.0,3899392.0,0.0
1578827913423,4413559.0,3941499.0,0.0
1578827913473,4419586.0,3964094.0,0.0
1578827913523,4458855.0,4058258.0,0.0
1578827913573,4468851.0,4056614.0,0.0
1578827913620,4508844.0,4078386.0,0.0
1578827913672,4503393.0,4024336.0,0.0
1578827913717,4513932.0,3981322.0,0.0
1578827913770,4508686.0,3920477.0,0.0
1578827913819,4522130.0,3916897.0,0.0
1578827913870,4515039.0,4000036.0,0.0
1578827913920,4493387.0,4004987.0,0.0
1578827913965,4494179.0,3988634.0,0.0
1578827914019,4494338.0,3941499.0,0.0
1578827914058,4479886.0,3908681.0,0.0
1578827914110,4477433.0,3882008.0,0.0
1578827914159,4481017.0,3871939.0,0.0
1578827914209,4500884.0,3917543.0,0.0
1578827914260,4527036.0,3962961.0,0.0
1578827914312,4540052.0,3986803.0,0.0
1578827914360,4545875.0,3988998.0,0.0
1578827914407,4527987.0,3955386.0,0.0
1578827914458,4505079.0,3933990.0,0.0
1578827914503,4496768.0,3916170.0,0.0
1578827914556,4503925.0,3912061.0,0.0
1578827914598,4516577.0,3916606.0,0.0
1578827914655,4521565.0,3906631.0,0.0
1578827914700,4525895.0,3906381.0,0.0
1578827914753,4518058.0,3873905.0,0.0
1578827914800,4517493.0,3864043.0,0.0
1578827914848,4514442.0,3846056.0,0.0
1578827914900,4484589.0,3803582.0,0.0
1578827914939,4430813.0,3728384.0,0.0
1578827914997,4398124.0,3681729.0,0.0
1578827915040,4381502.0,3653569.0,0.0
1578827915091,4387734.0,3647410.0,0.0
1578827915141,4388603.0,3642552.0,0.0
1578827915191,4385879.0,3638152.0,0.0
1578827915240,4389304.0,3645641.0,0.0
1578827915288,4399311.0,3659310.0,0.0
1578827915341,4411942.0,3668599.0,0.0
1578827915389,4419947.0,3669046.0,0.0
1578827915437,4384239.0,3621185.0,0.0
1578827915481,4323429.0,3545289.0,0.0
1578827915536,4280508.0,3499538.0,0.0
1578827915583,4269257.0,3476673.0,0.0
1578827915633,4268172.0,3469807.0,0.0
1578827915680,4266317.0,3459831.0,0.0
1578827915728,4262891.0,3453049.0,0.0
1578827915778,4261445.0,3453299.0,0.0
1578827915819,4262891.0,3455691.0,0.0
1578827915878,4272920.0,3467477.0,0.0
1578827915922,4268082.0,3444185.0,0.0
1578827915969,4231887.0,3397333.0,0.0
1578827916019,4207250.0,3366479.0,0.0
1578827916068,4207329.0,3362881.0,0.0
1578827916115,4212801.0,3369246.0,0.0
1578827916164,4218274.0,3334178.0,0.0
1578827916212,4223961.0,3318477.0,0.0
1578827916262,4225657.0,3320513.0,0.0
1578827916311,4224481.0,3317735.0,0.0
1578827916359,4225477.0,3320145.0,0.0
1578827916407,4232035.0,3319710.0,0.0
1578827916457,4213434.0,3293917.0,0.0
1578827916507,4173498.0,3248008.0,0.0
1578827916551,4152850.0,3218568.0,0.0
1578827916605,4154489.0,3218858.0,0.0
1578827916652,4162440.0,3227578.0,0.0
1578827916702,4175510.0,3235464.0,0.0
1578827916751,4183968.0,3242455.0,0.0
1578827916801,4184454.0,3246242.0,0.0
1578827916849,4189893.0,3255619.0,0.0
1578827916897,4200273.0,3266992.0,0.0
1578827916947,4209544.0,3277411.0,0.0
1578827916994,4187406.0,3254830.0,0.0
1578827917044,4159250.0,3224059.0,0.0
1578827917098,4152941.0,3214390.0,0.0
1578827917144,4159646.0,3223393.0,0.0
1578827917198,4175396.0,3241752.0,0.0
1578827917244,4187857.0,3255848.0,0.0
1578827917294,4190403.0,3261943.0,0.0
1578827917343,4196055.0,3263268.0,0.0
1578827917397,4201516.0,3268171.0,0.0
1578827917441,4206933.0,3271239.0,0.0
1578827917490,4190559.0,3251679.0,0.0
1578827917538,4157848.0,3212777.0,0.0
1578827917584,4136218.0,3194022.0,0.0
1578827917637,4137553.0,3191361.0,0.0
1578827917684,4150521.0,3202688.0,0.0
1578827917735,4158155.0,3213419.0,0.0
1578827917784,4161613.0,3213106.0,0.0
1578827917831,4158301.0,3212930.0,0.0
1578827917881,4159725.0,3211109.0,0.0
1578827917938,4165877.0,3220502.0,0.0
1578827917975,4162846.0,3217635.0,0.0
1578827918021,4126551.0,3176728.0,0.0
1578827918078,4103393.0,3148373.0,0.0
1578827918122,4099797.0,3146370.0,0.0
1578827918175,4105654.0,3156313.0,0.0
1578827918223,4114905.0,3170608.0,0.0
1578827918272,4118375.0,3178709.0,0.0
1578827918321,4119980.0,3179022.0,0.0
1578827918363,4127319.0,3184438.0,0.0
1578827918418,4132171.0,3196277.0,0.0
1578827918460,4144755.0,3208669.0,0.0
1578827918510,4127433.0,3185194.0,0.0
1578827918561,4090752.0,3145274.0,0.0
1578827918610,4077964.0,3129106.0,0.0
1578827918659,4081141.0,3136495.0,0.0
1578827918708,4094472.0,3153032.0,0.0
1578827918756,4099730.0,3163066.0,0.0
1578827918804,4099006.0,3163282.0,0.0
1578827918860,4103722.0,3166478.0,0.0
1578827918907,4108867.0,3174968.0,0.0
1578827918958,4118962.0,3185340.0,0.0
1578827919006,4119269.0,3189723.0,0.0
1578827919056,4093387.0,3154277.0,0.0
1578827919103,4070558.0,3132011.0,0.0
1578827919152,4068002.0,3129916.0,0.0
1578827919202,4078823.0,3146240.0,0.0
1578827919243,4093736.0,3166776.0,0.0
1578827919299,4098001.0,3174525.0,0.0
1578827919344,4100081.0,3176935.0,0.0
1578827919401,4103133.0,3178977.0,0.0
1578827919447,4110392.0,3184361.0,0.0
1578827919498,4114915.0,3192836.0,0.0
1578827919545,4085879.0,3158064.0,0.0
1578827919589,4060619.0,3127354.0,0.0
1578827919642,4054479.0,3126544.0,0.0
1578827919686,4066125.0,3142759.0,0.0
1578827919740,4077850.0,3157245.0,0.0
1578827919784,4082318.0,3164283.0,0.0
1578827919838,4085144.0,3166984.0,0.0
1578827919885,4088829.0,3172276.0,0.0
1578827919934,4096371.0,3177669.0,0.0
1578827919986,4101223.0,3186472.0,0.0
1578827920030,4084713.0,3162577.0,0.0
1578827920082,4054603.0,3127117.0,0.0
1578827920133,4044111.0,3113563.0,0.0
1578827920181,4045998.0,3119055.0,0.0
1578827920224,4056185.0,3130819.0,0.0
1578827920279,4056299.0,3134612.0,0.0
1578827920327,4058493.0,3135997.0,0.0
1578827920373,4056775.0,3138712.0,0.0
1578827920424,4063038.0,3148350.0,0.0
1578827920469,4073350.0,3157812.0,0.0
1578827920523,4075635.0,3158393.0,0.0
1578827920564,4045500.0,3122259.0,0.0
1578827920614,4023192.0,3100383.0,0.0
1578827920665,4021711.0,3100958.0,0.0
1578827920719,4032170.0,3114166.0,0.0
1578827920768,4042189.0,3125717.0,0.0
1578827920815,4039621.0,3126259.0,0.0
1578827920866,4043467.0,3126198.0,0.0
1578827920909,4047435.0,3133145.0,0.0
1578827920959,4054389.0,3144588.0,0.0
1578827921006,4066996.0,3157323.0,0.0
1578827921061,4057339.0,3144068.0,0.0
1578827921107,4029163.0,3108370.0,0.0
1578827921159,4014010.0,3089714.0,0.0
1578827921209,4018318.0,3095480.0,0.0
1578827921258,4026097.0,3109310.0,0.0
1578827921306,4031378.0,3115643.0,0.0
1578827921352,4030258.0,3115383.0,0.0
1578827921404,4034409.0,3121097.0,0.0
1578827921449,4039046.0,3124087.0,0.0
1578827921497,4049944.0,3138147.0,0.0
1578827921547,4053166.0,3144624.0,0.0
1578827921592,4023259.0,3106251.0,0.0
1578827921642,3996925.0,3074041.0,0.0
1578827921697,3990605.0,3067609.0,0.0
1578827921748,3998610.0,3077461.0,0.0
1578827921795,4002308.0,3086921.0,0.0
1578827921845,4001403.0,3089867.0,0.0
1578827921891,4000883.0,3088085.0,0.0
1578827921940,4004343.0,3093469.0,0.0
1578827921989,4009658.0,3101570.0,0.0
1578827922041,4021406.0,3112653.0,0.0
1578827922089,4003518.0,3093577.0,0.0
1578827922138,3971791.0,3054222.0,0.0
1578827922187,3956254.0,3037356.0,0.0
1578827922233,3958991.0,3042986.0,0.0
1578827922285,3962191.0,3055262.0,0.0
1578827922327,3967075.0,3059287.0,0.0
1578827922383,3962880.0,3057857.0,0.0
1578827922436,3971202.0,3060983.0,0.0
1578827922474,3978179.0,3074186.0,0.0
1578827922530,3986060.0,3084856.0,0.0
1578827922572,3991816.0,3088765.0,0.0
1578827922620,3966815.0,3052586.0,0.0
1578827922669,3937993.0,3023335.0,0.0
1578827922725,3931717.0,3020070.0,0.0
1578827922767,3939598.0,3029103.0,0.0
1578827922823,3949210.0,3041143.0,0.0
1578827922869,3950669.0,3042887.0,0.0
1578827922912,3949775.0,3042344.0,0.0
1578827922970,3959159.0,3057121.0,0.0
1578827923012,3966929.0,3068395.0,0.0
1578827923067,3983323.0,3082967.0,0.0
1578827923111,3993963.0,3091870.0,0.0
1578827923165,3973792.0,3064771.0,0.0
1578827923209,3945195.0,3034764.0,0.0
1578827923254,3945604.0,3031903.0,0.0
1578827923306,3951912.0,3044729.0,0.0
1578827923359,3960890.0,3058598.0,0.0
1578827923409,3966203.0,3064649.0,0.0
1578827923456,3972152.0,3066384.0,0.0
1578827923500,3978112.0,3074163.0,0.0
1578827923548,3989802.0,3092772.0,0.0
1578827923596,4003620.0,3109806.0,0.0
1578827923650,4018025.0,3122604.0,0.0
1578827923697,4020864.0,3123208.0,0.0
1578827923748,3993183.0,3087756.0,0.0
1578827923792,3978743.0,3072451.0,0.0
1578827923850,3983256.0,3077782.0,0.0
1578827923897,3990389.0,3093286.0,0.0
1578827923949,3999447.0,3100513.0,0.0
1578827923989,4001470.0,3102228.0,0.0
1578827924045,4008019.0,3107772.0,0.0
1578827924091,4017980.0,3118413.0,0.0
1578827924143,4027908.0,3129518.0,0.0
1578827924190,4036998.0,3138690.0,0.0
1578827924239,4043715.0,3149244.0,0.0
1578827924291,4047853.0,3147424.0,0.0
1578827924331,4025396.0,3120485.0,0.0
1578827924388,4008549.0,3102419.0,0.0
1578827924432,4005812.0,3102134.0,0.0
1578827924479,4018295.0,3115070.0,0.0
1578827924533,4022525.0,3124538.0,0.0
1578827924582,4023474.0,3125280.0,0.0
1578827924636,4026528.0,3130810.0,0.0
1578827924675,4033617.0,3137917.0,0.0
1578827924733,4043544.0,3150752.0,0.0
1578827924772,4059058.0,3164909.0,0.0
1578827924829,4071960.0,3180369.0,0.0
1578827924871,4069664.0,3175887.0,0.0
1578827924918,4043692.0,3138842.0,0.0
1578827924974,4027918.0,3116186.0,0.0
1578827925022,4027477.0,3116791.0,0.0
1578827925070,4030768.0,3128608.0,0.0
1578827925116,4038863.0,3133442.0,0.0
1578827925172,4039259.0,3137497.0,0.0
1578827925212,4046248.0,3143990.0,0.0
1578827925269,4051732.0,3154025.0,0.0
1578827925312,4060460.0,3162737.0,0.0
1578827925365,4070942.0,3177569.0,0.0
1578827925415,4086298.0,3193012.0,0.0
1578827925465,4092302.0,3196247.0,0.0
1578827925515,4066058.0,3163526.0,0.0
1578827925559,4054751.0,3141497.0,0.0
1578827925608,4051913.0,3145979.0,0.0
1578827925659,4061624.0,3160092.0,0.0
1578827925709,4070546.0,3167634.0,0.0
1578827925751,4075296.0,3174058.0,0.0
1578827925807,4080292.0,3179641.0,0.0
1578827925854,4087212.0,3189302.0,0.0
1578827925906,4096700.0,3200983.0,0.0
1578827925955,4113050.0,3215937.0,0.0
1578827925996,4125543.0,3229192.0,0.0
1578827926053,4135834.0,3239480.0,0.0
1578827926093,4116929.0,3216310.0,0.0
1578827926149,4099390.0,3186702.0,0.0
1578827926191,4090922.0,3182120.0,0.0
1578827926247,4102375.0,3195146.0,0.0
1578827926293,4112371.0,3206658.0,0.0
1578827926344,4113976.0,3206597.0,0.0
1578827926406,4117946.0,3206475.0,0.0
1578827926439,4122242.0,3213626.0,0.0
1578827926491,4129105.0,3218706.0,0.0
1578827926534,4135822.0,3228558.0,0.0
1578827926586,4147220.0,3239456.0,0.0
1578827926633,4150918.0,3243717.0,0.0
1578827926679,4130462.0,3212011.0,0.0
1578827926731,4106469.0,3178961.0,0.0
1578827926776,4103936.0,3175228.0,0.0
1578827926828,4111794.0,3186121.0,0.0
1578827926875,4117957.0,3198252.0,0.0
1578827926932,4114169.0,3191690.0,0.0
1578827926974,4111229.0,3188644.0,0.0
1578827927031,4113038.0,3188339.0,0.0
1578827927071,4119358.0,3196814.0,0.0
1578827927121,4122558.0,3203139.0,0.0
1578827927169,4132859.0,3212265.0,0.0
1578827927217,4143534.0,3223401.0,0.0
1578827927267,4120468.0,3191942.0,0.0
1578827927316,4093342.0,3153980.0,0.0
1578827927364,4087123.0,3142981.0,0.0
1578827927413,4091046.0,3146821.0,0.0
1578827927462,4098011.0,3159013.0,0.0
1578827927511,4107170.0,3165147.0,0.0
1578827927562,4110380.0,3165468.0,0.0
1578827927612,4117528.0,3175992.0,0.0
1578827927658,4128042.0,3190135.0,0.0
1578827927709,4142606.0,3205219.0,0.0
1578827927757,4151178.0,3216778.0,0.0
1578827927807,4163750.0,3225728.0,0.0
1578827927855,4148429.0,3202106.0,0.0
1578827927903,4129897.0,3178892.0,0.0
1578827927953,4127173.0,3177386.0,0.0
1578827928003,4137077.0,3193602.0,0.0
1578827928052,4151133.0,3212838.0,0.0
1578827928100,4159792.0,3223249.0,0.0
1578827928154,4165018.0,3234310.0,0.0
1578827928197,4174210.0,3244649.0,0.0
1578827928247,4184533.0,3252666.0,0.0
1578827928295,4193115.0,3260131.0,0.0
1578827928345,4198408.0,3268744.0,0.0
1578827928393,4207859.0,3277005.0,0.0
1578827928443,4184466.0,3242081.0,0.0
1578827928493,4160845.0,3211095.0,0.0
1578827928540,4152862.0,3207415.0,0.0
1578827928590,4158618.0,3214451.0,0.0
1578827928636,4162564.0,3219569.0,0.0
1578827928687,4165491.0,3221772.0,0.0
1578827928735,4168285.0,3224840.0,0.0
1578827928786,4167178.0,3229222.0,0.0
1578827928834,4175601.0,3233834.0,0.0
1578827928884,4184238.0,3245598.0,0.0
1578827928936,4189496.0,3249523.0,0.0
1578827928980,4159297.0,3211385.0,0.0
1578827929031,4121870.0,3174495.0,0.0
1578827929079,4113399.0,3164842.0,0.0
1578827929128,4118308.0,3177455.0,0.0
1578827929176,4124074.0,3189662.0,0.0
1578827929226,4121835.0,3188475.0,0.0
1578827929275,4121350.0,3195154.0,0.0
1578827929324,4127975.0,3210390.0,0.0
1578827929381,4137236.0,3224281.0,0.0
1578827929430,4148780.0,3232963.0,0.0
1578827929474,4152500.0,3235273.0,0.0
1578827929525,4126596.0,3195895.0,0.0
1578827929572,4091804.0,3151425.0,0.0
1578827929616,4079806.0,3141818.0,0.0
1578827929669,4082939.0,3145963.0,0.0
1578827929714,4091136.0,3156183.0,0.0
1578827929772,4094313.0,3159035.0,0.0
1578827929819,4094268.0,3166348.0,0.0
1578827929869,4102410.0,3175015.0,0.0
1578827929914,4117471.0,3189615.0,0.0
1578827929966,4128394.0,3202482.0,0.0
1578827930014,4140627.0,3219492.0,0.0
1578827930060,4121858.0,3199301.0,0.0
1578827930107,4093374.0,3169056.0,0.0
1578827930154,4086771.0,3164544.0,0.0
1578827930211,4089090.0,3174127.0,0.0
1578827930256,4094132.0,3183207.0,0.0
1578827930308,4097377.0,3187490.0,0.0
1578827930355,4093612.0,3189250.0,0.0
1578827930397,4092696.0,3189302.0,0.0
1578827930455,4097253.0,3194075.0,0.0
1578827930504,4101347.0,3198795.0,0.0
1578827930549,4105756.0,3202344.0,0.0
1578827930595,4072005.0,3162638.0,0.0
1578827930648,4043115.0,3120784.0,0.0
1578827930695,4031219.0,3106098.0,0.0
1578827930749,4032418.0,3105188.0,0.0
1578827930797,4032509.0,3100507.0,0.0
1578827930845,4022808.0,3088574.0,0.0
1578827930901,4033550.0,3096766.0,0.0
1578827930942,4075296.0,3154255.0,0.0
1578827930990,4137404.0,3238272.0,0.0
1578827931036,4177737.0,3305291.0,0.0
1578827931093,4216771.0,3371446.0,0.0
1578827931136,4215617.0,3372166.0,0.0
1578827931190,4225375.0,3404948.0,0.0
1578827931237,4246259.0,3466500.0,0.0
1578827931285,4269529.0,3517793.0,0.0
1578827931334,4300296.0,3566012.0,0.0
1578827931383,4334171.0,3606330.0,0.0
1578827931433,4367437.0,3647971.0,0.0
1578827931478,4405552.0,3691676.0,0.0
1578827931529,4435833.0,3724789.0,0.0
1578827931581,4467821.0,3754177.0,0.0
1578827931623,4496067.0,3779646.0,0.0
1578827931670,4523113.0,3800872.0,0.0
1578827931725,4551574.0,3827498.0,0.0
1578827931770,4580270.0,3850942.0,0.0
1578827931820,4607827.0,3881837.0,0.0
1578827931866,4639022.0,3910146.0,0.0
1578827931917,4668139.0,3939295.0,0.0
1578827931976,4691917.0,3957569.0,0.0
1578827932018,4721304.0,3985149.0,0.0
1578827932070,4750986.0,4004112.0,0.0
1578827932113,4780903.0,4029767.0,0.0
1578827932161,4799392.0,4039940.0,0.0
1578827932214,4815910.0,4045102.0,0.0
1578827932260,4837723.0,4058197.0,0.0
1578827932315,4854605.0,4061846.0,0.0
1578827932356,4877082.0,4074000.0,0.0
1578827932404,4894541.0,4083608.0,0.0
1578827932461,4916161.0,4096473.0,0.0
1578827932511,4936129.0,4105843.0,0.0
1578827932559,4956107.0,4117300.0,0.0
1578827932602,4970343.0,4130373.0,0.0
1578827932657,4979626.0,4122388.0,0.0
1578827932698,4975975.0,4097834.0,0.0
1578827932755,4958878.0,4054940.0,0.0
1578827932796,4940312.0,4008433.0,0.0
1578827932849,4925523.0,3965448.0,0.0
1578827932895,4912676.0,3924601.0,0.0
1578827932946,4893409.0,3878808.0,0.0
1578827932994,4872537.0,3831958.0,0.0
1578827933044,4853733.0,3792260.0,0.0
1578827933092,4848938.0,3777093.0,0.0
1578827933141,4843930.0,3766696.0,0.0
1578827933196,4837134.0,3756462.0,0.0
1578827933237,4831628.0,3740576.0,0.0
1578827933291,4800239.0,3693076.0,0.0
1578827933342,4756673.0,3620571.0,0.0
1578827933405,4725963.0,3566654.0,0.0
1578827933439,4706401.0,3531172.0,0.0
1578827933482,4690346.0,3502886.0,0.0
1578827933537,4672481.0,3472359.0,0.0
1578827933577,4653576.0,3444364.0,0.0
1578827933630,4639815.0,3424400.0,0.0
1578827933679,4627795.0,3406953.0,0.0
1578827933729,4621541.0,3396512.0,0.0
1578827933780,4612756.0,3387310.0,0.0
1578827933826,4602524.0,3374805.0,0.0
1578827933870,4576902.0,3333079.0,0.0
1578827933928,4532983.0,3282137.0,0.0
1578827933979,4511648.0,3254816.0,0.0
1578827934018,4494360.0,3238072.0,0.0
1578827934076,4484658.0,3223554.0,0.0
1578827934119,4471541.0,3209488.0,0.0
1578827934172,4459274.0,3203468.0,0.0
1578827934220,4449607.0,3200065.0,0.0
1578827934273,4448509.0,3197876.0,0.0
1578827934321,4447650.0,3204677.0,0.0
1578827934367,4451336.0,3209427.0,0.0
1578827934416,4457939.0,3215087.0,0.0
1578827934470,4455237.0,3213051.0,0.0
1578827934517,4425681.0,3169684.0,0.0
1578827934558,4384896.0,3118703.0,0.0
1578827934609,4361150.0,3098203.0,0.0
1578827934660,4348011.0,3090340.0,0.0
1578827934711,4335687.0,3073184.0,0.0
1578827934761,4316046.0,3057481.0,0.0
1578827934811,4304965.0,3043063.0,0.0
1578827934860,4293353.0,3042787.0,0.0
1578827934900,4285539.0,3046970.0,0.0
1578827934960,4289294.0,3058291.0,0.0
1578827934999,4294688.0,3070661.0,0.0
1578827935056,4296090.0,3080618.0,0.0
1578827935100,4273928.0,3051560.0,0.0
1578827935155,4233390.0,2998034.0,0.0
1578827935202,4202014.0,2962436.0,0.0
1578827935252,4185325.0,2956592.0,0.0
1578827935300,4181796.0,2977627.0,0.0
1578827935342,4190866.0,3004741.0,0.0
1578827935398,4199322.0,3024231.0,0.0
1578827935438,4201833.0,3039246.0,0.0
1578827935490,4211671.0,3059110.0,0.0
1578827935542,4220907.0,3083058.0,0.0
1578827935594,4232667.0,3099641.0,0.0
1578827935635,4238163.0,3108439.0,0.0
1578827935691,4206559.0,3062798.0,0.0
1578827935740,4172367.0,3013499.0,0.0
1578827935783,4155146.0,2996581.0,0.0
1578827935838,4155237.0,2998798.0,0.0
1578827935882,4156684.0,3008658.0,0.0
1578827935937,4148656.0,2998775.0,0.0
1578827935985,4139203.0,2991746.0,0.0
1578827936034,4139056.0,3005813.0,0.0
1578827936082,4155971.0,3032263.0,0.0
1578827936132,4168783.0,3056357.0,0.0
1578827936181,4171767.0,3065795.0,0.0
1578827936224,4149877.0,3028874.0,0.0
1578827936280,4121575.0,2995693.0,0.0
1578827936325,4107430.0,2984273.0,0.0
1578827936375,4103076.0,2977542.0,0.0
1578827936424,4103336.0,2977757.0,0.0
1578827936473,4107024.0,2988732.0,0.0
1578827936523,4114984.0,3011275.0,0.0
1578827936573,4132904.0,3047828.0,0.0
1578827936616,4156775.0,3090616.0,0.0
1578827936666,4172988.0,3118023.0,0.0
1578827936719,4192493.0,3137420.0,0.0
1578827936761,4184523.0,3121915.0,0.0
1578827936816,4163750.0,3088948.0,0.0
1578827936862,4153756.0,3075594.0,0.0
1578827936913,4154784.0,3074202.0,0.0
1578827936969,4161206.0,3072067.0,0.0
1578827937007,4155948.0,3063714.0,0.0
1578827937056,4155926.0,3068121.0,0.0
1578827937106,4160709.0,3088077.0,0.0
1578827937154,4173169.0,3107069.0,0.0
1578827937201,4186851.0,3125534.0,0.0
1578827937250,4200838.0,3140701.0,0.0
1578827937300,4195760.0,3129687.0,0.0
1578827937349,4186467.0,3114266.0,0.0
1578827937398,4203213.0,3131261.0,0.0
1578827937450,4242324.0,3189288.0,0.0
1578827937495,4285992.0,3283155.0,0.0
1578827937547,4328801.0,3357907.0,0.0
1578827937594,4352229.0,3385398.0,0.0
1578827937643,4375296.0,3420598.0,0.0
1578827937692,4404309.0,3457901.0,0.0
1578827937739,4432871.0,3502596.0,0.0
1578827937790,4452591.0,3504881.0,0.0
1578827937842,4432193.0,3475533.0,0.0
1578827937889,4430803.0,3487595.0,0.0
1578827937935,4449141.0,3532472.0,0.0
1578827937990,4435573.0,3483251.0,0.0
1578827938040,4449978.0,3477262.0,0.0
1578827938083,4476527.0,3502411.0,0.0
1578827938139,4508097.0,3519116.0,0.0
1578827938183,4536183.0,3523835.0,0.0
1578827938237,4557147.0,3540449.0,0.0
1578827938286,4568862.0,3567542.0,0.0
1578827938335,4580010.0,3642195.0,0.0
1578827938383,4607995.0,3797209.0,0.0
1578827938438,4675612.0,3933726.0,0.0
1578827938483,4718919.0,4006009.0,0.0
1578827938522,4730666.0,4007608.0,0.0
1578827938580,4747300.0,4007570.0,0.0
1578827938625,4757497.0,4017964.0,0.0
1578827938678,4764747.0,4000648.0,0.0
1578827938717,4751620.0,3936786.0,0.0
1578827938770,4764858.0,3923232.0,0.0
1578827938816,4795038.0,3991950.0,0.0
1578827938868,4776177.0,3913205.0,0.0
1578827938918,4778902.0,3887030.0,0.0
1578827938964,4767867.0,3833297.0,0.0
1578827939021,4769552.0,3809194.0,0.0
1578827939065,4782149.0,3812636.0,0.0
1578827939112,4800455.0,3824186.0,0.0
1578827939166,4820026.0,3831866.0,0.0
1578827939207,4861523.0,3948298.0,0.0
1578827939265,4899752.0,4117851.0,0.0
1578827939307,4936557.0,4222864.0,0.0
1578827939362,4943036.0,4243752.0,0.0
1578827939407,4941962.0,4228729.0,0.0
1578827939460,4951946.0,4219123.0,0.0
1578827939509,4963762.0,4217616.0,0.0
1578827939557,4969506.0,4199497.0,0.0
1578827939606,4979898.0,4184687.0,0.0
1578827939653,4994145.0,4276750.0,0.0
1578827939706,5020887.0,4343480.0,0.0
1578827939751,5008686.0,4290970.0,0.0
1578827939802,5004887.0,4231767.0,0.0
1578827939848,5015119.0,4190157.0,0.0
1578827939893,5030519.0,4158451.0,0.0
1578827939949,5043646.0,4144256.0,0.0
1578827939998,5049380.0,4138443.0,0.0
1578827940048,5058663.0,4169520.0,0.0
1578827940089,5070401.0,4268865.0,0.0
1578827940140,5107622.0,4399256.0,0.0
1578827940194,5123000.0,4437607.0,0.0
1578827940241,5125997.0,4440415.0,0.0
1578827940287,5136739.0,4423785.0,0.0
1578827940341,5144167.0,4420136.0,0.0
1578827940389,5151573.0,4417635.0,0.0
1578827940430,5156469.0,4401176.0,0.0
1578827940488,5148430.0,4425285.0,0.0
1578827940531,5165718.0,4500520.0,0.0
1578827940586,5168455.0,4510441.0,0.0
1578827940626,5147062.0,4406676.0,0.0
1578827940684,5130678.0,4317964.0,0.0
1578827940726,5129388.0,4279052.0,0.0
1578827940782,5135937.0,4259770.0,0.0
1578827940825,5150827.0,4254866.0,0.0
1578827940879,5166329.0,4300867.0,0.0
1578827940935,5203451.0,4420910.0,0.0
1578827940974,5219189.0,4483561.0,0.0
1578827941026,5230362.0,4550253.0,0.0
1578827941074,5238639.0,4561527.0,0.0
1578827941118,5232442.0,4533692.0,0.0
1578827941166,5218409.0,4512820.0,0.0
1578827941221,5211387.0,4467750.0,0.0
1578827941267,5204356.0,4457148.0,0.0
1578827941311,5203246.0,4505642.0,0.0
1578827941370,5232170.0,4542693.0,0.0
1578827941416,5219823.0,4504169.0,0.0
1578827941469,5216125.0,4478726.0,0.0
1578827941516,5214203.0,4441606.0,0.0
1578827941565,5216125.0,4407259.0,0.0
1578827941606,5192291.0,4347211.0,0.0
1578827941662,5203043.0,4343076.0,0.0
1578827941708,5254999.0,4498127.0,0.0
1578827941759,5321134.0,4690019.0,0.0
1578827941810,5357917.0,4786389.0,0.0
1578827941857,5341194.0,4798195.0,0.0
1578827941909,5312914.0,4747960.0,0.0
1578827941948,5304084.0,4683101.0,0.0
1578827942005,5295581.0,4638179.0,0.0
1578827942048,5285191.0,4603434.0,0.0
1578827942103,5263209.0,4577584.0,0.0
1578827942148,5268931.0,4647168.0,0.0
1578827942199,5273543.0,4716814.0,0.0
1578827942250,5269428.0,4697986.0,0.0
1578827942292,5258855.0,4633845.0,0.0
1578827942348,5260507.0,4592989.0,0.0
1578827942389,5265582.0,4564693.0,0.0
1578827942443,5284851.0,4581061.0,0.0
1578827942491,5314994.0,4622021.0,0.0
1578827942533,5346801.0,4736595.0,0.0
1578827942590,5412904.0,4884008.0,0.0
1578827942631,5425794.0,4943294.0,0.0
1578827942685,5399584.0,4922558.0,0.0
1578827942732,5373543.0,4877584.0,0.0
1578827942788,5357635.0,4821386.0,0.0
1578827942828,5361117.0,4810888.0,0.0
1578827942885,5356391.0,4780850.0,0.0
1578827942939,5357488.0,4811320.0,0.0
1578827942974,5376902.0,4878244.0,0.0
1578827943029,5371440.0,4839484.0,0.0
1578827943078,5345367.0,4775604.0,0.0
1578827943127,5329401.0,4716389.0,0.0
1578827943170,5322796.0,4663318.0,0.0
1578827943227,5313288.0,4614123.0,0.0
1578827943269,5301223.0,4582196.0,0.0
1578827943325,5318320.0,4590604.0,0.0
1578827943371,5336998.0,4634408.0,0.0
1578827943426,5360902.0,4680317.0,0.0
1578827943475,5373328.0,4706056.0,0.0
1578827943520,5361659.0,4687288.0,0.0
1578827943571,5350511.0,4652830.0,0.0
1578827943612,5337768.0,4629944.0,0.0
1578827943668,5316091.0,4589807.0,0.0
1578827943712,5284217.0,4543221.0,0.0
1578827943756,5273171.0,4549237.0,0.0
1578827943812,5285404.0,4567235.0,0.0
1578827943855,5254842.0,4510592.0,0.0
1578827943907,5238741.0,4462732.0,0.0
1578827943955,5232024.0,4434576.0,0.0
1578827944011,5235155.0,4426920.0,0.0
1578827944051,5240584.0,4423029.0,0.0
1578827944106,5216103.0,4367297.0,0.0
1578827944153,5181752.0,4300503.0,0.0
1578827944196,5175533.0,4308731.0,0.0
1578827944250,5139498.0,4266583.0,0.0
1578827944294,5117460.0,4251369.0,0.0
1578827944344,5122627.0,4256276.0,0.0
1578827944393,5121259.0,4260583.0,0.0
1578827944449,5125851.0,4257212.0,0.0
1578827944492,5116544.0,4244780.0,0.0
1578827944547,5113604.0,4233711.0,0.0
1578827944593,5117244.0,4246229.0,0.0
1578827944636,5052409.0,4177875.0,0.0
1578827944693,4989667.0,4098903.0,0.0
1578827944740,4966249.0,4043526.0,0.0
1578827944789,4964746.0,4037233.0,0.0
1578827944835,4986784.0,4047532.0,0.0
1578827944890,5002433.0,4066169.0,0.0
1578827944932,5012632.0,4060395.0,0.0
1578827944979,5058381.0,4119379.0,0.0
1578827945032,5093036.0,4183848.0,0.0
1578827945086,5100600.0,4223264.0,0.0
1578827945132,5110393.0,4248317.0,0.0
1578827945179,5109782.0,4261278.0,0.0
1578827945230,5101314.0,4258574.0,0.0
1578827945273,5084793.0,4245881.0,0.0
1578827945330,5099324.0,4289989.0,0.0
1578827945371,5102852.0,4399754.0,0.0
1578827945426,5138265.0,4448290.0,0.0
1578827945474,5113108.0,4380923.0,0.0
1578827945525,5114859.0,4380308.0,0.0
1578827945574,5119959.0,4365121.0,0.0
1578827945616,5111694.0,4324941.0,0.0
1578827945669,5097977.0,4305184.0,0.0
1578827945713,5060981.0,4332907.0,0.0
1578827945771,5064159.0,4349135.0,0.0
1578827945811,5075872.0,4369863.0,0.0
1578827945869,5075669.0,4365312.0,0.0
1578827945912,5079570.0,4379875.0,0.0
1578827945964,5097764.0,4405093.0,0.0
1578827946013,5111027.0,4420429.0,0.0
1578827946061,5119349.0,4420055.0,0.0
1578827946107,5112598.0,4400507.0,0.0
1578827946161,5102535.0,4406593.0,0.0
1578827946212,5121507.0,4468469.0,0.0
1578827946251,5118817.0,4477001.0,0.0
1578827946310,5106243.0,4421373.0,0.0
1578827946350,5118433.0,4395505.0,0.0
1578827946407,5135563.0,4376035.0,0.0
1578827946459,5140922.0,4368676.0,0.0
1578827946497,5154379.0,4382529.0,0.0
1578827946551,5194089.0,4457287.0,0.0
1578827946601,5221044.0,4556320.0,0.0
1578827946645,5262518.0,4692012.0,0.0
1578827946694,5267132.0,4704461.0,0.0
1578827946750,5257339.0,4687514.0,0.0
1578827946791,5268354.0,4667349.0,0.0
1578827946846,5274040.0,4654780.0,0.0
1578827946896,5281141.0,4660051.0,0.0
1578827946936,5267821.0,4621291.0,0.0
1578827946995,5288604.0,4644291.0,0.0
1578827947040,5324539.0,4744017.0,0.0
1578827947093,5307578.0,4753777.0,0.0
1578827947137,5288445.0,4683075.0,0.0
1578827947189,5266917.0,4602307.0,0.0
1578827947231,5263786.0,4559284.0,0.0
1578827947286,5258053.0,4533599.0,0.0
1578827947332,5264814.0,4516929.0,0.0
1578827947377,5291239.0,4583749.0,0.0
1578827947428,5342957.0,4743574.0,0.0
1578827947475,5347017.0,4805556.0,0.0
1578827947527,5344688.0,4809335.0,0.0
1578827947573,5338853.0,4804551.0,0.0
1578827947628,5333065.0,4761916.0,0.0
1578827947673,5318534.0,4728031.0,0.0
1578827947729,5305543.0,4691604.0,0.0
1578827947779,5316059.0,4717082.0,0.0
1578827947817,5327975.0,4807159.0,0.0
1578827947866,5335732.0,4825181.0,0.0
1578827947916,5323735.0,4789154.0,0.0
1578827947966,5325431.0,4742404.0,0.0
1578827948012,5337350.0,4700334.0,0.0
1578827948066,5328440.0,4661776.0,0.0
1578827948112,5315006.0,4621102.0,0.0
1578827948163,5309817.0,4612329.0,0.0
1578827948210,5363661.0,4730719.0,0.0
1578827948266,5374425.0,4761484.0,0.0
1578827948314,5366952.0,4772831.0,0.0
1578827948361,5369902.0,4777443.0,0.0
1578827948410,5376755.0,4767362.0,0.0
1578827948464,5371022.0,4742257.0,0.0
1578827948504,5376642.0,4739596.0,0.0
1578827948557,5383257.0,4744797.0,0.0
1578827948605,5398160.0,4841583.0,0.0
1578827948654,5406096.0,4885802.0,0.0
1578827948706,5396565.0,4860265.0,0.0
1578827948753,5387948.0,4791503.0,0.0
1578827948794,5385268.0,4736666.0,0.0
1578827948847,5383029.0,4684062.0,0.0
1578827948892,5386648.0,4665971.0,0.0
1578827948949,5409162.0,4691094.0,0.0
1578827948992,5481719.0,4857360.0,0.0
1578827949048,5513831.0,4913058.0,0.0
1578827949097,5571496.0,4990618.0,0.0
1578827949146,5558154.0,5005805.0,0.0
1578827949195,5548350.0,5006195.0,0.0
1578827949241,5548509.0,4997343.0,0.0
1578827949291,5540935.0,4976219.0,0.0
1578827949337,5535280.0,4973669.0,0.0
1578827949391,5555644.0,5039733.0,0.0
1578827949439,5546361.0,5050563.0,0.0
1578827949489,5561693.0,5125355.0,0.0
1578827949536,5543298.0,5086025.0,0.0
1578827949586,5541227.0,5036779.0,0.0
1578827949636,5546735.0,5004574.0,0.0
1578827949682,5554956.0,4969163.0,0.0
1578827949729,5560360.0,4957433.0,0.0
1578827949777,5568241.0,4964246.0,0.0
1578827949829,5599244.0,5028786.0,0.0
1578827949883,5639102.0,5123102.0,0.0
1578827949930,5665290.0,5173026.0,0.0
1578827949976,5657770.0,5190718.0,0.0
1578827950027,5646654.0,5270637.0,0.0
1578827950075,5638005.0,5252648.0,0.0
1578827950118,5618139.0,5211412.0,0.0
1578827950169,5610359.0,5187429.0,0.0
1578827950219,5608945.0,5180204.0,0.0
1578827950273,5625047.0,5206877.0,0.0
1578827950317,5624313.0,5211286.0,0.0
1578827950369,5611129.0,5172819.0,0.0
1578827950417,5611491.0,5131832.0,0.0
1578827950466,5599583.0,5073475.0,0.0
1578827950513,5602919.0,5044981.0,0.0
1578827950563,5601009.0,5030712.0,0.0
1578827950608,5605701.0,5037145.0,0.0
1578827950661,5602988.0,5074629.0,0.0
1578827950709,5600058.0,5044315.0,0.0
1578827950760,5579717.0,5003574.0,0.0
1578827950811,5577604.0,5004808.0,0.0
1578827950857,5563412.0,4982544.0,0.0
1578827950901,5554592.0,4959794.0,0.0
1578827950962,5530022.0,4922345.0,0.0
1578827951004,5502138.0,4875014.0,0.0
1578827951055,5484105.0,4853892.0,0.0
1578827951098,5504073.0,4914781.0,0.0
1578827951150,5488875.0,4890493.0,0.0
1578827951195,5470061.0,4851031.0,0.0
1578827951252,5457883.0,4810030.0,0.0
1578827951296,5448825.0,4774515.0,0.0
1578827951349,5456243.0,4771588.0,0.0
1578827951400,5455463.0,4741634.0,0.0
1578827951440,5460575.0,4723216.0,0.0
1578827951494,5484682.0,4792957.0,0.0
1578827951542,5479706.0,4813186.0,0.0
1578827951591,5471349.0,4832601.0,0.0
1578827951636,5461806.0,4827818.0,0.0
1578827951689,5456820.0,4815063.0,0.0
1578827951738,5451371.0,4810325.0,0.0
1578827951789,5446576.0,4804819.0,0.0
1578827951838,5443466.0,4789926.0,0.0
1578827951888,5427525.0,4808968.0,0.0
1578827951936,5428721.0,4841498.0,0.0
1578827951976,5391668.0,4792901.0,0.0
1578827952036,5371960.0,4741262.0,0.0
1578827952077,5363785.0,4713514.0,0.0
1578827952132,5372934.0,4702941.0,0.0
1578827952179,5392178.0,4719778.0,0.0
1578827952229,5410608.0,4744586.0,0.0
1578827952280,5422277.0,4764487.0,0.0
1578827952324,5458685.0,4854501.0,0.0
1578827952369,5466455.0,4900612.0,0.0
1578827952416,5467359.0,4906695.0,0.0
1578827952465,5459421.0,4904829.0,0.0
1578827952519,5453846.0,4898283.0,0.0
1578827952564,5453383.0,4897198.0,0.0
1578827952617,5459319.0,4896237.0,0.0
1578827952670,5467347.0,4903710.0,0.0
1578827952718,5473125.0,4950918.0,0.0
1578827952765,5477930.0,4977523.0,0.0
1578827952816,5454933.0,4933538.0,0.0
1578827952857,5432803.0,4858075.0,0.0
1578827952905,5420932.0,4805193.0,0.0
1578827952956,5421259.0,4782431.0,0.0
1578827953006,5426653.0,4779682.0,0.0
1578827953055,5444112.0,4784828.0,0.0
1578827953105,5452094.0,4797492.0,0.0
1578827953153,5467765.0,4831504.0,0.0
1578827953201,5497752.0,4896270.0,0.0
1578827953257,5478123.0,4900918.0,0.0
1578827953298,5458324.0,4856153.0,0.0
1578827953356,5451178.0,4844348.0,0.0
1578827953402,5443884.0,4836715.0,0.0
1578827953456,5441737.0,4820987.0,0.0
1578827953500,5447401.0,4836093.0,0.0
1578827953550,5454955.0,4883155.0,0.0
1578827953600,5449006.0,4863943.0,0.0
1578827953642,5425885.0,4796791.0,0.0
1578827953691,5403936.0,4726109.0,0.0
1578827953740,5396191.0,4681197.0,0.0
1578827953796,5404208.0,4666081.0,0.0
1578827953838,5417675.0,4666012.0,0.0
1578827953908,5422006.0,4693036.0,0.0
1578827953944,5412067.0,4720625.0,0.0
1578827953994,5434760.0,4754683.0,0.0
1578827954040,5448939.0,4774379.0,0.0
1578827954088,5451845.0,4780259.0,0.0
1578827954139,5460484.0,4791306.0,0.0
1578827954179,5457137.0,4800227.0,0.0
1578827954237,5457794.0,4793772.0,0.0
1578827954281,5465583.0,4829693.0,0.0
1578827954329,5477784.0,4892054.0,0.0
1578827954386,5488073.0,4883019.0,0.0
1578827954436,5473917.0,4818704.0,0.0
1578827954481,5461219.0,4781616.0,0.0
1578827954531,5462926.0,4758889.0,0.0
1578827954579,5454876.0,4719043.0,0.0
1578827954622,5447334.0,4689621.0,0.0
1578827954678,5461321.0,4695840.0,0.0
1578827954717,5464001.0,4706480.0,0.0
1578827954776,5498250.0,4791883.0,0.0
1578827954822,5516239.0,4849414.0,0.0
1578827954871,5520264.0,4856017.0,0.0
1578827954921,5508189.0,4842053.0,0.0
1578827954973,5517551.0,4835177.0,0.0
1578827955019,5507907.0,4811422.0,0.0
1578827955060,5504491.0,4799075.0,0.0
1578827955111,5514170.0,4844800.0,0.0
1578827955159,5537168.0,4948124.0,0.0
1578827955216,5532928.0,4911715.0,0.0
1578827955263,5521214.0,4864824.0,0.0
1578827955313,5516669.0,4825658.0,0.0
1578827955363,5519134.0,4810902.0,0.0
1578827955402,5526562.0,4807283.0,0.0
1578827955457,5525239.0,4792086.0,0.0
1578827955500,5554151.0,4859546.0,0.0
1578827955548,5573849.0,4921892.0,0.0
1578827955598,5590651.0,4972265.0,0.0
1578827955647,5583878.0,4958370.0,0.0
1578827955699,5573883.0,4945830.0,0.0
1578827955745,5572752.0,4932228.0,0.0
1578827955792,5569076.0,4927059.0,0.0
1578827955843,5579276.0,4934048.0,0.0
1578827955905,5559714.0,4904661.0,0.0
1578827955940,5561071.0,4929196.0,0.0
1578827955997,5570173.0,4965481.0,0.0
1578827956042,5545648.0,4895388.0,0.0
1578827956097,5531877.0,4843568.0,0.0
1578827956137,5546599.0,4836376.0,0.0
1578827956185,5552128.0,4825634.0,0.0
1578827956236,5577467.0,4839125.0,0.0
1578827956286,5592336.0,4875138.0,0.0
1578827956334,5595513.0,4894551.0,0.0
1578827956385,5577027.0,4852693.0,0.0
1578827956437,5567483.0,4835393.0,0.0
1578827956485,5559533.0,4862994.0,0.0
1578827956535,5556108.0,4863118.0,0.0
1578827956585,5559013.0,4862654.0,0.0
1578827956633,5558109.0,4860460.0,0.0
1578827956682,5555565.0,4850001.0,0.0
1578827956730,5541747.0,4831164.0,0.0
1578827956778,5554490.0,4875861.0,0.0
1578827956821,5548261.0,4891014.0,0.0
1578827956876,5514916.0,4812237.0,0.0
1578827956934,5514747.0,4796643.0,0.0
1578827956977,5515776.0,4774312.0,0.0
1578827957024,5539238.0,4788289.0,0.0
1578827957072,5558901.0,4832871.0,0.0
1578827957115,5575421.0,4860507.0,0.0
1578827957163,5576358.0,4818783.0,0.0
1578827957220,5556345.0,4767947.0,0.0
1578827957262,5545977.0,4768410.0,0.0
1578827957318,5528915.0,4757408.0,0.0
1578827957365,5520729.0,4741918.0,0.0
1578827957407,5523431.0,4739474.0,0.0
1578827957459,5524199.0,4736851.0,0.0
1578827957506,5524821.0,4732997.0,0.0
1578827957556,5535506.0,4766260.0,0.0
1578827957605,5546701.0,4800816.0,0.0
1578827957659,5508979.0,4736172.0,0.0
1578827957702,5478745.0,4672174.0,0.0
1578827957759,5466341.0,4641227.0,0.0
1578827957804,5456379.0,4607181.0,0.0
1578827957856,5470502.0,4607646.0,0.0
1578827957906,5479671.0,4604164.0,0.0
1578827957947,5490889.0,4603847.0,0.0
1578827957996,5493467.0,4633266.0,0.0
1578827958046,5523770.0,4704615.0,0.0
1578827958093,5491025.0,4676878.0,0.0
1578827958141,5469316.0,4659907.0,0.0
1578827958192,5471609.0,4659817.0,0.0
1578827958243,5466386.0,4659250.0,0.0
1578827958290,5459783.0,4658029.0,0.0
1578827958338,5474267.0,4680407.0,0.0
1578827958388,5471248.0,4726879.0,0.0
1578827958435,5494235.0,4784601.0,0.0
1578827958487,5486931.0,4745693.0,0.0
1578827958533,5470592.0,4685777.0,0.0
1578827958584,5464622.0,4649799.0,0.0
1578827958631,5475974.0,4651629.0,0.0
1578827958681,5480023.0,4643862.0,0.0
1578827958729,5495141.0,4666205.0,0.0
1578827958777,5515369.0,4727897.0,0.0
1578827958827,5546678.0,4858268.0,0.0
1578827958872,5549990.0,4899177.0,0.0
1578827958922,5539486.0,4890888.0,0.0
1578827958975,5518941.0,4855293.0,0.0
1578827959027,5513356.0,4824945.0,0.0
1578827959069,5501856.0,4802862.0,0.0
1578827959120,5491783.0,4780281.0,0.0
1578827959174,5496102.0,4802964.0,0.0
1578827959225,5510993.0,4895851.0,0.0
1578827959265,5504593.0,4905441.0,0.0
1578827959322,5493455.0,4849391.0,0.0
1578827959364,5473531.0,4762587.0,0.0
1578827959419,5449786.0,4686478.0,0.0
1578827959468,5429558.0,4626358.0,0.0
1578827959513,5442663.0,4634953.0,0.0
1578827959567,5467619.0,4683144.0,0.0
1578827959610,5490413.0,4768601.0,0.0
1578827959665,5502671.0,4822141.0,0.0
1578827959711,5492506.0,4822005.0,0.0
1578827959762,5472808.0,4790345.0,0.0
1578827959805,5456300.0,4741737.0,0.0
1578827959861,5425048.0,4670921.0,0.0
1578827959912,5392312.0,4613841.0,0.0
1578827959963,5374707.0,4597514.0,0.0
1578827960008,5384196.0,4652647.0,0.0
1578827960055,5393342.0,4703632.0,0.0
1578827960103,5377523.0,4665583.0,0.0
1578827960152,5365912.0,4612315.0,0.0
1578827960202,5358878.0,4566068.0,0.0
1578827960244,5340324.0,4508584.0,0.0
1578827960301,5314474.0,4452467.0,0.0
1578827960348,5329456.0,4453892.0,0.0
1578827960400,5336037.0,4482838.0,0.0
1578827960447,5373736.0,4577308.0,0.0
1578827960494,5376032.0,4643896.0,0.0
1578827960545,5379842.0,4655758.0,0.0
1578827960587,5374957.0,4647763.0,0.0
1578827960642,5380961.0,4646247.0,0.0
1578827960693,5347774.0,4591012.0,0.0
1578827960740,5300760.0,4518670.0,0.0
1578827960790,5259172.0,4447717.0,0.0
1578827960838,5270716.0,4504072.0,0.0
1578827960887,5271338.0,4515187.0,0.0
1578827960928,5252366.0,4487247.0,0.0
1578827960984,5241691.0,4450001.0,0.0
1578827961029,5242833.0,4419449.0,0.0
1578827961084,5251449.0,4411026.0,0.0
1578827961131,5235551.0,4379942.0,0.0
1578827961180,5226597.0,4342290.0,0.0
1578827961229,5228450.0,4362565.0,0.0
1578827961278,5244653.0,4413931.0,0.0
1578827961328,5247028.0,4457329.0,0.0
1578827961369,5242788.0,4486286.0,0.0
1578827961429,5241500.0,4492629.0,0.0
1578827961469,5248170.0,4496926.0,0.0
1578827961517,5236093.0,4479162.0,0.0
1578827961568,5219427.0,4470456.0,0.0
1578827961612,5208980.0,4490107.0,0.0
1578827961662,5216725.0,4526969.0,0.0
1578827961709,5215425.0,4544631.0,0.0
1578827961762,5234862.0,4572040.0,0.0
1578827961810,5249245.0,4607101.0,0.0
1578827961860,5273317.0,4648882.0,0.0
1578827961910,5286016.0,4664781.0,0.0
1578827961963,5307962.0,4705871.0,0.0
1578827962028,5302003.0,4732476.0,0.0
1578827962059,5271927.0,4719563.0,0.0
1578827962105,5249978.0,4729908.0,0.0
1578827962156,5230260.0,4693477.0,0.0
1578827962208,5217064.0,4665786.0,0.0
1578827962250,5207296.0,4633561.0,0.0
1578827962306,5197423.0,4599923.0,0.0
1578827962347,5195910.0,4595502.0,0.0
1578827962403,5180779.0,4611332.0,0.0
1578827962449,5196925.0,4629593.0,0.0
1578827962493,5160529.0,4579604.0,0.0
1578827962551,5132353.0,4512948.0,0.0
1578827962591,5124244.0,4464237.0,0.0
1578827962640,5154332.0,4461082.0,0.0
1578827962690,5166295.0,4511829.0,0.0
1578827962746,5162394.0,4490786.0,0.0
1578827962792,5160913.0,4487428.0,0.0
1578827962843,5205983.0,4594405.0,0.0
1578827962893,5213458.0,4657962.0,0.0
1578827962935,5210426.0,4692380.0,0.0
1578827962981,5206706.0,4684353.0,0.0
1578827963029,5207375.0,4675104.0,0.0
1578827963079,5213039.0,4679491.0,0.0
1578827963131,5210189.0,4674663.0,0.0
1578827963177,5221497.0,4727161.0,0.0
1578827963231,5196655.0,4753881.0,0.0
1578827963275,5229039.0,4789735.0,0.0
1578827963332,5154084.0,4619688.0,0.0
1578827963373,5129853.0,4525939.0,0.0
1578827963425,5116873.0,4474053.0,0.0
1578827963475,5110416.0,4437248.0,0.0
1578827963520,5124471.0,4431345.0,0.0
1578827963570,5168908.0,4517404.0,0.0
1578827963619,5223803.0,4699278.0,0.0
1578827963672,5273929.0,4876143.0,0.0
1578827963722,5288775.0,4930655.0,0.0
1578827963768,5291499.0,4951663.0,0.0
1578827963813,5271452.0,4925793.0,0.0
1578827963871,5258347.0,4864463.0,0.0
1578827963910,5255509.0,4827771.0,0.0
1578827963965,5255712.0,4818466.0,0.0
1578827964009,5266001.0,4855801.0,0.0
1578827964061,5282724.0,4939554.0,0.0
1578827964110,5285010.0,4969258.0,0.0
1578827964161,5285654.0,4906672.0,0.0
1578827964209,5287633.0,4852681.0,0.0
1578827964252,5288254.0,4800918.0,0.0
1578827964302,5301337.0,4797807.0,0.0
1578827964353,5316579.0,4819325.0,0.0
1578827964402,5329909.0,4818637.0,0.0
1578827964451,5336129.0,4834263.0,0.0
1578827964497,5355373.0,4894801.0,0.0
1578827964552,5360258.0,4936862.0,0.0
1578827964603,5356074.0,4936941.0,0.0
1578827964649,5345999.0,4900691.0,0.0
1578827964694,5315539.0,4836116.0,0.0
1578827964751,5310132.0,4802954.0,0.0
1578827964792,5304943.0,4798860.0,0.0
1578827964849,5311309.0,4817470.0,0.0
1578827964890,5302670.0,4833347.0,0.0
1578827964947,5297934.0,4822481.0,0.0
1578827964993,5266013.0,4735144.0,0.0
1578827965040,5247051.0,4659974.0,0.0
1578827965089,5212440.0,4577489.0,0.0
1578827965133,5189124.0,4537858.0,0.0
1578827965191,5195942.0,4537281.0,0.0
1578827965235,5218885.0,4615572.0,0.0
1578827965279,5228586.0,4651641.0,0.0
1578827965335,5285077.0,4674663.0,0.0
1578827965386,5296418.0,4673385.0,0.0
1578827965434,5286647.0,4665278.0,0.0
1578827965476,5263187.0,4650284.0,0.0
1578827965530,5291274.0,4711127.0,0.0
1578827965579,5267506.0,4676595.0,0.0
1578827965630,5269892.0,4691555.0,0.0
1578827965670,5255690.0,4683550.0,0.0
1578827965728,5264237.0,4714181.0,0.0
1578827965776,5228405.0,4661715.0,0.0
1578827965825,5227739.0,4616803.0,0.0
1578827965876,5223736.0,4600409.0,0.0
1578827965920,5221711.0,4572944.0,0.0
1578827965981,5200906.0,4516894.0,0.0
1578827966013,5164294.0,4451494.0,0.0
1578827966070,5132883.0,4404106.0,0.0
1578827966113,5109071.0,4388581.0,0.0
1578827966168,5094450.0,4385710.0,0.0
1578827966210,5077140.0,4391249.0,0.0
1578827966265,5062938.0,4391974.0,0.0
1578827966314,5059285.0,4389294.0,0.0
1578827966364,5043332.0,4366396.0,0.0
1578827966409,5015820.0,4326651.0,0.0
1578827966457,4980033.0,4291974.0,0.0
1578827966512,4968364.0,4290864.0,0.0
1578827966553,4958019.0,4287620.0,0.0
1578827966605,4905406.0,4218059.0,0.0
1578827966656,4885518.0,4175555.0,0.0
1578827966702,4873159.0,4140198.0,0.0
1578827966754,4891940.0,4153474.0,0.0
1578827966802,4880893.0,4136139.0,0.0
1578827966849,4799922.0,4032260.0,0.0
1578827966897,4766317.0,3980044.0,0.0
1578827966953,4711716.0,3911511.0,0.0
1578827966991,4698396.0,3907508.0,0.0
1578827967048,4682418.0,3903597.0,0.0
1578827967097,4674425.0,3908549.0,0.0
1578827967146,4682703.0,3924028.0,0.0
1578827967194,4701472.0,3958696.0,0.0
1578827967240,4733121.0,4020874.0,0.0
1578827967290,4729480.0,4007159.0,0.0
1578827967331,4756368.0,4093714.0,0.0
1578827967382,4723226.0,4051336.0,0.0
1578827967431,4687892.0,3970681.0,0.0
1578827967478,4712766.0,4007566.0,0.0
1578827967540,4740605.0,4003677.0,0.0
1578827967585,4768286.0,4011625.0,0.0
1578827967635,4795625.0,4039858.0,0.0
1578827967676,4829886.0,4088163.0,0.0
1578827967729,4834533.0,4073882.0,0.0
1578827967776,4830644.0,4030870.0,0.0
1578827967826,4826268.0,4041906.0,0.0
1578827967877,4784274.0,4017956.0,0.0
1578827967927,4769099.0,4011704.0,0.0
1578827967976,4776923.0,4069733.0,0.0
1578827968025,4770547.0,4040638.0,0.0
1578827968073,4769688.0,4031898.0,0.0
1578827968116,4771474.0,4035586.0,0.0
1578827968169,4754661.0,3999538.0,0.0
1578827968213,4702976.0,3917403.0,0.0
1578827968270,4671384.0,3867414.0,0.0
1578827968318,4672786.0,3861512.0,0.0
1578827968367,4693207.0,3875622.0,0.0
1578827968416,4710223.0,3880395.0,0.0
1578827968464,4717437.0,3885641.0,0.0
1578827968513,4721326.0,3883448.0,0.0
1578827968561,4726471.0,3895308.0,0.0
1578827968607,4723984.0,3898181.0,0.0
1578827968657,4706921.0,3916328.0,0.0
1578827968708,4700318.0,3933188.0,0.0
1578827968760,4687327.0,3930609.0,0.0
1578827968807,4702082.0,3953834.0,0.0
1578827968852,4711196.0,3971382.0,0.0
1578827968905,4726121.0,3993849.0,0.0
1578827968946,4752715.0,4045309.0,0.0
1578827969000,4775692.0,4117629.0,0.0
1578827969045,4793037.0,4178281.0,0.0
1578827969093,4773554.0,4092743.0,0.0
1578827969145,4752920.0,4014701.0,0.0
1578827969196,4758877.0,3998848.0,0.0
1578827969242,4780747.0,4029366.0,0.0
1578827969294,4803088.0,4077691.0,0.0
1578827969346,4835256.0,4176889.0,0.0
1578827969396,4871417.0,4346565.0,0.0
1578827969436,4922650.0,4471088.0,0.0
1578827969490,4936376.0,4499267.0,0.0
1578827969540,4939034.0,4464193.0,0.0
1578827969590,4935415.0,4474392.0,0.0
1578827969636,4943026.0,4472582.0,0.0
1578827969678,4945219.0,4450080.0,0.0
1578827969727,4962507.0,4495410.0,0.0
1578827969775,4988174.0,4625229.0,0.0
1578827969826,5006583.0,4733437.0,0.0
1578827969874,5023906.0,4703642.0,0.0
1578827969934,5013321.0,4616748.0,0.0
1578827969980,5009375.0,4544270.0,0.0
1578827970025,5016521.0,4523396.0,0.0
1578827970076,5018331.0,4490345.0,0.0
1578827970120,5035190.0,4487938.0,0.0
1578827970170,5040335.0,4508730.0,0.0
1578827970218,5068907.0,4562655.0,0.0
1578827970268,5074131.0,4590492.0,0.0
1578827970316,5069687.0,4602693.0,0.0
1578827970367,5068218.0,4585665.0,0.0
1578827970415,5069913.0,4573521.0,0.0
1578827970468,5073385.0,4561444.0,0.0
1578827970511,5075240.0,4550511.0,0.0
1578827970559,5085405.0,4562836.0,0.0
1578827970609,5093816.0,4580644.0,0.0
1578827970658,5103800.0,4566905.0,0.0
1578827970707,5105893.0,4545592.0,0.0
1578827970755,5097492.0,4509669.0,0.0
1578827970805,5097165.0,4489860.0,0.0
1578827970855,5102262.0,4466895.0,0.0
1578827970902,5102715.0,4448091.0,0.0
1578827970951,5113390.0,4445998.0,0.0
1578827971000,5119620.0,4456344.0,0.0
1578827971050,5129321.0,4563909.0,0.0
1578827971098,5156853.0,4645603.0,0.0
1578827971148,5181413.0,4727783.0,0.0
1578827971198,5184489.0,4775261.0,0.0
1578827971247,5196383.0,4817857.0,0.0
1578827971296,5198102.0,4827873.0,0.0
1578827971343,5186468.0,4816566.0,0.0
1578827971392,5187315.0,4817099.0,0.0
1578827971441,5190267.0,4827308.0,0.0
1578827971490,5203531.0,4890164.0,0.0
1578827971539,5205497.0,4864044.0,0.0
1578827971589,5190775.0,4765131.0,0.0
1578827971638,5190448.0,4720603.0,0.0
1578827971687,5190290.0,4689915.0,0.0
1578827971739,5191476.0,4657217.0,0.0
1578827971784,5203462.0,4650646.0,0.0
1578827971832,5226471.0,4671892.0,0.0
1578827971881,5248386.0,4746938.0,0.0
1578827971929,5271801.0,4833787.0,0.0
1578827971979,5272108.0,4873882.0,0.0
1578827972029,5274573.0,4870152.0,0.0
1578827972081,5286840.0,4890628.0,0.0
1578827972127,5286298.0,4878214.0,0.0
1578827972179,5275804.0,4846667.0,0.0
1578827972230,5275318.0,4835697.0,0.0
1578827972280,5272819.0,4871915.0,0.0
1578827972325,5282330.0,4896180.0,0.0
1578827972377,5270580.0,4829626.0,0.0
1578827972417,5262021.0,4766850.0,0.0
1578827972479,5266962.0,4739667.0,0.0
1578827972521,5271293.0,4714305.0,0.0
1578827972570,5273114.0,4681628.0,0.0
1578827972614,5287192.0,4672345.0,0.0
1578827972662,5300941.0,4726901.0,0.0
1578827972711,5328077.0,4832002.0,0.0
1578827972762,5328349.0,4851031.0,0.0
1578827972817,5325669.0,4854095.0,0.0
1578827972858,5325736.0,4850419.0,0.0
1578827972916,5329751.0,4841782.0,0.0
1578827972962,5325342.0,4812824.0,0.0
1578827973009,5319992.0,4805508.0,0.0
1578827973060,5322142.0,4840403.0,0.0
1578827973104,5325285.0,4824200.0,0.0
1578827973158,5295514.0,4729016.0,0.0
1578827973202,5276923.0,4659114.0,0.0
1578827973256,5271100.0,4620580.0,0.0
1578827973298,5267132.0,4592753.0,0.0
1578827973356,5275578.0,4589994.0,0.0
1578827973401,5286907.0,4579807.0,0.0
1578827973450,5307351.0,4627636.0,0.0
1578827973497,5319428.0,4676291.0,0.0
1578827973551,5316295.0,4674413.0,0.0
1578827973598,5315990.0,4679354.0,0.0
1578827973641,5314261.0,4691736.0,0.0
1578827973697,5308990.0,4686388.0,0.0
1578827973737,5313525.0,4700816.0,0.0
1578827973795,5327376.0,4735099.0,0.0
1578827973841,5341047.0,4774708.0,0.0
1578827973893,5323713.0,4728021.0,0.0
1578827973944,5287417.0,4631820.0,0.0
1578827973983,5264465.0,4564248.0,0.0
1578827974038,5255814.0,4526145.0,0.0
1578827974078,5263479.0,4520919.0,0.0
1578827974136,5284173.0,4544755.0,0.0
1578827974181,5310021.0,4602083.0,0.0
1578827974225,5359104.0,4707701.0,0.0
1578827974274,5384149.0,4821134.0,0.0
1578827974324,5357555.0,4789983.0,0.0
1578827974371,5335856.0,4770785.0,0.0
1578827974423,5329152.0,4750240.0,0.0
1578827974471,5326722.0,4734047.0,0.0
1578827974521,5326890.0,4744903.0,0.0
1578827974571,5340854.0,4785009.0,0.0
1578827974622,5345920.0,4838152.0,0.0
1578827974665,5360505.0,4860111.0,0.0
1578827974714,5328507.0,4780021.0,0.0
1578827974768,5301258.0,4683956.0,0.0
1578827974814,5284725.0,4620558.0,0.0
1578827974864,5284522.0,4600567.0,0.0
1578827974909,5287700.0,4587834.0,0.0
1578827974964,5298318.0,4600025.0,0.0
1578827975017,5317528.0,4625137.0,0.0
1578827975063,5340560.0,4710302.0,0.0
1578827975108,5339985.0,4745524.0,0.0
1578827975162,5327794.0,4742223.0,0.0
1578827975209,5308042.0,4708969.0,0.0
1578827975260,5292188.0,4670185.0,0.0
1578827975301,5277545.0,4651708.0,0.0
1578827975358,5263130.0,4626529.0,0.0
1578827975402,5268274.0,4649935.0,0.0
1578827975453,5283291.0,4705769.0,0.0
1578827975505,5276901.0,4691612.0,0.0
1578827975551,5253733.0,4610336.0,0.0
1578827975603,5235303.0,4541657.0,0.0
1578827975651,5221802.0,4495591.0,0.0
1578827975700,5216487.0,4482318.0,0.0
1578827975743,5234409.0,4494461.0,0.0
1578827975799,5261785.0,4545365.0,0.0
1578827975845,5278496.0,4661207.0,0.0
1578827975897,5298905.0,4750047.0,0.0
1578827975946,5295467.0,4736377.0,0.0
1578827975987,5282092.0,4716092.0,0.0
1578827976035,5277389.0,4685517.0,0.0
1578827976084,5281005.0,4686919.0,0.0
1578827976131,5269857.0,4649278.0,0.0
1578827976181,5271801.0,4662406.0,0.0
1578827976229,5275952.0,4673702.0,0.0
1578827976282,5289327.0,4702116.0,0.0
1578827976327,5267596.0,4632114.0,0.0
1578827976379,5259375.0,4584194.0,0.0
1578827976427,5254582.0,4552003.0,0.0
1578827976477,5243036.0,4503168.0,0.0
1578827976525,5226563.0,4462429.0,0.0
1578827976579,5219088.0,4443105.0,0.0
1578827976622,5222617.0,4423125.0,0.0
1578827976677,5243217.0,4450533.0,0.0
1578827976726,5242280.0,4500748.0,0.0
1578827976775,5227083.0,4487881.0,0.0
1578827976824,5220061.0,4490571.0,0.0
1578827976872,5221632.0,4504525.0,0.0
1578827976922,5213220.0,4485778.0,0.0
1578827976969,5190979.0,4453981.0,0.0
1578827977019,5180928.0,4479774.0,0.0
1578827977062,5210166.0,4609353.0,0.0
1578827977111,5192561.0,4555824.0,0.0
1578827977165,5134998.0,4411432.0,0.0
1578827977215,5131233.0,4376041.0,0.0
1578827977265,5145185.0,4391318.0,0.0
1578827977311,5160935.0,4398870.0,0.0
1578827977361,5158436.0,4389441.0,0.0
1578827977406,5156278.0,4357136.0,0.0
1578827977459,5141272.0,4317730.0,0.0
1578827977506,5118285.0,4296259.0,0.0
1578827977558,5097289.0,4300115.0,0.0
1578827977606,5083144.0,4304467.0,0.0
1578827977655,5074562.0,4302195.0,0.0
1578827977705,5072583.0,4323317.0,0.0
1578827977745,5078834.0,4332893.0,0.0
1578827977801,5075602.0,4339756.0,0.0
1578827977843,5065776.0,4377094.0,0.0
1578827977890,5069190.0,4391486.0,0.0
1578827977942,5028144.0,4307317.0,0.0
1578827977988,5016126.0,4271959.0,0.0
1578827978046,5025001.0,4254423.0,0.0
1578827978094,5023894.0,4233222.0,0.0
1578827978144,5057928.0,4273113.0,0.0
1578827978184,5076880.0,4314701.0,0.0
1578827978235,5080734.0,4317628.0,0.0
1578827978283,5084885.0,4344823.0,0.0
1578827978339,5083268.0,4349413.0,0.0
1578827978386,5075443.0,4353926.0,0.0
1578827978435,5068444.0,4367471.0,0.0
1578827978488,5072662.0,4402308.0,0.0
1578827978529,5074482.0,4402614.0,0.0
1578827978583,5080181.0,4411003.0,0.0
1578827978625,5091657.0,4456730.0,0.0
1578827978680,5096576.0,4473532.0,0.0
1578827978725,5084105.0,4430971.0,0.0
1578827978777,5072288.0,4341656.0,0.0
1578827978828,5070071.0,4307746.0,0.0
1578827978871,5079875.0,4297831.0,0.0
1578827978919,5086976.0,4301234.0,0.0
1578827978970,5083924.0,4300590.0,0.0
1578827979017,5056436.0,4282871.0,0.0
1578827979067,5068828.0,4268546.0,0.0
1578827979114,5045185.0,4271904.0,0.0
1578827979163,5049053.0,4309747.0,0.0
1578827979212,5010992.0,4255689.0,0.0
1578827979261,4983572.0,4223565.0,0.0
1578827979310,4961127.0,4189724.0,0.0
1578827979359,4961387.0,4186524.0,0.0
1578827979408,4943884.0,4165278.0,0.0
1578827979457,4977964.0,4219585.0,0.0
1578827979505,4985699.0,4213445.0,0.0
1578827979554,4964498.0,4156164.0,0.0
1578827979606,4936750.0,4103450.0,0.0
1578827979652,4943341.0,4096225.0,0.0
1578827979702,4951958.0,4099673.0,0.0
1578827979749,4962824.0,4115447.0,0.0
1578827979799,4974561.0,4135098.0,0.0
1578827979850,4988592.0,4153630.0,0.0
1578827979898,5011931.0,4221779.0,0.0
1578827979945,5026009.0,4283154.0,0.0
1578827979996,5022594.0,4295805.0,0.0
1578827980044,5013504.0,4284692.0,0.0
1578827980099,5008798.0,4289700.0,0.0
1578827980149,5000194.0,4277286.0,0.0
1578827980195,4996733.0,4269834.0,0.0
1578827980246,5006559.0,4286896.0,0.0
1578827980295,5016962.0,4338604.0,0.0
1578827980343,5027772.0,4368759.0,0.0
1578827980390,4993635.0,4261965.0,0.0
1578827980440,4960495.0,4167074.0,0.0
1578827980491,4944835.0,4127737.0,0.0
1578827980533,4944144.0,4117719.0,0.0
1578827980588,4953020.0,4127624.0,0.0
1578827980629,4979965.0,4176889.0,0.0
1578827980682,5007498.0,4325816.0,0.0
1578827980727,5053868.0,4485528.0,0.0
1578827980784,5073001.0,4542098.0,0.0
1578827980829,5078574.0,4559116.0,0.0
1578827980882,5072379.0,4544337.0,0.0
1578827980934,5054569.0,4479457.0,0.0
1578827980987,5038730.0,4440584.0,0.0
1578827981019,5065967.0,4538603.0,0.0
1578827981068,5074413.0,4622029.0,0.0
1578827981118,5087609.0,4696779.0,0.0
1578827981169,5094383.0,4730644.0,0.0
1578827981217,5096305.0,4670943.0,0.0
1578827981267,5083810.0,4577974.0,0.0
1578827981320,5070208.0,4513219.0,0.0
1578827981371,5077115.0,4479467.0,0.0
1578827981413,5091907.0,4504106.0,0.0
1578827981464,5107646.0,4570400.0,0.0
1578827981508,5149584.0,4691431.0,0.0
1578827981560,5175850.0,4818060.0,0.0
1578827981611,5181413.0,4844970.0,0.0
1578827981656,5172819.0,4831876.0,0.0
1578827981704,5169235.0,4796021.0,0.0
1578827981761,5164871.0,4769145.0,0.0
1578827981810,5165775.0,4768467.0,0.0
1578827981851,5176868.0,4795231.0,0.0
1578827981902,5175600.0,4832046.0,0.0
1578827981955,5175318.0,4881208.0,0.0
1578827982001,5162101.0,4871665.0,0.0
1578827982053,5152524.0,4788729.0,0.0
1578827982101,5140764.0,4714475.0,0.0
1578827982152,5137214.0,4664848.0,0.0
1578827982191,5143320.0,4656719.0,0.0
1578827982248,5166815.0,4702874.0,0.0
1578827982291,5179808.0,4700669.0,0.0
1578827982346,5205983.0,4804559.0,0.0
1578827982391,5210258.0,4834115.0,0.0
1578827982441,5203281.0,4821168.0,0.0
1578827982497,5198882.0,4805428.0,0.0
1578827982535,5195060.0,4784251.0,0.0
1578827982589,5188412.0,4778439.0,0.0
1578827982640,5180147.0,4772717.0,0.0
1578827982689,5188683.0,4786320.0,0.0
1578827982729,5197186.0,4836502.0,0.0
1578827982778,5210122.0,4854966.0,0.0
1578827982830,5194711.0,4780078.0,0.0
1578827982885,5189373.0,4732737.0,0.0
1578827982933,5170344.0,4679344.0,0.0
1578827982981,5156165.0,4649618.0,0.0
1578827983032,5147481.0,4619133.0,0.0
1578827983072,5138876.0,4591294.0,0.0
1578827983120,5105769.0,4521394.0,0.0
1578827983169,5122492.0,4530350.0,0.0
1578827983217,5132147.0,4569484.0,0.0
1578827983275,5114396.0,4616317.0,0.0
1578827983323,5087869.0,4579004.0,0.0
1578827983372,5048588.0,4524911.0,0.0
1578827983419,4996711.0,4470716.0,0.0
1578827983474,4975488.0,4452490.0,0.0
1578827983511,4970593.0,4457860.0,0.0
1578827983570,4986648.0,4492641.0,0.0
1578827983610,4956934.0,4443568.0,0.0
1578827983666,4919269.0,4393455.0,0.0
1578827983712,4900477.0,4353202.0,0.0
1578827983764,4862179.0,4275352.0,0.0
1578827983809,4841862.0,4231797.0,0.0
1578827983859,4841193.0,4226222.0,0.0
1578827983911,4857543.0,4253348.0,0.0
1578827983954,4869054.0,4305824.0,0.0
1578827984008,4902432.0,4405215.0,0.0
1578827984052,4902489.0,4433007.0,0.0
1578827984106,4902692.0,4434578.0,0.0
1578827984152,4898159.0,4415571.0,0.0
1578827984204,4863809.0,4363932.0,0.0
1578827984249,4819167.0,4311897.0,0.0
1578827984298,4811637.0,4296338.0,0.0
1578827984352,4805327.0,4354785.0,0.0
1578827984396,4808742.0,4392754.0,0.0
1578827984448,4775962.0,4330394.0,0.0
1578827984489,4757611.0,4276618.0,0.0
1578827984537,4759127.0,4265051.0,0.0
1578827984592,4748633.0,4234398.0,0.0
1578827984640,4729943.0,4188570.0,0.0
1578827984690,4729230.0,4170512.0,0.0
1578827984733,4759251.0,4194596.0,0.0
1578827984791,4769710.0,4230304.0,0.0
1578827984833,4820230.0,4455373.0,0.0
1578827984888,4800680.0,4408200.0,0.0
1578827984930,4805869.0,4412541.0,0.0
1578827984977,4813366.0,4401867.0,0.0
1578827985037,4808720.0,4385980.0,0.0
1578827985080,4788163.0,4360868.0,0.0
1578827985131,4786501.0,4367211.0,0.0
1578827985172,4804933.0,4417255.0,0.0
1578827985230,4817540.0,4484963.0,0.0
1578827985272,4803021.0,4445728.0,0.0
1578827985328,4794778.0,4410550.0,0.0
1578827985375,4788809.0,4372343.0,0.0
1578827985426,4763875.0,4316046.0,0.0
1578827985480,4755598.0,4300092.0,0.0
1578827985521,4779095.0,4317437.0,0.0
1578827985568,4791476.0,4322718.0,0.0
1578827985615,4836975.0,4428755.0,0.0
1578827985671,4840537.0,4436874.0,0.0
1578827985710,4845706.0,4447061.0,0.0
1578827985768,4847311.0,4464158.0,0.0
1578827985816,4848690.0,4460552.0,0.0
1578827985866,4831323.0,4425827.0,0.0
1578827985914,4805768.0,4392086.0,0.0
1578827985961,4809094.0,4397322.0,0.0
1578827986009,4825624.0,4459465.0,0.0
1578827986054,4842585.0,4488230.0,0.0
1578827986104,4820908.0,4443093.0,0.0
1578827986151,4826652.0,4421315.0,0.0
1578827986202,4845265.0,4409725.0,0.0
1578827986252,4858097.0,4403281.0,0.0
1578827986299,4872366.0,4426867.0,0.0
1578827986349,4894654.0,4447492.0,0.0
1578827986400,4919541.0,4492856.0,0.0
1578827986448,4943512.0,4580780.0,0.0
1578827986492,4964565.0,4689531.0,0.0
1578827986543,4965855.0,4720942.0,0.0
1578827986596,4959477.0,4686398.0,0.0
1578827986640,4949142.0,4632080.0,0.0
1578827986698,4941283.0,4593523.0,0.0
1578827986746,4931537.0,4583505.0,0.0
1578827986792,4921835.0,4561603.0,0.0
1578827986839,4934658.0,4644122.0,0.0
1578827986888,4936500.0,4654864.0,0.0
1578827986933,4936433.0,4636739.0,0.0
1578827986991,4940718.0,4621214.0,0.0
1578827987037,4947061.0,4590866.0,0.0
1578827987087,4936005.0,4558187.0,0.0
1578827987136,4929253.0,4537293.0,0.0
1578827987183,4941907.0,4552852.0,0.0
1578827987234,4939916.0,4586546.0,0.0
1578827987279,4984003.0,4646123.0,0.0
1578827987330,4964768.0,4648882.0,0.0
1578827987373,4962925.0,4636852.0,0.0
1578827987429,4965040.0,4622921.0,0.0
1578827987478,4966588.0,4629162.0,0.0
1578827987526,4932272.0,4566635.0,0.0
1578827987573,4937689.0,4575059.0,0.0
1578827987617,4928247.0,4607047.0,0.0
1578827987673,4983856.0,4689633.0,0.0
1578827987719,4970955.0,4656199.0,0.0
1578827987771,4974945.0,4640967.0,0.0
1578827987817,4975081.0,4616419.0,0.0
1578827987869,4992855.0,4599064.0,0.0
1578827987920,4996349.0,4582962.0,0.0
1578827987973,5009003.0,4588897.0,0.0
1578827988014,5023463.0,4594178.0,0.0
1578827988063,5052218.0,4691466.0,0.0
1578827988107,5080385.0,4814407.0,0.0
1578827988153,5085834.0,4848554.0,0.0
1578827988213,5076291.0,4815865.0,0.0
1578827988260,5081561.0,4788445.0,0.0
1578827988309,5081583.0,4773000.0,0.0
1578827988356,5076744.0,4744382.0,0.0
1578827988405,5088843.0,4754773.0,0.0
1578827988453,5106458.0,4811355.0,0.0
1578827988495,5121373.0,4853575.0,0.0
1578827988544,5103835.0,4799595.0,0.0
1578827988593,5108482.0,4784239.0,0.0
1578827988642,5128620.0,4774062.0,0.0
1578827988696,5141623.0,4754015.0,0.0
1578827988748,5154763.0,4749876.0,0.0
1578827988797,5168489.0,4769777.0,0.0
1578827988845,5160856.0,4726109.0,0.0
1578827988893,5197084.0,4792415.0,0.0
1578827988940,5203642.0,4855712.0,0.0
1578827988991,5198384.0,4875851.0,0.0
1578827989037,5196259.0,4858516.0,0.0
1578827989092,5198035.0,4830632.0,0.0
1578827989137,5166986.0,4778721.0,0.0
1578827989187,5157894.0,4744427.0,0.0
1578827989236,5119213.0,4687721.0,0.0
1578827989283,5091860.0,4710936.0,0.0
1578827989333,5107803.0,4724234.0,0.0
1578827989375,5117460.0,4716058.0,0.0
1578827989428,5123045.0,4681514.0,0.0
1578827989477,5151258.0,4689237.0,0.0
1578827989522,5169282.0,4692922.0,0.0
1578827989578,5189260.0,4709195.0,0.0
1578827989621,5222729.0,4757611.0,0.0
1578827989676,5257126.0,4868398.0,0.0
1578827989719,5276099.0,4956956.0,0.0
1578827989774,5270558.0,4953620.0,0.0
1578827989815,5266771.0,4915968.0,0.0
1578827989870,5264475.0,4880180.0,0.0
1578827989918,5260212.0,4859172.0,0.0
1578827989974,5258731.0,4838763.0,0.0
1578827990018,5274142.0,4841758.0,0.0
1578827990058,5272435.0,4856401.0,0.0
1578827990110,5294813.0,4897696.0,0.0
1578827990157,5276529.0,4871202.0,0.0
1578827990212,5287350.0,4852591.0,0.0
1578827990255,5286072.0,4818466.0,0.0
1578827990308,5300443.0,4808651.0,0.0
1578827990357,5310484.0,4803835.0,0.0
1578827990410,5325669.0,4802748.0,0.0
1578827990457,5343681.0,4829614.0,0.0
1578827990507,5358608.0,4885416.0,0.0
1578827990554,5365979.0,4943839.0,0.0
1578827990596,5366454.0,4938615.0,0.0
1578827990648,5364329.0,4925216.0,0.0
1578827990697,5366046.0,4913196.0,0.0
1578827990750,5370197.0,4908720.0,0.0
1578827990797,5372674.0,4906278.0,0.0
1578827990849,5379084.0,4939329.0,0.0
1578827990898,5380679.0,4972231.0,0.0
1578827990943,5386489.0,5000387.0,0.0
1578827990994,5370286.0,4933449.0,0.0
1578827991037,5372153.0,4900827.0,0.0
1578827991095,5375589.0,4874459.0,0.0
1578827991138,5386071.0,4851744.0,0.0
1578827991190,5389159.0,4845897.0,0.0
1578827991240,5409217.0,4856740.0,0.0
1578827991287,5412156.0,4859782.0,0.0
1578827991337,5430950.0,4923205.0,0.0
1578827991380,5453824.0,5008516.0,0.0
1578827991435,5443795.0,5018081.0,0.0
1578827991478,5421588.0,4975941.0,0.0
1578827991533,5423193.0,4970410.0,0.0
1578827991580,5421769.0,4954536.0,0.0
1578827991630,5407963.0,4920275.0,0.0
1578827991679,5413808.0,4916126.0,0.0
1578827991721,5417528.0,4979185.0,0.0
1578827991769,5416364.0,4953144.0,0.0
1578827991818,5409783.0,4918603.0,0.0
1578827991876,5414430.0,4898610.0,0.0
1578827991919,5419111.0,4872232.0,0.0
1578827991978,5424934.0,4855090.0,0.0
1578827992024,5445469.0,4863603.0,0.0
1578827992063,5459195.0,4900376.0,0.0
1578827992113,5473363.0,4964894.0,0.0
1578827992162,5489995.0,5033754.0,0.0
1578827992217,5477004.0,5035664.0,0.0
1578827992259,5470829.0,5020208.0,0.0
1578827992316,5468647.0,5013298.0,0.0
1578827992359,5466170.0,5003292.0,0.0
1578827992412,5466871.0,4993885.0,0.0
1578827992460,5453813.0,4976731.0,0.0
1578827992510,5464328.0,5010586.0,0.0
1578827992557,5472707.0,5035654.0,0.0
1578827992602,5448962.0,4986162.0,0.0
1578827992650,5434477.0,4911512.0,0.0
1578827992698,5444134.0,4892889.0,0.0
1578827992755,5453214.0,4877773.0,0.0
1578827992801,5458765.0,4866171.0,0.0
1578827992851,5455124.0,4834681.0,0.0
1578827992900,5485021.0,4885483.0,0.0
1578827992951,5517663.0,4982351.0,0.0
1578827992995,5537462.0,5059659.0,0.0
1578827993041,5525749.0,5087904.0,0.0
1578827993096,5522356.0,5088231.0,0.0
1578827993140,5517992.0,5085878.0,0.0
1578827993196,5516229.0,5072763.0,0.0
1578827993241,5524675.0,5117425.0,0.0
1578827993291,5533110.0,5160336.0,0.0
1578827993340,5552219.0,5212757.0,0.0
1578827993388,5580871.0,5252603.0,0.0
1578827993438,5566681.0,5248284.0,0.0
1578827993482,5569676.0,5216690.0,0.0
1578827993537,5580598.0,5211083.0,0.0
1578827993580,5616928.0,5235833.0,0.0
1578827993635,5644078.0,5249798.0,0.0
1578827993685,5671417.0,5281119.0,0.0
1578827993724,5682793.0,5268331.0,0.0
1578827993773,5705362.0,5308403.0,0.0
1578827993828,5726518.0,5353406.0,0.0
1578827993879,5711920.0,5366160.0,0.0
1578827993919,5673860.0,5356029.0,0.0
1578827993981,5661525.0,5349957.0,0.0
1578827994024,5658097.0,5344540.0,0.0
1578827994076,5642087.0,5307036.0,0.0
1578827994116,5642607.0,5306561.0,0.0
1578827994165,5639261.0,5309431.0,0.0
1578827994220,5638221.0,5302162.0,0.0
1578827994264,5604943.0,5230270.0,0.0
1578827994318,5599687.0,5183912.0,0.0
1578827994360,5606436.0,5174040.0,0.0
1578827994417,5613096.0,5162372.0,0.0
1578827994465,5615865.0,5147040.0,0.0
1578827994515,5621894.0,5141239.0,0.0
1578827994563,5630610.0,5172457.0,0.0
1578827994607,5617121.0,5146441.0,0.0
1578827994659,5608336.0,5151506.0,0.0
1578827994702,5592789.0,5128078.0,0.0
1578827994758,5584772.0,5120412.0,0.0
1578827994802,5583427.0,5111037.0,0.0
1578827994856,5580023.0,5098747.0,0.0
1578827994902,5581143.0,5103112.0,0.0
1578827994946,5579469.0,5100816.0,0.0
1578827995001,5567709.0,5077546.0,0.0
1578827995050,5547798.0,5034036.0,0.0
1578827995100,5551483.0,5026381.0,0.0
1578827995144,5550262.0,5036501.0,0.0
1578827995199,5551087.0,5014735.0,0.0
1578827995240,5547627.0,4991475.0,0.0
1578827995297,5530723.0,4948644.0,0.0
1578827995343,5523894.0,4907702.0,0.0
1578827995396,5511434.0,4881560.0,0.0
1578827995444,5495897.0,4872391.0,0.0
1578827995484,5482408.0,4896044.0,0.0
1578827995542,5469135.0,4896384.0,0.0
1578827995583,5461048.0,4888955.0,0.0
1578827995639,5451166.0,4880113.0,0.0
1578827995683,5437972.0,4865753.0,0.0
1578827995737,5439916.0,4861807.0,0.0
1578827995783,5439961.0,4876844.0,0.0
1578827995833,5454841.0,4913300.0,0.0
1578827995884,5412961.0,4832182.0,0.0
1578827995930,5383086.0,4766012.0,0.0
1578827995985,5382296.0,4752467.0,0.0
1578827996021,5385858.0,4758255.0,0.0
1578827996079,5391601.0,4761398.0,0.0
1578827996124,5392087.0,4753361.0,0.0
1578827996168,5376721.0,4713311.0,0.0
1578827996226,5386626.0,4714114.0,0.0
1578827996274,5356369.0,4643567.0,0.0
1578827996323,5357669.0,4682498.0,0.0
1578827996369,5345491.0,4689180.0,0.0
1578827996420,5335358.0,4697933.0,0.0
1578827996465,5339385.0,4710619.0,0.0
1578827996519,5323576.0,4682646.0,0.0
1578827996563,5303836.0,4661455.0,0.0
1578827996608,5299143.0,4659646.0,0.0
1578827996660,5277364.0,4589474.0,0.0
1578827996713,5212485.0,4489622.0,0.0
1578827996764,5163164.0,4422367.0,0.0
1578827996806,5137294.0,4387994.0,0.0
1578827996859,5124526.0,4379761.0,0.0
1578827996903,5123961.0,4386568.0,0.0
1578827996960,5117177.0,4374674.0,0.0
1578827997006,5092120.0,4333515.0,0.0
1578827997054,5112508.0,4385980.0,0.0
1578827997106,5090312.0,4389441.0,0.0
1578827997152,5070275.0,4421079.0,0.0
1578827997203,5060211.0,4441656.0,0.0
1578827997247,5070275.0,4467957.0,0.0
1578827997300,5066487.0,4461129.0,0.0
1578827997344,5068806.0,4469959.0,0.0
1578827997398,5075862.0,4492810.0,0.0
1578827997445,5068749.0,4490357.0,0.0
1578827997490,5029061.0,4447368.0,0.0
1578827997538,4976449.0,4371813.0,0.0
1578827997587,4944642.0,4316747.0,0.0
1578827997633,4938502.0,4292370.0,0.0
1578827997684,4949233.0,4290740.0,0.0
1578827997731,4970581.0,4320184.0,0.0
1578827997784,5005779.0,4389916.0,0.0
1578827997829,5029254.0,4402241.0,0.0
1578827997888,5044404.0,4441465.0,0.0
1578827997928,5039374.0,4447683.0,0.0
1578827997977,5005429.0,4427952.0,0.0
1578827998030,4999052.0,4449448.0,0.0
1578827998077,5007963.0,4479219.0,0.0
1578827998126,5008934.0,4491192.0,0.0
1578827998171,5015493.0,4495829.0,0.0
1578827998227,5033843.0,4528981.0,0.0
1578827998269,5047944.0,4571802.0,0.0
1578827998328,5058019.0,4551901.0,0.0
1578827998375,5023973.0,4441612.0,0.0
1578827998425,5002705.0,4387541.0,0.0
1578827998475,5010643.0,4389260.0,0.0
1578827998522,5032758.0,4428021.0,0.0
1578827998571,5052885.0,4452614.0,0.0
1578827998613,5081923.0,4482974.0,0.0
1578827998667,5092471.0,4494494.0,0.0
1578827998716,5115629.0,4545479.0,0.0
1578827998768,5127818.0,4579275.0,0.0
1578827998815,5127094.0,4582328.0,0.0
1578827998865,5124199.0,4588535.0,0.0
1578827998906,5135055.0,4614643.0,0.0
1578827998964,5133968.0,4625826.0,0.0
1578827999007,5139724.0,4635597.0,0.0
1578827999059,5155927.0,4673271.0,0.0
1578827999107,5159105.0,4702693.0,0.0
1578827999158,5149108.0,4679107.0,0.0
1578827999208,5088062.0,4545501.0,0.0
1578827999253,5055475.0,4464158.0,0.0
1578827999305,5035280.0,4413661.0,0.0
1578827999347,5035302.0,4391826.0,0.0
1578827999403,5039453.0,4391125.0,0.0
1578827999447,5074787.0,4422186.0,0.0
1578827999500,5073781.0,4464926.0,0.0
1578827999548,5132680.0,4652038.0,0.0
1578827999594,5151471.0,4681685.0,0.0
1578827999640,5158753.0,4690933.0,0.0
1578827999689,5162520.0,4692979.0,0.0
1578827999745,5174899.0,4701878.0,0.0
1578827999788,5170196.0,4686138.0,0.0
1578827999842,5168353.0,4677524.0,0.0
1578827999887,5182352.0,4721225.0,0.0
1578827999940,5181718.0,4736648.0,0.0
1578827999992,5136241.0,4654616.0,0.0
1578828000035,5092494.0,4537508.0,0.0
1578828000078,5067042.0,4463152.0,0.0
1578828000129,5057521.0,4432262.0,0.0
1578828000184,5057408.0,4414067.0,0.0
1578828000232,5069710.0,4425069.0,0.0
1578828000276,5120727.0,4564419.0,0.0
1578828000327,5171429.0,4700952.0,0.0
1578828000371,5191489.0,4814147.0,0.0
1578828000421,5178315.0,4802545.0,0.0
1578828000472,5143275.0,4731808.0,0.0
1578828000527,5130361.0,4699538.0,0.0
1578828000569,5123691.0,4691781.0,0.0
1578828000618,5104863.0,4634794.0,0.0
1578828000673,5110076.0,4638752.0,0.0
1578828000713,5093048.0,4615740.0,0.0
1578828000772,5091939.0,4649165.0,0.0
1578828000816,5005125.0,4488480.0,0.0
1578828000869,4956255.0,4393465.0,0.0
1578828000911,4928190.0,4332781.0,0.0
1578828000970,4936693.0,4332566.0,0.0
1578828001011,4943522.0,4332125.0,0.0
1578828001065,4969449.0,4366793.0,0.0
1578828001109,4992674.0,4408856.0,0.0
1578828001159,5008109.0,4442313.0,0.0
1578828001209,4981323.0,4413049.0,0.0
1578828001258,4960981.0,4396021.0,0.0
1578828001311,4947480.0,4380564.0,0.0
1578828001356,4941058.0,4368262.0,0.0
1578828001408,4937134.0,4356989.0,0.0
1578828001451,4948622.0,4376291.0,0.0
1578828001497,4961942.0,4430778.0,0.0
1578828001550,4959985.0,4440108.0,0.0
1578828001597,4865131.0,4261987.0,0.0
1578828001655,4820772.0,4211275.0,0.0
1578828001697,4814147.0,4185573.0,0.0
1578828001752,4835484.0,4222254.0,0.0
1578828001791,4849775.0,4232622.0,0.0
1578828001848,4854412.0,4213920.0,0.0
1578828001890,4873216.0,4222864.0,0.0
1578828001946,4899222.0,4287756.0,0.0
1578828001994,4873746.0,4266656.0,0.0
1578828002043,4833334.0,4247684.0,0.0
1578828002092,4800759.0,4205303.0,0.0
1578828002142,4785076.0,4181560.0,0.0
1578828002189,4765007.0,4154524.0,0.0
1578828002232,4756085.0,4143408.0,0.0
1578828002287,4774855.0,4210279.0,0.0
1578828002331,4744415.0,4139440.0,0.0
1578828002387,4660652.0,4004467.0,0.0
1578828002430,4592516.0,3897445.0,0.0
1578828002488,4563004.0,3836580.0,0.0
1578828002533,4556084.0,3814304.0,0.0
1578828002573,4557249.0,3801742.0,0.0
1578828002623,4567200.0,3794336.0,0.0
1578828002671,4565640.0,3786455.0,0.0
1578828002722,4566249.0,3786534.0,0.0
1578828002773,4532894.0,3764689.0,0.0
1578828002822,4487361.0,3726573.0,0.0
1578828002869,4452794.0,3683267.0,0.0
1578828002919,4429706.0,3665503.0,0.0
1578828002973,4410721.0,3634070.0,0.0
1578828003017,4425725.0,3669245.0,0.0
1578828003065,4431876.0,3626715.0,0.0
1578828003114,4428586.0,3629385.0,0.0
1578828003169,4385280.0,3555959.0,0.0
1578828003210,4337485.0,3477853.0,0.0
1578828003266,4300816.0,3414867.0,0.0
1578828003311,4289383.0,3382107.0,0.0
1578828003365,4287303.0,3369061.0,0.0
1578828003412,4320343.0,3411346.0,0.0
1578828003461,4362778.0,3516239.0,0.0
1578828003508,4417822.0,3669910.0,0.0
1578828003553,4423543.0,3667423.0,0.0
1578828003605,4413344.0,3636224.0,0.0
1578828003658,4364712.0,3544941.0,0.0
1578828003706,4333561.0,3505308.0,0.0
1578828003753,4314418.0,3481043.0,0.0
1578828003797,4304343.0,3466081.0,0.0
1578828003851,4328393.0,3528565.0,0.0
1578828003894,4342540.0,3566675.0,0.0
1578828003947,4295037.0,3477733.0,0.0
1578828003995,4277286.0,3429396.0,0.0
1578828004044,4220840.0,3329184.0,0.0
1578828004093,4195421.0,3275290.0,0.0
1578828004146,4181694.0,3247195.0,0.0
1578828004193,4198158.0,3256939.0,0.0
1578828004245,4216283.0,3263995.0,0.0
1578828004290,4287971.0,3459988.0,0.0
1578828004340,4320885.0,3539974.0,0.0
1578828004389,4325973.0,3554251.0,0.0
1578828004438,4337021.0,3558162.0,0.0
1578828004492,4331694.0,3534669.0,0.0
1578828004532,4286715.0,3459094.0,0.0
1578828004588,4250703.0,3396819.0,0.0
1578828004636,4252263.0,3420814.0,0.0
1578828004677,4289903.0,3461185.0,0.0
1578828004732,4232283.0,3368350.0,0.0
1578828004780,4224006.0,3345351.0,0.0
1578828004828,4221972.0,3330588.0,0.0
1578828004873,4204320.0,3285875.0,0.0
1578828004930,4168421.0,3228401.0,0.0
1578828004976,4164181.0,3214419.0,0.0
1578828005024,4196429.0,3258845.0,0.0
1578828005072,4230462.0,3311388.0,0.0
1578828005118,4209070.0,3307511.0,0.0
1578828005169,4197231.0,3311611.0,0.0
1578828005219,4197434.0,3313312.0,0.0
1578828005268,4190346.0,3300299.0,0.0
1578828005317,4132000.0,3232666.0,0.0
1578828005368,4112847.0,3217877.0,0.0
1578828005414,4121157.0,3304287.0,0.0
1578828005470,4169585.0,3371463.0,0.0
1578828005514,4126561.0,3293659.0,0.0
1578828005557,4126630.0,3280284.0,0.0
1578828005608,4127116.0,3264030.0,0.0
1578828005661,4141045.0,3267090.0,0.0
1578828005708,4082712.0,3185231.0,0.0
1578828005753,4012834.0,3097467.0,0.0
1578828005808,3998813.0,3065020.0,0.0
1578828005856,3991610.0,3053379.0,0.0
1578828005907,4016113.0,3117076.0,0.0
1578828005954,4029253.0,3169176.0,0.0
1578828006004,4024527.0,3182447.0,0.0
1578828006051,4061206.0,3223946.0,0.0
1578828006095,4074808.0,3240364.0,0.0
1578828006151,4047514.0,3220979.0,0.0
1578828006191,4044958.0,3321175.0,0.0
1578828006247,4089305.0,3411632.0,0.0
1578828006296,4096022.0,3435802.0,0.0
1578828006337,4093431.0,3401959.0,0.0
1578828006389,4092290.0,3348742.0,0.0
1578828006438,4104919.0,3319084.0,0.0
1578828006487,4135710.0,3324296.0,0.0
1578828006536,4150905.0,3319206.0,0.0
1578828006589,4168533.0,3368045.0,0.0
1578828006632,4192493.0,3461193.0,0.0
1578828006681,4237484.0,3526052.0,0.0
1578828006739,4241792.0,3541109.0,0.0
1578828006779,4236489.0,3523382.0,0.0
1578828006832,4247277.0,3503774.0,0.0
1578828006882,4265323.0,3508195.0,0.0
1578828006928,4279072.0,3510241.0,0.0
1578828006974,4288231.0,3537253.0,0.0
1578828007030,4269212.0,3576072.0,0.0
1578828007076,4269066.0,3635106.0,0.0
1578828007122,4240186.0,3588051.0,0.0
1578828007177,4211874.0,3514002.0,0.0
1578828007226,4210608.0,3463395.0,0.0
1578828007273,4222785.0,3459433.0,0.0
1578828007322,4241452.0,3472184.0,0.0
1578828007369,4256640.0,3463454.0,0.0
1578828007417,4263174.0,3471309.0,0.0
1578828007483,4306163.0,3589577.0,0.0
1578828007516,4332826.0,3715110.0,0.0
1578828007562,4347085.0,3742252.0,0.0
1578828007610,4337859.0,3730470.0,0.0
1578828007657,4341634.0,3707948.0,0.0
1578828007710,4339972.0,3680642.0,0.0
1578828007758,4345886.0,3671627.0,0.0
1578828007807,4361341.0,3689173.0,0.0
1578828007863,4345423.0,3663018.0,0.0
1578828007912,4360494.0,3706294.0,0.0
1578828007957,4351697.0,3713245.0,0.0
1578828008000,4372910.0,3766664.0,0.0
1578828008051,4394325.0,3757387.0,0.0
1578828008100,4413718.0,3758037.0,0.0
1578828008150,4441600.0,3784712.0,0.0
1578828008198,4466023.0,3804718.0,0.0
1578828008249,4487903.0,3838407.0,0.0
1578828008294,4543760.0,4044913.0,0.0
1578828008351,4604513.0,4235349.0,0.0
1578828008396,4598588.0,4275963.0,0.0
1578828008447,4591341.0,4254256.0,0.0
1578828008492,4589181.0,4228293.0,0.0
1578828008543,4594688.0,4208008.0,0.0
1578828008589,4587225.0,4165652.0,0.0
1578828008635,4589169.0,4141094.0,0.0
1578828008685,4566408.0,4077084.0,0.0
1578828008736,4568431.0,4066135.0,0.0
1578828008791,4511128.0,3956354.0,0.0
1578828008838,4479876.0,3860321.0,0.0
1578828008886,4468805.0,3824822.0,0.0
1578828008931,4470127.0,3802292.0,0.0
1578828008980,4485404.0,3799031.0,0.0
1578828009029,4507249.0,3812971.0,0.0
1578828009078,4522187.0,3813961.0,0.0
1578828009128,4521384.0,3790311.0,0.0
1578828009178,4554955.0,3844622.0,0.0
1578828009230,4559195.0,3856662.0,0.0
1578828009278,4559024.0,3859159.0,0.0
1578828009325,4557769.0,3861412.0,0.0
1578828009376,4550534.0,3858517.0,0.0
1578828009417,4556186.0,3866605.0,0.0
1578828009476,4569925.0,3911830.0,0.0
1578828009516,4593907.0,3955590.0,0.0
1578828009564,4603540.0,3995249.0,0.0
1578828009618,4606232.0,3992407.0,0.0
1578828009670,4614123.0,4010030.0,0.0
1578828009718,4620298.0,3993811.0,0.0
1578828009765,4631832.0,3966772.0,0.0
1578828009815,4644687.0,3967987.0,0.0
1578828009856,4658121.0,3963973.0,0.0
1578828009915,4669687.0,3956335.0,0.0
1578828009958,4709296.0,4012249.0,0.0
1578828010011,4735496.0,4106020.0,0.0
1578828010058,4728858.0,4130673.0,0.0
1578828010106,4722220.0,4124086.0,0.0
1578828010157,4728110.0,4117489.0,0.0
1578828010201,4727964.0,4124883.0,0.0
1578828010256,4735246.0,4130119.0,0.0
1578828010297,4748893.0,4152909.0,0.0
1578828010354,4760246.0,4179600.0,0.0
1578828010397,4752207.0,4142636.0,0.0
1578828010450,4709963.0,4027871.0,0.0
1578828010499,4702988.0,3979160.0,0.0
1578828010550,4696439.0,3942440.0,0.0
1578828010597,4708459.0,3939736.0,0.0
1578828010641,4715560.0,3940368.0,0.0
1578828010689,4713864.0,3918029.0,0.0
1578828010741,4728110.0,3924634.0,0.0
1578828010794,4703372.0,3855674.0,0.0
1578828010840,4689056.0,3879677.0,0.0
1578828010891,4668172.0,3886275.0,0.0
1578828010940,4651912.0,3876280.0,0.0
1578828010987,4651381.0,3866613.0,0.0
1578828011037,4645026.0,3863814.0,0.0
1578828011082,4650240.0,3860173.0,0.0
1578828011136,4649222.0,3870090.0,0.0
1578828011178,4689779.0,3910582.0,0.0
1578828011235,4619812.0,3779882.0,0.0
1578828011279,4572344.0,3710854.0,0.0
1578828011331,4548158.0,3664753.0,0.0
1578828011379,4542449.0,3651774.0,0.0
1578828011428,4549481.0,3655269.0,0.0
1578828011478,4575341.0,3680633.0,0.0
1578828011520,4608132.0,3750357.0,0.0
1578828011569,4647344.0,3892638.0,0.0
1578828011620,4688672.0,4010768.0,0.0
1578828011674,4715696.0,4132762.0,0.0
1578828011722,4717098.0,4165861.0,0.0
1578828011772,4726914.0,4167942.0,0.0
1578828011819,4736298.0,4177338.0,0.0
1578828011867,4737621.0,4177190.0,0.0
1578828011918,4741601.0,4195872.0,0.0
1578828011959,4743025.0,4228372.0,0.0
1578828012017,4746689.0,4201862.0,0.0
1578828012058,4735110.0,4147084.0,0.0
1578828012109,4717742.0,4049483.0,0.0
1578828012162,4720965.0,4017893.0,0.0
1578828012215,4734092.0,4011400.0,0.0
1578828012259,4730463.0,3997659.0,0.0
1578828012308,4768873.0,4104675.0,0.0
1578828012349,4790300.0,4169372.0,0.0
1578828012399,4826991.0,4247155.0,0.0
1578828012447,4834228.0,4240438.0,0.0
1578828012497,4831288.0,4257263.0,0.0
1578828012547,4834241.0,4247269.0,0.0
1578828012602,4828913.0,4219824.0,0.0
1578828012643,4828881.0,4224253.0,0.0
1578828012692,4845773.0,4246619.0,0.0
1578828012743,4850612.0,4269409.0,0.0
1578828012799,4870298.0,4353566.0,0.0
1578828012839,4864780.0,4345018.0,0.0
1578828012896,4859410.0,4303435.0,0.0
1578828012941,4847504.0,4232297.0,0.0
1578828012989,4838796.0,4161796.0,0.0
1578828013041,4850397.0,4157114.0,0.0
1578828013091,4866521.0,4161284.0,0.0
1578828013139,4900782.0,4254437.0,0.0
1578828013180,4927683.0,4333159.0,0.0
1578828013229,4966160.0,4417887.0,0.0
1578828013280,4965367.0,4437705.0,0.0
1578828013329,4963955.0,4423956.0,0.0
1578828013382,4970410.0,4407035.0,0.0
1578828013429,4980679.0,4396086.0,0.0
1578828013477,4985360.0,4388744.0,0.0
1578828013524,4986546.0,4379901.0,0.0
1578828013578,4989395.0,4408248.0,0.0
1578828013627,5003587.0,4445655.0,0.0
1578828013679,4991849.0,4405674.0,0.0
1578828013720,4965808.0,4309310.0,0.0
1578828013778,4932104.0,4186786.0,0.0
1578828013823,4912079.0,4117715.0,0.0
1578828013868,4905632.0,4099423.0,0.0
1578828013923,4947220.0,4182192.0,0.0
1578828013965,4979163.0,4250823.0,0.0
1578828014020,4987824.0,4280271.0,0.0
1578828014062,4985902.0,4287284.0,0.0
1578828014112,4981412.0,4305844.0,0.0
1578828014161,4969528.0,4276282.0,0.0
1578828014216,4954422.0,4266721.0,0.0
1578828014263,4940515.0,4258027.0,0.0
1578828014315,4943433.0,4282473.0,0.0
1578828014362,4949877.0,4314365.0,0.0
1578828014408,4969835.0,4382285.0,0.0
1578828014460,4974346.0,4389420.0,0.0
1578828014508,4967358.0,4356435.0,0.0
1578828014558,4956594.0,4303425.0,0.0
1578828014602,4934714.0,4234240.0,0.0
1578828014656,4921813.0,4180701.0,0.0
1578828014698,4922662.0,4160979.0,0.0
1578828014755,4943693.0,4178846.0,0.0
1578828014803,4962712.0,4232732.0,0.0
1578828014852,4981684.0,4319506.0,0.0
1578828014900,4989803.0,4337737.0,0.0
1578828014942,4986162.0,4360049.0,0.0
1578828014999,4978338.0,4335725.0,0.0
1578828015044,4985890.0,4351676.0,0.0
1578828015095,4981571.0,4340849.0,0.0
1578828015145,4990108.0,4346085.0,0.0
1578828015193,5000307.0,4365633.0,0.0
1578828015239,5009003.0,4410311.0,0.0
1578828015284,5006482.0,4388831.0,0.0
1578828015340,5005102.0,4367305.0,0.0
1578828015383,4994608.0,4329016.0,0.0
1578828015437,4980293.0,4261174.0,0.0
1578828015486,4981932.0,4225190.0,0.0
1578828015535,4986908.0,4220058.0,0.0
1578828015585,5004094.0,4224323.0,0.0
1578828015631,5036162.0,4312832.0,0.0
1578828015682,5045333.0,4386897.0,0.0
1578828015722,5053246.0,4423680.0,0.0
1578828015779,5042946.0,4421650.0,0.0
1578828015823,5030215.0,4382908.0,0.0
1578828015878,5031604.0,4372161.0,0.0
1578828015926,5028429.0,4357093.0,0.0
1578828015979,5028213.0,4335101.0,0.0
1578828016025,5042742.0,4363934.0,0.0
1578828016072,5049029.0,4369629.0,0.0
1578828016115,5026403.0,4315215.0,0.0
1578828016163,5021915.0,4271047.0,0.0
1578828016212,5023723.0,4249636.0,0.0
1578828016264,5016250.0,4213487.0,0.0
1578828016312,5032748.0,4232273.0,0.0
1578828016361,5047560.0,4241816.0,0.0
1578828016410,5049786.0,4256146.0,0.0
1578828016459,5041724.0,4300964.0,0.0
1578828016512,5085811.0,4414732.0,0.0
1578828016562,5092008.0,4434992.0,0.0
1578828016604,5093987.0,4449468.0,0.0
1578828016658,5100657.0,4444665.0,0.0
1578828016702,5096474.0,4451462.0,0.0
1578828016756,5096892.0,4454938.0,0.0
1578828016807,5098260.0,4455224.0,0.0
1578828016856,5098814.0,4498143.0,0.0
1578828016904,5102433.0,4528485.0,0.0
1578828016950,5109014.0,4509214.0,0.0
1578828017003,5105588.0,4464958.0,0.0
1578828017044,5106086.0,4441744.0,0.0
1578828017100,5094721.0,4386690.0,0.0
1578828017146,5090718.0,4346865.0,0.0
1578828017197,5097581.0,4334130.0,0.0
1578828017246,5084546.0,4307161.0,0.0
1578828017296,5120727.0,4387210.0,0.0
1578828017345,5152692.0,4469154.0,0.0
1578828017386,5154570.0,4457955.0,0.0
1578828017442,5156142.0,4480217.0,0.0
1578828017488,5163650.0,4513166.0,0.0
1578828017539,5170582.0,4551456.0,0.0
1578828017586,5161173.0,4537465.0,0.0
1578828017638,5175850.0,4562631.0,0.0
1578828017687,5176901.0,4594488.0,0.0
1578828017729,5178981.0,4595720.0,0.0
1578828017784,5170287.0,4557238.0,0.0
1578828017827,5175873.0,4568854.0,0.0
1578828017882,5177083.0,4563748.0,0.0
1578828017928,5185993.0,4555704.0,0.0
1578828017972,5174211.0,4515992.0,0.0
1578828018030,5166533.0,4475605.0,0.0
1578828018069,5206696.0,4525693.0,0.0
1578828018120,5236128.0,4589027.0,0.0
1578828018170,5248363.0,4640294.0,0.0
1578828018224,5228858.0,4619125.0,0.0
1578828018267,5221136.0,4625133.0,0.0
1578828018315,5214317.0,4605706.0,0.0
1578828018368,5199526.0,4566383.0,0.0
1578828018419,5180984.0,4535852.0,0.0
1578828018469,5175105.0,4522719.0,0.0
1578828018509,5192189.0,4585360.0,0.0
1578828018566,5206741.0,4661550.0,0.0
1578828018607,5197785.0,4651599.0,0.0
1578828018664,5201653.0,4641942.0,0.0
1578828018706,5202919.0,4599326.0,0.0
1578828018762,5218488.0,4581727.0,0.0
1578828018808,5234025.0,4587822.0,0.0
1578828018858,5266793.0,4647905.0,0.0
1578828018909,5281040.0,4682087.0,0.0
1578828018952,5320094.0,4757636.0,0.0
1578828019007,5336116.0,4800042.0,0.0
1578828019047,5331153.0,4818836.0,0.0
1578828019095,5326449.0,4844487.0,0.0
1578828019147,5319564.0,4841947.0,0.0
1578828019194,5309206.0,4820595.0,0.0
1578828019246,5300443.0,4809049.0,0.0
1578828019291,5300398.0,4812040.0,0.0
1578828019348,5299358.0,4818966.0,0.0
1578828019388,5318739.0,4850988.0,0.0
1578828019445,5304559.0,4821160.0,0.0
1578828019490,5291148.0,4748629.0,0.0
1578828019541,5282464.0,4676390.0,0.0
1578828019592,5280351.0,4625704.0,0.0
1578828019640,5288547.0,4615535.0,0.0
1578828019691,5331663.0,4697551.0,0.0
1578828019731,5346135.0,4703731.0,0.0
1578828019788,5419891.0,4826707.0,0.0
1578828019831,5435473.0,4892330.0,0.0
1578828019885,5423520.0,4893752.0,0.0
1578828019933,5402489.0,4875513.0,0.0
1578828019988,5382950.0,4851006.0,0.0
1578828020032,5354955.0,4807992.0,0.0
1578828020073,5341070.0,4786675.0,0.0
1578828020127,5324594.0,4767006.0,0.0
1578828020172,5330521.0,4789623.0,0.0
1578828020228,5310563.0,4754228.0,0.0
1578828020271,5280644.0,4683552.0,0.0
1578828020326,5267132.0,4609113.0,0.0
1578828020372,5262394.0,4571282.0,0.0
1578828020422,5265290.0,4528077.0,0.0
1578828020482,5273374.0,4512733.0,0.0
1578828020517,5304468.0,4543620.0,0.0
1578828020568,5354378.0,4619194.0,0.0
1578828020614,5394088.0,4757434.0,0.0
1578828020668,5395943.0,4788859.0,0.0
1578828020710,5382068.0,4773351.0,0.0
1578828020766,5370298.0,4765817.0,0.0
1578828020810,5358008.0,4748982.0,0.0
1578828020865,5340198.0,4720871.0,0.0
1578828020913,5342776.0,4716206.0,0.0
1578828020955,5345966.0,4741831.0,0.0
1578828021012,5359331.0,4798014.0,0.0
1578828021051,5333459.0,4778276.0,0.0
1578828021105,5322774.0,4731499.0,0.0
1578828021150,5305260.0,4656262.0,0.0
1578828021206,5288728.0,4571308.0,0.0
1578828021251,5268286.0,4494945.0,0.0
1578828021301,5266635.0,4468410.0,0.0
1578828021353,5299063.0,4540204.0,0.0
1578828021400,5342415.0,4666370.0,0.0
1578828021452,5355113.0,4745975.0,0.0
1578828021491,5350137.0,4752928.0,0.0
1578828021547,5344936.0,4753414.0,0.0
1578828021592,5338786.0,4725820.0,0.0
1578828021643,5329954.0,4694483.0,0.0
1578828021692,5327477.0,4662018.0,0.0
1578828021741,5326789.0,4682841.0,0.0
1578828021790,5337553.0,4733830.0,0.0
1578828021831,5333674.0,4740992.0,0.0
1578828021885,5317664.0,4698235.0,0.0
1578828021933,5316069.0,4651121.0,0.0
1578828021982,5315380.0,4618457.0,0.0
1578828022030,5321723.0,4604137.0,0.0
1578828022085,5326823.0,4599698.0,0.0
1578828022135,5332431.0,4587674.0,0.0
1578828022173,5344213.0,4585455.0,0.0
1578828022228,5354717.0,4606746.0,0.0
1578828022271,5340810.0,4605671.0,0.0
1578828022331,5335111.0,4600443.0,0.0
1578828022370,5325184.0,4586063.0,0.0
1578828022427,5307499.0,4555973.0,0.0
1578828022476,5260054.0,4461543.0,0.0
1578828022525,5224596.0,4405855.0,0.0
1578828022576,5213594.0,4434151.0,0.0
1578828022616,5224358.0,4462021.0,0.0
1578828022668,5149765.0,4347306.0,0.0
1578828022711,5132714.0,4301952.0,0.0
1578828022769,5110393.0,4252462.0,0.0
1578828022809,5094698.0,4211328.0,0.0
1578828022869,5067550.0,4166562.0,0.0
1578828022912,5076053.0,4161682.0,0.0
1578828022961,5097400.0,4229176.0,0.0
1578828023013,5118976.0,4301328.0,0.0
1578828023059,5119382.0,4330134.0,0.0
1578828023106,5118398.0,4348225.0,0.0
1578828023156,5116442.0,4337753.0,0.0
1578828023210,5113784.0,4330498.0,0.0
1578828023250,5101415.0,4309233.0,0.0
1578828023307,5046859.0,4221679.0,0.0
1578828023349,5033415.0,4219087.0,0.0
1578828023399,5036263.0,4243134.0,0.0
1578828023446,4996632.0,4178403.0,0.0
1578828023496,4970333.0,4129920.0,0.0
1578828023544,4964859.0,4092531.0,0.0
1578828023592,4970207.0,4082925.0,0.0
1578828023642,4946350.0,4037605.0,0.0
1578828023690,4933109.0,4008661.0,0.0
1578828023745,4922843.0,4015553.0,0.0
1578828023792,4944438.0,4114541.0,0.0
1578828023843,4932656.0,4099163.0,0.0
1578828023891,4926799.0,4103688.0,0.0
1578828023939,4912621.0,4084876.0,0.0
1578828023991,4917280.0,4102215.0,0.0
1578828024035,4903021.0,4080802.0,0.0
1578828024089,4852093.0,3999455.0,0.0
1578828024132,4837270.0,3982766.0,0.0
1578828024177,4836286.0,4013714.0,0.0
1578828024229,4832284.0,4024923.0,0.0
1578828024274,4818320.0,4004248.0,0.0
1578828024324,4813468.0,3984916.0,0.0
1578828024373,4819982.0,3962473.0,0.0
1578828024423,4830543.0,3970301.0,0.0
1578828024472,4822434.0,3946376.0,0.0
1578828024521,4828338.0,3952373.0,0.0
1578828024575,4835076.0,3978467.0,0.0
1578828024619,4841216.0,4003640.0,0.0
1578828024670,4832081.0,4003157.0,0.0
1578828024715,4822899.0,3985473.0,0.0
1578828024769,4821260.0,3981137.0,0.0
1578828024818,4825161.0,3979863.0,0.0
1578828024871,4815425.0,3953389.0,0.0
1578828024912,4807690.0,3949998.0,0.0
1578828024976,4804727.0,3970448.0,0.0
1578828025018,4794394.0,3963028.0,0.0
1578828025066,4776766.0,3922710.0,0.0
1578828025109,4773928.0,3905588.0,0.0
1578828025161,4786637.0,3901125.0,0.0
1578828025208,4797141.0,3912594.0,0.0
1578828025257,4803687.0,3901515.0,0.0
1578828025311,4772920.0,3829814.0,0.0
1578828025358,4776348.0,3842627.0,0.0
1578828025409,4812678.0,3942977.0,0.0
1578828025459,4825364.0,3976665.0,0.0
1578828025499,4826563.0,3976647.0,0.0
1578828025556,4816499.0,3958304.0,0.0
1578828025602,4807883.0,3934057.0,0.0
1578828025647,4806389.0,3918575.0,0.0
1578828025699,4764474.0,3847153.0,0.0
1578828025749,4757487.0,3832624.0,0.0
1578828025793,4762778.0,3871876.0,0.0
1578828025848,4740469.0,3837746.0,0.0
1578828025897,4719687.0,3805318.0,0.0
1578828025946,4713650.0,3764929.0,0.0
1578828025992,4718579.0,3748008.0,0.0
1578828026043,4726958.0,3758445.0,0.0
1578828026086,4714384.0,3727211.0,0.0
1578828026134,4690560.0,3668809.0,0.0
1578828026191,4726946.0,3752055.0,0.0
1578828026235,4715956.0,3752939.0,0.0
1578828026288,4712236.0,3767704.0,0.0
1578828026336,4711830.0,3765839.0,0.0
1578828026384,4707114.0,3750521.0,0.0
1578828026433,4680699.0,3718040.0,0.0
1578828026475,4640877.0,3652807.0,0.0
1578828026528,4660471.0,3668203.0,0.0
1578828026574,4625895.0,3652106.0,0.0
1578828026630,4631198.0,3652313.0,0.0
1578828026677,4591453.0,3589959.0,0.0
1578828026720,4601358.0,3596702.0,0.0
1578828026774,4615480.0,3596641.0,0.0
1578828026825,4641566.0,3614917.0,0.0
1578828026866,4660959.0,3648030.0,0.0
1578828026917,4679763.0,3674097.0,0.0
1578828026971,4691805.0,3708678.0,0.0
1578828027016,4712135.0,3801061.0,0.0
1578828027065,4712281.0,3814601.0,0.0
1578828027115,4704321.0,3789305.0,0.0
1578828027167,4692922.0,3755765.0,0.0
1578828027216,4692075.0,3751076.0,0.0
