time,value,value2,value3
1577930489978,5921862.0,6223950.0,0.0
1577930489979,5918691.0,6211382.0,0.0
1577930489980,5906557.0,6197484.0,0.0
1577930490017,5889862.0,6168942.0,0.0
1577930490046,5875569.0,6133688.0,0.0
1577930490089,5871192.0,6123099.0,0.0
1577930490139,5846536.0,6109069.0,0.0
1577930490186,5838781.0,6092769.0,0.0
1577930490238,5796269.0,6070144.0,0.0
1577930490286,5786617.0,6058057.0,0.0
1577930490334,5778725.0,6041964.0,0.0
1577930490384,5790123.0,6034985.0,0.0
1577930490438,5795891.0,6027233.0,0.0
1577930490483,5797051.0,6021391.0,0.0
1577930490531,5805978.0,6038558.0,0.0
1577930490578,5828003.0,6056211.0,0.0
1577930490626,5835794.0,6065579.0,0.0
1577930490678,5835241.0,6063370.0,0.0
1577930490726,5855395.0,6059747.0,0.0
1577930490776,5854637.0,6062550.0,0.0
1577930490824,5858440.0,6064433.0,0.0
1577930490872,5864241.0,6062440.0,0.0
1577930490923,5857187.0,6058819.0,0.0
1577930490971,5857370.0,6050694.0,0.0
1577930491021,5839378.0,6039621.0,0.0
1577930491067,5827992.0,6029298.0,0.0
1577930491117,5827084.0,6021185.0,0.0
1577930491166,5836298.0,6036024.0,0.0
1577930491215,5837148.0,6047928.0,0.0
1577930491261,5841469.0,6038679.0,0.0
1577930491312,5842456.0,6032702.0,0.0
1577930491362,5835437.0,6029359.0,0.0
1577930491414,5825763.0,6010923.0,0.0
1577930491461,5819098.0,6007337.0,0.0
1577930491513,5813526.0,6002458.0,0.0
1577930491558,5804806.0,5995407.0,0.0
1577930491605,5797832.0,5982548.0,0.0
1577930491654,5796868.0,5968833.0,0.0
1577930491703,5805473.0,5981837.0,0.0
1577930491749,5816514.0,5985097.0,0.0
1577930491800,5834048.0,6025012.0,0.0
1577930491848,5856807.0,6044813.0,0.0
1577930491901,5865057.0,6059591.0,0.0
1577930491947,5881327.0,6068043.0,0.0
1577930492000,5912726.0,6085877.0,0.0
1577930492045,5937533.0,6091272.0,0.0
1577930492098,5932455.0,6086371.0,0.0
1577930492146,5927170.0,6092203.0,0.0
1577930492194,5929341.0,6099664.0,0.0
1577930492240,5931041.0,6095234.0,0.0
1577930492291,5922287.0,6092481.0,0.0
1577930492342,5904982.0,6089884.0,0.0
1577930492391,5892149.0,6071640.0,0.0
1577930492440,5882590.0,6074381.0,0.0
1577930492488,5878753.0,6077763.0,0.0
1577930492538,5876546.0,6082761.0,0.0
1577930492586,5866793.0,6096754.0,0.0
1577930492627,5863139.0,6104228.0,0.0
1577930492683,5853603.0,6095945.0,0.0
1577930492724,5856842.0,6094388.0,0.0
1577930492777,5854612.0,6084705.0,0.0
1577930492823,5847777.0,6075782.0,0.0
1577930492874,5835012.0,6064397.0,0.0
1577930492922,5813745.0,6020063.0,0.0
1577930492975,5777277.0,5965442.0,0.0
1577930493024,5745209.0,5933277.0,0.0
1577930493071,5742856.0,5925959.0,0.0
1577930493119,5758447.0,5926382.0,0.0
1577930493170,5781229.0,5970911.0,0.0
1577930493220,5799485.0,5989141.0,0.0
1577930493263,5817271.0,6004499.0,0.0
1577930493316,5826017.0,6008580.0,0.0
1577930493363,5846329.0,6018698.0,0.0
1577930493413,5851051.0,6025834.0,0.0
1577930493464,5838253.0,5988768.0,0.0
1577930493513,5806691.0,5950034.0,0.0
1577930493561,5785296.0,5926334.0,0.0
1577930493610,5765260.0,5914200.0,0.0
1577930493658,5737661.0,5908623.0,0.0
1577930493706,5726127.0,5905748.0,0.0
1577930493755,5731526.0,5897997.0,0.0
1577930493803,5734478.0,5903683.0,0.0
1577930493852,5751552.0,5931706.0,0.0
1577930493903,5752483.0,5949177.0,0.0
1577930493954,5752988.0,5956241.0,0.0
1577930494002,5742051.0,5942211.0,0.0
1577930494046,5715557.0,5884209.0,0.0
1577930494097,5690820.0,5843798.0,0.0
1577930494144,5670333.0,5830154.0,0.0
1577930494189,5667462.0,5836771.0,0.0
1577930494244,5679801.0,5841553.0,0.0
1577930494292,5648400.0,5820411.0,0.0
1577930494342,5628742.0,5804789.0,0.0
1577930494390,5616045.0,5795395.0,0.0
1577930494441,5611014.0,5787860.0,0.0
1577930494482,5620630.0,5799452.0,0.0
1577930494535,5584507.0,5758811.0,0.0
1577930494585,5522337.0,5688736.0,0.0
1577930494626,5463097.0,5633668.0,0.0
1577930494682,5435683.0,5615629.0,0.0
1577930494723,5431638.0,5619963.0,0.0
1577930494774,5422344.0,5625239.0,0.0
1577930494824,5407832.0,5618323.0,0.0
1577930494872,5383488.0,5597121.0,0.0
1577930494922,5374639.0,5593077.0,0.0
1577930494969,5370411.0,5600971.0,0.0
1577930495024,5360910.0,5596951.0,0.0
1577930495070,5323557.0,5549719.0,0.0
1577930495116,5246715.0,5477543.0,0.0
1577930495165,5203400.0,5439848.0,0.0
1577930495219,5179745.0,5418986.0,0.0
1577930495262,5168955.0,5415870.0,0.0
1577930495309,5167611.0,5414651.0,0.0
1577930495364,5154157.0,5401116.0,0.0
1577930495409,5132913.0,5386144.0,0.0
1577930495460,5107522.0,5375399.0,0.0
1577930495511,5094135.0,5372164.0,0.0
1577930495560,5080693.0,5353812.0,0.0
1577930495603,5039009.0,5304333.0,0.0
1577930495657,4938913.0,5203905.0,0.0
1577930495709,4850582.0,5141061.0,0.0
1577930495748,4810058.0,5106891.0,0.0
1577930495805,4786378.0,5086175.0,0.0
1577930495847,4766674.0,5083615.0,0.0
1577930495898,4741892.0,5064200.0,0.0
1577930495947,4705457.0,5040559.0,0.0
1577930495999,4675102.0,5025455.0,0.0
1577930496047,4663762.0,5044532.0,0.0
1577930496090,4674770.0,5072965.0,0.0
1577930496147,4665280.0,5057681.0,0.0
1577930496194,4642002.0,5038073.0,0.0
1577930496244,4628329.0,5019877.0,0.0
1577930496286,4637935.0,5040995.0,0.0
1577930496340,4637268.0,5045690.0,0.0
1577930496385,4642795.0,5047816.0,0.0
1577930496441,4649298.0,5053262.0,0.0
1577930496487,4656926.0,5071576.0,0.0
1577930496530,4683835.0,5116661.0,0.0
1577930496589,4711225.0,5196068.0,0.0
1577930496630,4718373.0,5226398.0,0.0
1577930496683,4705218.0,5181327.0,0.0
1577930496730,4692279.0,5152290.0,0.0
1577930496779,4683491.0,5139371.0,0.0
1577930496825,4689946.0,5131728.0,0.0
1577930496870,4674413.0,5123312.0,0.0
1577930496937,4673827.0,5127586.0,0.0
1577930496968,4674677.0,5132598.0,0.0
1577930497025,4690372.0,5151806.0,0.0
1577930497067,4722291.0,5210810.0,0.0
1577930497116,4758414.0,5279208.0,0.0
1577930497165,4779140.0,5359099.0,0.0
1577930497218,4789997.0,5410160.0,0.0
1577930497267,4785172.0,5443061.0,0.0
1577930497308,4793777.0,5488084.0,0.0
1577930497362,4825408.0,5531741.0,0.0
1577930497409,4838552.0,5564546.0,0.0
1577930497458,4863347.0,5594838.0,0.0
1577930497507,4878317.0,5611960.0,0.0
1577930497559,4892058.0,5635358.0,0.0
1577930497605,4922093.0,5652805.0,0.0
1577930497656,4920737.0,5633933.0,0.0
1577930497708,4941175.0,5635961.0,0.0
1577930497755,4957043.0,5621872.0,0.0
1577930497802,4934674.0,5602577.0,0.0
1577930497852,4895667.0,5591168.0,0.0
1577930497902,4882190.0,5578092.0,0.0
1577930497950,4914694.0,5567227.0,0.0
1577930498001,4977690.0,5592871.0,0.0
1577930498049,4996992.0,5601178.0,0.0
1577930498097,5059243.0,5657645.0,0.0
1577930498149,5110841.0,5684618.0,0.0
1577930498189,5156007.0,5695811.0,0.0
1577930498238,5250060.0,5728616.0,0.0
1577930498285,5344458.0,5762251.0,0.0
1577930498336,5405109.0,5775607.0,0.0
1577930498386,5422447.0,5797833.0,0.0
1577930498437,5447196.0,5813204.0,0.0
1577930498489,5514489.0,5853819.0,0.0
1577930498534,5557392.0,5877230.0,0.0
1577930498579,5580624.0,5889581.0,0.0
1577930498633,5572696.0,5896706.0,0.0
1577930498683,5568468.0,5894109.0,0.0
1577930498729,5553370.0,5894616.0,0.0
1577930498780,5552256.0,5897211.0,0.0
1577930498830,5562526.0,5900520.0,0.0
1577930498877,5569374.0,5906050.0,0.0
1577930498926,5576396.0,5898830.0,0.0
1577930498977,5599892.0,5911569.0,0.0
1577930499024,5614472.0,5908874.0,0.0
1577930499071,5635117.0,5913124.0,0.0
1577930499120,5653766.0,5907438.0,0.0
1577930499168,5672999.0,5924367.0,0.0
1577930499218,5679341.0,5928966.0,0.0
1577930499270,5697575.0,5934726.0,0.0
1577930499315,5710891.0,5940809.0,0.0
1577930499366,5718864.0,5933131.0,0.0
1577930499413,5719680.0,5927215.0,0.0
1577930499464,5712167.0,5922000.0,0.0
1577930499513,5711120.0,5911881.0,0.0
1577930499560,5721519.0,5920997.0,0.0
1577930499610,5718451.0,5901268.0,0.0
1577930499657,5729527.0,5899337.0,0.0
1577930499706,5758790.0,5905121.0,0.0
1577930499754,5777024.0,5921926.0,0.0
1577930499804,5791754.0,5933758.0,0.0
1577930499848,5798866.0,5937104.0,0.0
1577930499901,5805634.0,5920538.0,0.0
1577930499953,5800807.0,5900194.0,0.0
1577930499992,5759640.0,5857720.0,0.0
1577930500047,5730250.0,5835938.0,0.0
1577930500096,5668806.0,5787691.0,0.0
1577930500144,5634588.0,5766779.0,0.0
1577930500191,5612506.0,5756253.0,0.0
1577930500244,5578923.0,5750347.0,0.0
1577930500290,5564849.0,5743815.0,0.0
1577930500340,5552900.0,5718209.0,0.0
1577930500391,5542903.0,5699469.0,0.0
1577930500443,5518798.0,5690921.0,0.0
1577930500487,5485468.0,5684100.0,0.0
1577930500534,5446426.0,5650993.0,0.0
1577930500582,5409521.0,5593704.0,0.0
1577930500626,5379109.0,5535459.0,0.0
1577930500681,5345812.0,5477373.0,0.0
1577930500733,5313676.0,5434934.0,0.0
1577930500779,5285528.0,5406490.0,0.0
1577930500828,5272280.0,5376811.0,0.0
1577930500876,5237582.0,5316263.0,0.0
1577930500924,5191797.0,5262292.0,0.0
1577930500976,5166738.0,5234800.0,0.0
1577930501022,5144299.0,5220651.0,0.0
1577930501069,5120999.0,5208456.0,0.0
1577930501116,5104982.0,5188618.0,0.0
1577930501171,5082475.0,5160235.0,0.0
1577930501217,5063781.0,5139347.0,0.0
1577930501267,5047178.0,5120850.0,0.0
1577930501315,5033552.0,5107870.0,0.0
1577930501365,4996395.0,5053431.0,0.0
1577930501407,4946853.0,4978260.0,0.0
1577930501464,4895265.0,4929071.0,0.0
1577930501513,4869700.0,4914160.0,0.0
1577930501560,4851949.0,4902751.0,0.0
1577930501609,4828327.0,4882757.0,0.0
1577930501658,4807599.0,4859684.0,0.0
1577930501707,4785666.0,4841066.0,0.0
1577930501756,4765204.0,4825816.0,0.0
1577930501804,4754564.0,4828546.0,0.0
1577930501848,4744856.0,4822569.0,0.0
1577930501899,4707100.0,4817063.0,0.0
1577930501950,4687178.0,4858971.0,0.0
1577930501996,4720877.0,4907506.0,0.0
1577930502044,4755897.0,4993883.0,0.0
1577930502097,4791950.0,5104913.0,0.0
1577930502146,4819881.0,5169735.0,0.0
1577930502188,4849996.0,5138876.0,0.0
1577930502242,4885877.0,5149019.0,0.0
1577930502290,4889187.0,5184757.0,0.0
1577930502337,4901458.0,5217078.0,0.0
1577930502385,4927849.0,5260988.0,0.0
1577930502436,4979264.0,5319981.0,0.0
1577930502484,5102397.0,5406223.0,0.0
1577930502537,5247911.0,5457319.0,0.0
1577930502584,5453078.0,5543092.0,0.0
1577930502629,5622561.0,5633813.0,0.0
1577930502683,5773359.0,5732551.0,0.0
1577930502734,5861369.0,5811152.0,0.0
1577930502779,5935820.0,5848736.0,0.0
1577930502829,5998565.0,5890414.0,0.0
1577930502877,6035389.0,5910699.0,0.0
1577930502926,6094146.0,5953234.0,0.0
1577930502971,6133291.0,5975521.0,0.0
1577930503025,6185085.0,5984963.0,0.0
1577930503075,6215853.0,5976246.0,0.0
1577930503117,6238005.0,5968568.0,0.0
1577930503169,6273806.0,5962313.0,0.0
1577930503218,6287031.0,5937490.0,0.0
1577930503267,6279713.0,5901704.0,0.0
1577930503315,6264879.0,5871084.0,0.0
1577930503365,6246622.0,5853602.0,0.0
1577930503411,6225482.0,5847337.0,0.0
1577930503465,6206788.0,5845393.0,0.0
1577930503518,6196987.0,5836422.0,0.0
1577930503559,6188899.0,5831905.0,0.0
1577930503609,6214131.0,5841143.0,0.0
1577930503658,6232053.0,5840394.0,0.0
1577930503706,6237879.0,5826473.0,0.0
1577930503751,6226816.0,5807746.0,0.0
1577930503806,6211821.0,5807130.0,0.0
1577930503855,6196690.0,5817441.0,0.0
1577930503902,6179191.0,5807553.0,0.0
1577930503953,6173871.0,5809182.0,0.0
1577930503995,6171171.0,5813215.0,0.0
1577930504048,6172114.0,5817949.0,0.0
1577930504095,6184235.0,5828816.0,0.0
1577930504146,6198953.0,5852359.0,0.0
1577930504196,6226780.0,5888603.0,0.0
1577930504243,6268820.0,5922399.0,0.0
1577930504291,6306035.0,5948079.0,0.0
1577930504340,6319339.0,5951362.0,0.0
1577930504388,6329393.0,5950928.0,0.0
1577930504434,6287675.0,5893072.0,0.0
1577930504488,6235511.0,5844449.0,0.0
1577930504531,6204399.0,5841058.0,0.0
1577930504584,6188843.0,5845031.0,0.0
1577930504636,6179224.0,5847662.0,0.0
1577930504682,6164876.0,5843701.0,0.0
1577930504730,6141229.0,5826991.0,0.0
1577930504775,6139299.0,5830903.0,0.0
1577930504829,6114562.0,5824227.0,0.0
1577930504875,6115102.0,5831567.0,0.0
1577930504928,6106450.0,5838824.0,0.0
1577930504976,6126649.0,5870108.0,0.0
1577930505025,6119159.0,5872726.0,0.0
1577930505065,6120974.0,5877762.0,0.0
1577930505114,6100752.0,5867426.0,0.0
1577930505163,6077762.0,5863684.0,0.0
1577930505219,6072683.0,5872715.0,0.0
1577930505268,6044729.0,5860833.0,0.0
1577930505312,6035699.0,5868754.0,0.0
1577930505365,6017936.0,5860315.0,0.0
1577930505416,5993451.0,5875649.0,0.0
1577930505464,5981629.0,5897563.0,0.0
1577930505512,5969300.0,5870928.0,0.0
1577930505562,5958214.0,5835925.0,0.0
1577930505609,5959706.0,5831265.0,0.0
1577930505657,5953077.0,5839342.0,0.0
1577930505708,5959547.0,5852032.0,0.0
1577930505753,5961901.0,5885585.0,0.0
1577930505806,5969094.0,5902778.0,0.0
1577930505858,5986605.0,5961046.0,0.0
1577930505903,5979067.0,6101536.0,0.0
1577930505953,5966267.0,6167361.0,0.0
1577930506002,5957064.0,6202482.0,0.0
1577930506049,5931720.0,6202482.0,0.0
1577930506096,5919011.0,6199972.0,0.0
1577930506146,5906006.0,6183020.0,0.0
1577930506197,5909658.0,6184832.0,0.0
1577930506245,5911589.0,6179677.0,0.0
1577930506292,5920012.0,6188973.0,0.0
1577930506342,5923528.0,6193924.0,0.0
1577930506390,5923550.0,6198293.0,0.0
1577930506439,5932971.0,6203871.0,0.0
1577930506490,5931546.0,6198076.0,0.0
1577930506536,5931144.0,6204005.0,0.0
1577930506586,5934649.0,6202472.0,0.0
1577930506635,5937889.0,6203051.0,0.0
1577930506683,5938671.0,6202556.0,0.0
1577930506731,5939245.0,6199538.0,0.0
1577930506782,5941772.0,6203667.0,0.0
1577930506829,5942001.0,6198137.0,0.0
1577930506872,5942232.0,6187138.0,0.0
1577930506927,5939416.0,6186921.0,0.0
1577930506982,5941714.0,6178191.0,0.0
1577930507028,5938142.0,6169775.0,0.0
1577930507072,5938037.0,6172541.0,0.0
1577930507120,5934121.0,6163473.0,0.0
1577930507170,5936889.0,6163510.0,0.0
1577930507215,5937566.0,6161421.0,0.0
1577930507264,5933293.0,6163015.0,0.0
1577930507313,5933970.0,6165369.0,0.0
1577930507362,5936613.0,6164076.0,0.0
1577930507411,5930915.0,6160939.0,0.0
1577930507464,5931398.0,6161095.0,0.0
1577930507513,5932110.0,6163605.0,0.0
1577930507563,5943116.0,6170741.0,0.0
1577930507609,5942082.0,6168471.0,0.0
1577930507655,5940164.0,6171188.0,0.0
1577930507707,5935130.0,6163388.0,0.0
1577930507759,5928617.0,6158464.0,0.0
1577930507807,5917541.0,6147996.0,0.0
1577930507853,5914679.0,6143418.0,0.0
1577930507905,5907844.0,6135994.0,0.0
1577930507954,5894563.0,6149009.0,0.0
1577930507994,5894160.0,6155142.0,0.0
1577930508049,5904695.0,6197182.0,0.0
1577930508100,5908360.0,6195191.0,0.0
1577930508147,5909188.0,6212154.0,0.0
1577930508194,5934982.0,6247421.0,0.0
1577930508243,5937463.0,6250415.0,0.0
1577930508292,5939612.0,6255813.0,0.0
1577930508341,5948574.0,6265712.0,0.0
1577930508391,5947517.0,6298964.0,0.0
1577930508445,5977998.0,6346064.0,0.0
1577930508489,6002149.0,6375669.0,0.0
1577930508538,6026508.0,6400987.0,0.0
1577930508586,6015993.0,6370573.0,0.0
1577930508633,6007227.0,6363765.0,0.0
1577930508685,5995887.0,6359044.0,0.0
1577930508731,5987270.0,6335101.0,0.0
1577930508774,5968646.0,6293989.0,0.0
1577930508828,5939474.0,6254689.0,0.0
1577930508879,5916793.0,6227308.0,0.0
1577930508927,5893506.0,6205175.0,0.0
1577930508975,5876007.0,6162108.0,0.0
1577930509027,5835127.0,6082074.0,0.0
1577930509072,5796143.0,5995129.0,0.0
1577930509118,5743430.0,5923399.0,0.0
1577930509170,5677768.0,5859783.0,0.0
1577930509221,5627879.0,5797653.0,0.0
1577930509267,5576061.0,5739493.0,0.0
1577930509316,5522981.0,5684994.0,0.0
1577930509365,5484812.0,5648229.0,0.0
1577930509415,5447552.0,5619445.0,0.0
1577930509458,5416185.0,5590794.0,0.0
1577930509512,5387957.0,5563157.0,0.0
1577930509555,5338229.0,5487902.0,0.0
1577930509609,5262435.0,5393015.0,0.0
1577930509659,5191337.0,5320187.0,0.0
1577930509708,5146793.0,5269041.0,0.0
1577930509756,5101283.0,5222473.0,0.0
1577930509806,5051038.0,5160137.0,0.0
1577930509853,4996750.0,5098103.0,0.0
1577930509905,4951104.0,5045679.0,0.0
1577930509954,4915542.0,5007188.0,0.0
1577930510001,4884866.0,4976570.0,0.0
1577930510050,4866093.0,4959401.0,0.0
1577930510099,4836954.0,4921502.0,0.0
1577930510147,4757541.0,4813828.0,0.0
1577930510195,4684283.0,4730025.0,0.0
1577930510245,4634384.0,4681161.0,0.0
1577930510292,4607349.0,4658390.0,0.0
1577930510341,4584852.0,4643299.0,0.0
1577930510390,4560140.0,4624789.0,0.0
1577930510445,4537240.0,4616411.0,0.0
1577930510485,4533082.0,4614985.0,0.0
1577930510536,4527646.0,4609505.0,0.0
1577930510581,4549064.0,4639616.0,0.0
1577930510635,4547478.0,4658366.0,0.0
1577930510680,4515433.0,4621409.0,0.0
1577930510732,4459158.0,4590127.0,0.0
1577930510780,4405066.0,4599664.0,0.0
1577930510829,4401515.0,4637045.0,0.0
1577930510874,4515365.0,4700685.0,0.0
1577930510924,4606936.0,4757842.0,0.0
1577930510973,4774338.0,4886428.0,0.0
1577930511023,4918554.0,5028354.0,0.0
1577930511069,5070468.0,5152663.0,0.0
1577930511119,5196058.0,5234716.0,0.0
1577930511166,5267179.0,5272424.0,0.0
1577930511218,5357095.0,5320573.0,0.0
1577930511264,5349788.0,5313269.0,0.0
1577930511313,5360336.0,5322190.0,0.0
1577930511362,5335393.0,5284968.0,0.0
1577930511411,5330659.0,5263548.0,0.0
1577930511463,5309760.0,5230045.0,0.0
1577930511513,5299431.0,5211172.0,0.0
1577930511559,5281517.0,5196298.0,0.0
1577930511605,5260721.0,5183754.0,0.0
1577930511654,5236042.0,5161272.0,0.0
1577930511703,5210248.0,5138802.0,0.0
1577930511750,5148285.0,5070394.0,0.0
1577930511804,5072295.0,5003144.0,0.0
1577930511852,5002128.0,4949801.0,0.0
1577930511906,4943715.0,4915536.0,0.0
1577930511954,4886660.0,4874148.0,0.0
1577930512003,4850421.0,4849772.0,0.0
1577930512049,4816148.0,4827144.0,0.0
1577930512096,4780795.0,4814346.0,0.0
1577930512148,4754334.0,4802395.0,0.0
1577930512195,4733181.0,4793424.0,0.0
1577930512245,4714535.0,4786034.0,0.0
1577930512291,4657478.0,4738089.0,0.0
1577930512346,4592815.0,4686908.0,0.0
1577930512384,4558300.0,4664296.0,0.0
1577930512434,4535380.0,4650253.0,0.0
1577930512485,4511308.0,4640919.0,0.0
1577930512532,4487997.0,4632324.0,0.0
1577930512582,4456631.0,4620153.0,0.0
1577930512629,4433583.0,4608286.0,0.0
1577930512684,4410454.0,4604652.0,0.0
1577930512730,4393771.0,4597310.0,0.0
1577930512780,4393081.0,4608019.0,0.0
1577930512829,4392565.0,4593941.0,0.0
1577930512876,4333671.0,4540600.0,0.0
1577930512923,4290917.0,4511648.0,0.0
1577930512976,4267846.0,4499610.0,0.0
1577930513028,4241525.0,4489009.0,0.0
1577930513071,4233034.0,4463414.0,0.0
1577930513120,4201942.0,4431418.0,0.0
1577930513170,4169554.0,4396018.0,0.0
1577930513218,4140992.0,4358734.0,0.0
1577930513266,4116564.0,4335505.0,0.0
1577930513316,4108694.0,4327174.0,0.0
1577930513367,4109155.0,4324542.0,0.0
1577930513413,4090702.0,4293391.0,0.0
1577930513468,4038263.0,4232528.0,0.0
1577930513505,3996890.0,4195449.0,0.0
1577930513560,3963491.0,4170663.0,0.0
1577930513604,3940385.0,4150922.0,0.0
1577930513657,3908248.0,4124324.0,0.0
1577930513709,3876044.0,4095950.0,0.0
1577930513754,3853698.0,4082898.0,0.0
1577930513808,3839060.0,4074858.0,0.0
1577930513852,3827443.0,4074845.0,0.0
1577930513902,3822790.0,4076318.0,0.0
1577930513949,3794446.0,4054115.0,0.0
1577930514001,3733516.0,3990222.0,0.0
1577930514043,3694222.0,3950040.0,0.0
1577930514097,3657457.0,3925831.0,0.0
1577930514149,3640832.0,3915485.0,0.0
1577930514194,3556770.0,3918225.0,0.0
1577930514248,3568591.0,3935479.0,0.0
1577930514291,3579353.0,3943955.0,0.0
1577930514341,3579916.0,3959614.0,0.0
1577930514385,3575779.0,3968149.0,0.0
1577930514436,3578975.0,3983218.0,0.0
1577930514489,3580444.0,3987226.0,0.0
1577930514535,3552591.0,3947166.0,0.0
1577930514587,3525410.0,3921763.0,0.0
1577930514632,3516594.0,3922705.0,0.0
1577930514682,3511745.0,3942554.0,0.0
1577930514729,3506484.0,3952321.0,0.0
1577930514779,3500771.0,3964238.0,0.0
1577930514822,3499304.0,3970590.0,0.0
1577930514876,3507567.0,3983557.0,0.0
1577930514926,3516895.0,3997754.0,0.0
1577930514975,3528783.0,4010541.0,0.0
1577930515024,3543086.0,4024003.0,0.0
1577930515069,3552180.0,4024944.0,0.0
1577930515120,3527970.0,3987577.0,0.0
1577930515165,3508280.0,3957549.0,0.0
1577930515219,3509380.0,3957573.0,0.0
1577930515261,3522876.0,3971471.0,0.0
1577930515316,3541475.0,3980997.0,0.0
1577930515368,3568430.0,3988349.0,0.0
1577930515413,3605091.0,4019234.0,0.0
1577930515459,3639084.0,4056638.0,0.0
1577930515514,3635972.0,4078238.0,0.0
1577930515571,3658782.0,4086653.0,0.0
1577930515608,3693848.0,4078915.0,0.0
1577930515658,3737228.0,4072539.0,0.0
1577930515705,3760759.0,4033191.0,0.0
1577930515756,3756893.0,3974562.0,0.0
1577930515802,3781682.0,3947166.0,0.0
1577930515849,3808914.0,3937060.0,0.0
1577930515905,3838427.0,3935611.0,0.0
1577930515945,3853687.0,3928235.0,0.0
1577930515995,3853897.0,3920507.0,0.0
1577930516044,3847554.0,3913469.0,0.0
1577930516099,3840540.0,3917537.0,0.0
1577930516149,3831438.0,3823000.0,0.0
1577930516189,3821700.0,3846588.0,0.0
1577930516239,3800683.0,3870061.0,0.0
1577930516295,3739485.0,3834875.0,0.0
1577930516344,3674445.0,3808552.0,0.0
1577930516384,3638036.0,3810411.0,0.0
1577930516444,3615057.0,3825696.0,0.0
1577930516490,3596281.0,3835040.0,0.0
1577930516538,3579387.0,3835434.0,0.0
1577930516581,3565905.0,3843563.0,0.0
1577930516633,3565049.0,3853157.0,0.0
1577930516686,3567741.0,3867152.0,0.0
1577930516728,3574798.0,3880569.0,0.0
1577930516782,3582004.0,3887274.0,0.0
1577930516827,3541896.0,3845008.0,0.0
1577930516873,3485832.0,3780465.0,0.0
1577930516920,3460571.0,3758023.0,0.0
1577930516971,3454782.0,3755131.0,0.0
1577930517019,3449992.0,3761133.0,0.0
1577930517069,3446696.0,3760564.0,0.0
1577930517115,3442635.0,3760554.0,0.0
1577930517164,3444565.0,3771237.0,0.0
1577930517221,3453549.0,3784480.0,0.0
1577930517271,3463129.0,3801819.0,0.0
1577930517311,3477853.0,3822374.0,0.0
1577930517362,3478188.0,3829463.0,0.0
1577930517410,3431251.0,3772980.0,0.0
1577930517460,3389163.0,3729511.0,0.0
1577930517508,3370422.0,3711057.0,0.0
1577930517564,3374466.0,3712568.0,0.0
1577930517609,3393458.0,3735974.0,0.0
1577930517660,3416167.0,3759987.0,0.0
1577930517707,3432527.0,3781418.0,0.0
1577930517755,3445849.0,3800712.0,0.0
1577930517803,3462265.0,3825089.0,0.0
1577930517848,3479170.0,3850682.0,0.0
1577930517904,3494269.0,3870880.0,0.0
1577930517947,3506763.0,3890336.0,0.0
1577930518001,3518860.0,3911682.0,0.0
1577930518048,3486671.0,3871555.0,0.0
1577930518098,3440436.0,3816257.0,0.0
1577930518144,3412258.0,3789923.0,0.0
1577930518193,3401654.0,3780494.0,0.0
1577930518243,3405941.0,3778818.0,0.0
1577930518287,3407108.0,3783257.0,0.0
1577930518342,3401319.0,3779616.0,0.0
1577930518393,3405982.0,3792379.0,0.0
1577930518441,3421880.0,3819802.0,0.0
1577930518487,3439380.0,3846154.0,0.0
1577930518530,3452517.0,3863127.0,0.0
1577930518583,3461922.0,3878103.0,0.0
1577930518631,3472038.0,3890115.0,0.0
1577930518684,3471971.0,3885781.0,0.0
1577930518727,3440388.0,3837736.0,0.0
1577930518781,3399759.0,3790654.0,0.0
1577930518828,3388651.0,3775089.0,0.0
1577930518879,3392820.0,3787284.0,0.0
1577930518925,3413164.0,3809621.0,0.0
1577930518974,3430178.0,3827555.0,0.0
1577930519024,3435361.0,3836667.0,0.0
1577930519067,3441688.0,3844555.0,0.0
1577930519116,3451520.0,3864456.0,0.0
1577930519169,3463742.0,3881986.0,0.0
1577930519220,3475772.0,3890076.0,0.0
1577930519267,3484454.0,3901876.0,0.0
1577930519316,3499942.0,3919589.0,0.0
1577930519363,3517433.0,3932737.0,0.0
1577930519408,3522490.0,3938247.0,0.0
1577930519465,3491460.0,3897965.0,0.0
1577930519510,3460437.0,3861566.0,0.0
1577930519562,3453868.0,3864051.0,0.0
1577930519607,3453633.0,3864252.0,0.0
1577930519658,3463072.0,3866276.0,0.0
1577930519703,3474397.0,3885125.0,0.0
1577930519753,3498213.0,3926052.0,0.0
1577930519805,3536032.0,3931715.0,0.0
1577930519854,3562012.0,3932206.0,0.0
1577930519903,3595024.0,3946520.0,0.0
1577930519949,3626542.0,3962981.0,0.0
1577930519993,3629194.0,3972882.0,0.0
1577930520051,3635728.0,3988630.0,0.0
1577930520088,3658128.0,4032918.0,0.0
1577930520138,3673404.0,4048002.0,0.0
1577930520191,3660643.0,4020975.0,0.0
1577930520236,3676080.0,4024374.0,0.0
1577930520292,3721356.0,4047550.0,0.0
1577930520341,3755960.0,4045738.0,0.0
1577930520391,3724897.0,3999362.0,0.0
1577930520436,3670954.0,3956161.0,0.0
1577930520489,3648538.0,3958001.0,0.0
1577930520528,3656307.0,3972786.0,0.0
1577930520582,3668664.0,3995633.0,0.0
1577930520630,3674268.0,4010833.0,0.0
1577930520685,3701054.0,4030386.0,0.0
1577930520733,3751499.0,4069548.0,0.0
1577930520780,3763419.0,4071224.0,0.0
1577930520831,3727841.0,4058049.0,0.0
1577930520875,3704846.0,4053241.0,0.0
1577930520929,3724511.0,4067323.0,0.0
1577930520968,3742640.0,4083844.0,0.0
1577930521019,3772932.0,4102501.0,0.0
1577930521070,3798410.0,4111622.0,0.0
1577930521115,3819282.0,4133150.0,0.0
1577930521173,3825692.0,4138081.0,0.0
1577930521215,3830759.0,4150198.0,0.0
1577930521269,3833108.0,4158376.0,0.0
1577930521311,3843620.0,4169644.0,0.0
1577930521369,3852218.0,4193609.0,0.0
1577930521409,3865532.0,4221917.0,0.0
1577930521468,3850516.0,4196961.0,0.0
1577930521512,3841347.0,4172206.0,0.0
1577930521563,3849593.0,4176012.0,0.0
1577930521608,3848746.0,4185721.0,0.0
1577930521658,3863503.0,4205891.0,0.0
1577930521711,3889475.0,4230337.0,0.0
1577930521751,3925447.0,4263730.0,0.0
1577930521806,3953147.0,4293434.0,0.0
1577930521855,3982526.0,4314077.0,0.0
1577930521905,4011637.0,4343858.0,0.0
1577930521954,4048751.0,4372360.0,0.0
1577930522000,4050253.0,4379757.0,0.0
1577930522051,4026823.0,4346034.0,0.0
1577930522096,3985722.0,4299282.0,0.0
1577930522148,3964290.0,4263220.0,0.0
1577930522191,3949171.0,4262651.0,0.0
1577930522245,3960716.0,4275539.0,0.0
1577930522293,3990076.0,4319085.0,0.0
1577930522344,4053156.0,4338773.0,0.0
1577930522393,4027887.0,4349338.0,0.0
1577930522440,4026520.0,4352806.0,0.0
1577930522490,4042711.0,4371155.0,0.0
1577930522531,4075444.0,4408228.0,0.0
1577930522588,4109791.0,4443077.0,0.0
1577930522630,4140478.0,4478571.0,0.0
1577930522678,4155578.0,4493405.0,0.0
1577930522725,4144707.0,4472041.0,0.0
1577930522778,4112046.0,4443934.0,0.0
1577930522826,4083163.0,4412544.0,0.0
1577930522874,4081812.0,4408547.0,0.0
1577930522925,4090940.0,4428042.0,0.0
1577930522973,4102316.0,4455415.0,0.0
1577930523026,4144916.0,4469248.0,0.0
1577930523073,4186333.0,4496199.0,0.0
1577930523117,4194706.0,4506426.0,0.0
1577930523173,4181920.0,4516108.0,0.0
1577930523216,4182298.0,4528176.0,0.0
1577930523262,4204789.0,4554770.0,0.0
1577930523311,4227976.0,4573234.0,0.0
1577930523363,4231273.0,4562273.0,0.0
1577930523410,4241517.0,4571530.0,0.0
1577930523461,4267003.0,4614296.0,0.0
1577930523507,4281784.0,4625594.0,0.0
1577930523562,4269813.0,4612599.0,0.0
1577930523604,4256306.0,4594984.0,0.0
1577930523652,4257296.0,4607620.0,0.0
1577930523710,4267615.0,4633327.0,0.0
1577930523753,4282959.0,4653661.0,0.0
1577930523809,4324124.0,4674996.0,0.0
1577930523855,4334199.0,4691795.0,0.0
1577930523905,4331154.0,4665874.0,0.0
1577930523955,4304820.0,4653651.0,0.0
1577930524001,4303471.0,4654624.0,0.0
1577930524052,4305710.0,4671953.0,0.0
1577930524093,4341749.0,4702957.0,0.0
1577930524149,4371104.0,4741562.0,0.0
1577930524194,4397521.0,4771364.0,0.0
1577930524248,4430717.0,4815874.0,0.0
1577930524295,4441010.0,4835870.0,0.0
1577930524343,4429157.0,4851407.0,0.0
1577930524393,4415508.0,4855933.0,0.0
1577930524434,4406891.0,4877797.0,0.0
1577930524491,4416304.0,4848487.0,0.0
1577930524532,4416162.0,4831449.0,0.0
1577930524589,4457622.0,4844424.0,0.0
1577930524636,4494559.0,4883740.0,0.0
1577930524686,4553409.0,4920005.0,0.0
1577930524734,4538089.0,4925283.0,0.0
1577930524777,4510128.0,4928182.0,0.0
1577930524832,4497865.0,4944075.0,0.0
1577930524873,4509651.0,4953967.0,0.0
1577930524930,4516354.0,4962289.0,0.0
1577930524975,4545330.0,4981207.0,0.0
1577930525018,4553266.0,4965237.0,0.0
1577930525066,4541689.0,4961154.0,0.0
1577930525116,4536488.0,4948776.0,0.0
1577930525164,4529676.0,4950345.0,0.0
1577930525213,4509466.0,4935763.0,0.0
1577930525264,4509190.0,4929300.0,0.0
1577930525313,4509549.0,4936754.0,0.0
1577930525370,4504584.0,4969571.0,0.0
1577930525417,4529365.0,5003302.0,0.0
1577930525463,4541186.0,5016787.0,0.0
1577930525514,4573072.0,5026486.0,0.0
1577930525562,4550639.0,5005403.0,0.0
1577930525605,4519826.0,4960893.0,0.0
1577930525653,4515364.0,4930320.0,0.0
1577930525710,4522955.0,4927286.0,0.0
1577930525756,4532670.0,4940387.0,0.0
1577930525807,4555741.0,4956529.0,0.0
1577930525856,4577107.0,4981843.0,0.0
1577930525906,4601679.0,5026631.0,0.0
1577930525953,4599984.0,5029396.0,0.0
1577930525994,4606705.0,5041050.0,0.0
1577930526045,4605362.0,5041542.0,0.0
1577930526098,4611612.0,5045566.0,0.0
1577930526149,4597410.0,5014215.0,0.0
1577930526198,4580002.0,4989336.0,0.0
1577930526244,4579297.0,4990963.0,0.0
1577930526294,4590874.0,5011980.0,0.0
1577930526344,4628701.0,5032313.0,0.0
1577930526391,4614229.0,5032043.0,0.0
1577930526435,4603298.0,5020418.0,0.0
1577930526490,4616588.0,5022606.0,0.0
1577930526537,4627527.0,5031688.0,0.0
1577930526587,4652316.0,5050538.0,0.0
1577930526637,4680588.0,5073664.0,0.0
1577930526684,4680529.0,5055248.0,0.0
1577930526729,4682006.0,5052696.0,0.0
1577930526776,4671888.0,5040396.0,0.0
1577930526832,4664850.0,5038526.0,0.0
1577930526877,4662032.0,5064937.0,0.0
1577930526931,4675998.0,5099459.0,0.0
1577930526978,4689068.0,5116391.0,0.0
1577930527018,4691443.0,5139364.0,0.0
1577930527075,4714774.0,5188612.0,0.0
1577930527117,4729085.0,5197194.0,0.0
1577930527173,4725394.0,5181706.0,0.0
1577930527216,4695235.0,5161892.0,0.0
1577930527270,4663742.0,5138669.0,0.0
1577930527319,4669354.0,5124376.0,0.0
1577930527366,4666435.0,5122844.0,0.0
1577930527415,4687719.0,5146664.0,0.0
1577930527459,4712919.0,5199573.0,0.0
1577930527514,4736091.0,5248753.0,0.0
1577930527555,4767492.0,5279577.0,0.0
1577930527605,4747314.0,5274973.0,0.0
1577930527658,4737978.0,5254688.0,0.0
1577930527710,4731493.0,5234663.0,0.0
1577930527751,4717962.0,5197464.0,0.0
1577930527799,4704824.0,5154610.0,0.0
1577930527846,4697216.0,5145132.0,0.0
1577930527897,4727868.0,5166910.0,0.0
1577930527948,4755462.0,5187880.0,0.0
1577930527999,4730930.0,5177679.0,0.0
1577930528045,4706098.0,5171506.0,0.0
1577930528100,4739059.0,5216276.0,0.0
1577930528147,4774739.0,5235356.0,0.0
1577930528196,4761299.0,5232130.0,0.0
1577930528238,4796509.0,5242051.0,0.0
1577930528295,4760116.0,5189922.0,0.0
1577930528341,4767299.0,5189093.0,0.0
1577930528391,4770117.0,5179645.0,0.0
1577930528441,4760856.0,5173885.0,0.0
1577930528488,4747660.0,5155506.0,0.0
1577930528538,4736190.0,5138929.0,0.0
1577930528581,4736719.0,5133017.0,0.0
1577930528637,4741510.0,5133527.0,0.0
1577930528678,4743448.0,5162134.0,0.0
1577930528724,4804874.0,5190278.0,0.0
1577930528779,4853412.0,5202838.0,0.0
1577930528831,4792131.0,5163115.0,0.0
1577930528880,4753934.0,5149622.0,0.0
1577930528927,4727123.0,5151433.0,0.0
1577930528976,4724380.0,5167181.0,0.0
1577930529019,4748808.0,5203425.0,0.0
1577930529069,4762542.0,5216660.0,0.0
1577930529118,4788238.0,5237678.0,0.0
1577930529166,4833966.0,5266092.0,0.0
1577930529216,4900987.0,5315610.0,0.0
1577930529269,4906315.0,5329576.0,0.0
1577930529319,4884721.0,5308338.0,0.0
1577930529364,4871206.0,5279817.0,0.0
1577930529416,4843723.0,5269126.0,0.0
1577930529462,4835795.0,5266919.0,0.0
1577930529513,4834948.0,5262297.0,0.0
1577930529562,4862691.0,5284016.0,0.0
1577930529605,4886432.0,5284961.0,0.0
1577930529660,4836551.0,5262817.0,0.0
1577930529706,4834143.0,5264195.0,0.0
1577930529758,4834974.0,5268219.0,0.0
1577930529800,4847347.0,5268605.0,0.0
1577930529855,4838749.0,5244806.0,0.0
1577930529901,4837650.0,5217875.0,0.0
1577930529952,4844318.0,5222074.0,0.0
1577930530001,4858538.0,5247002.0,0.0
1577930530048,4850074.0,5246336.0,0.0
1577930530098,4848975.0,5241088.0,0.0
1577930530140,4839377.0,5227536.0,0.0
1577930530196,4828556.0,5225695.0,0.0
1577930530241,4823875.0,5230742.0,0.0
1577930530294,4822456.0,5240279.0,0.0
1577930530343,4833068.0,5223375.0,0.0
1577930530390,4823480.0,5219657.0,0.0
1577930530440,4842934.0,5211940.0,0.0
1577930530481,4811416.0,5202606.0,0.0
1577930530537,4802582.0,5201383.0,0.0
1577930530581,4803992.0,5201249.0,0.0
1577930530635,4825711.0,5222718.0,0.0
1577930530682,4844017.0,5236329.0,0.0
1577930530732,4855048.0,5248310.0,0.0
1577930530782,4882767.0,5280877.0,0.0
1577930530823,4906532.0,5303261.0,0.0
1577930530878,4910768.0,5295248.0,0.0
1577930530920,4892322.0,5271245.0,0.0
1577930530976,4867155.0,5255304.0,0.0
1577930531023,4865643.0,5256970.0,0.0
1577930531074,4867691.0,5257183.0,0.0
1577930531116,4942480.0,5292367.0,0.0
1577930531162,4997286.0,5354408.0,0.0
1577930531221,5059122.0,5406382.0,0.0
1577930531261,5206639.0,5424394.0,0.0
1577930531318,5156380.0,5406112.0,0.0
1577930531362,5108008.0,5395130.0,0.0
1577930531414,5087711.0,5369307.0,0.0
1577930531467,5067245.0,5349313.0,0.0
1577930531509,5064813.0,5340923.0,0.0
1577930531561,5084546.0,5352490.0,0.0
1577930531602,5087689.0,5384285.0,0.0
1577930531658,5100578.0,5397481.0,0.0
1577930531702,5093975.0,5391152.0,0.0
1577930531755,5083278.0,5386347.0,0.0
1577930531801,5074369.0,5395555.0,0.0
1577930531846,5065358.0,5370772.0,0.0
1577930531896,5045095.0,5325608.0,0.0
1577930531942,5045308.0,5331069.0,0.0
1577930531993,5059535.0,5333487.0,0.0
1577930532044,5039691.0,5327485.0,0.0
1577930532091,5019812.0,5325088.0,0.0
1577930532144,5016827.0,5333168.0,0.0
1577930532188,5032917.0,5343331.0,0.0
1577930532237,5042460.0,5351661.0,0.0
1577930532285,5072459.0,5373257.0,0.0
1577930532334,5068273.0,5375626.0,0.0
1577930532384,5081549.0,5371436.0,0.0
1577930532433,5094666.0,5381599.0,0.0
1577930532484,5050522.0,5344130.0,0.0
1577930532529,5025353.0,5312518.0,0.0
1577930532580,4999663.0,5289652.0,0.0
1577930532626,4990063.0,5286406.0,0.0
1577930532676,4993907.0,5294264.0,0.0
1577930532725,5001494.0,5303686.0,0.0
1577930532773,5012914.0,5320502.0,0.0
1577930532826,5041182.0,5335606.0,0.0
1577930532876,5047141.0,5317950.0,0.0
1577930532926,5004401.0,5286223.0,0.0
1577930532969,4971507.0,5261612.0,0.0
1577930533023,4963695.0,5259629.0,0.0
1577930533064,4975227.0,5280030.0,0.0
1577930533113,4980926.0,5301430.0,0.0
1577930533164,5007408.0,5324875.0,0.0
1577930533219,5059443.0,5361536.0,0.0
1577930533266,5097244.0,5406496.0,0.0
1577930533313,5133889.0,5427793.0,0.0
1577930533359,5131515.0,5430875.0,0.0
1577930533406,5110844.0,5398542.0,0.0
1577930533454,5093512.0,5382176.0,0.0
1577930533504,5092370.0,5378633.0,0.0
1577930533554,5093014.0,5378960.0,0.0
1577930533604,5122277.0,5404830.0,0.0
1577930533652,5165346.0,5433033.0,0.0
1577930533708,5268240.0,5490960.0,0.0
1577930533752,5208380.0,5468363.0,0.0
1577930533805,5176427.0,5463190.0,0.0
1577930533845,5170874.0,5466120.0,0.0
1577930533902,5163526.0,5466900.0,0.0
1577930533945,5148363.0,5446981.0,0.0
1577930533999,5170129.0,5457208.0,0.0
1577930534047,5204762.0,5491076.0,0.0
1577930534092,5252908.0,5531625.0,0.0
1577930534142,5276923.0,5559289.0,0.0
1577930534189,5263187.0,5556496.0,0.0
1577930534240,5245795.0,5559230.0,0.0
1577930534293,5232249.0,5564972.0,0.0
1577930534342,5250578.0,5574767.0,0.0
1577930534384,5242776.0,5592933.0,0.0
1577930534439,5275081.0,5598443.0,0.0
1577930534487,5321565.0,5601968.0,0.0
1577930534527,5315968.0,5588291.0,0.0
1577930534577,5296247.0,5584765.0,0.0
1577930534627,5277716.0,5585690.0,0.0
1577930534679,5270310.0,5601361.0,0.0
1577930534727,5265560.0,5611166.0,0.0
1577930534777,5264453.0,5621715.0,0.0
1577930534825,5288322.0,5628312.0,0.0
1577930534873,5290583.0,5632377.0,0.0
1577930534927,5334682.0,5641931.0,0.0
1577930534974,5291759.0,5596160.0,0.0
1577930535023,5268217.0,5570212.0,0.0
1577930535072,5244653.0,5561100.0,0.0
1577930535116,5245649.0,5566610.0,0.0
1577930535163,5248170.0,5578949.0,0.0
1577930535221,5271814.0,5594426.0,0.0
1577930535271,5287271.0,5605445.0,0.0
1577930535318,5337825.0,5623293.0,0.0
1577930535363,5294214.0,5600379.0,0.0
1577930535408,5265765.0,5589658.0,0.0
1577930535465,5249052.0,5570356.0,0.0
1577930535505,5240663.0,5554580.0,0.0
1577930535562,5226020.0,5547028.0,0.0
1577930535607,5230396.0,5553664.0,0.0
1577930535660,5269666.0,5576039.0,0.0
1577930535709,5285642.0,5604020.0,0.0
1577930535756,5286479.0,5608604.0,0.0
1577930535803,5287745.0,5599628.0,0.0
1577930535853,5282645.0,5593232.0,0.0
1577930535903,5270219.0,5601034.0,0.0
1577930535945,5267041.0,5580113.0,0.0
1577930536002,5256175.0,5574989.0,0.0
1577930536051,5274731.0,5587500.0,0.0
1577930536098,5294937.0,5609124.0,0.0
1577930536145,5336829.0,5618391.0,0.0
1577930536193,5296339.0,5613584.0,0.0
1577930536241,5266419.0,5619951.0,0.0
1577930536290,5258392.0,5634245.0,0.0
1577930536344,5264205.0,5647268.0,0.0
1577930536391,5270739.0,5668516.0,0.0
1577930536440,5293716.0,5679400.0,0.0
1577930536485,5300431.0,5691922.0,0.0
1577930536529,5353461.0,5761513.0,0.0
1577930536578,5338650.0,5743150.0,0.0
1577930536626,5322435.0,5732522.0,0.0
1577930536685,5309228.0,5739962.0,0.0
1577930536726,5312089.0,5747187.0,0.0
1577930536781,5315900.0,5753134.0,0.0
1577930536831,5334942.0,5773442.0,0.0
1577930536870,5334749.0,5788413.0,0.0
1577930536925,5311829.0,5752456.0,0.0
1577930536969,5260155.0,5699754.0,0.0
1577930537023,5247865.0,5669508.0,0.0
1577930537067,5266375.0,5665300.0,0.0
1577930537116,5251709.0,5652547.0,0.0
1577930537173,5266736.0,5668693.0,0.0
1577930537219,5264542.0,5669054.0,0.0
1577930537267,5276879.0,5675318.0,0.0
1577930537316,5295038.0,5695977.0,0.0
1577930537362,5285686.0,5690843.0,0.0
1577930537412,5268569.0,5635890.0,0.0
1577930537464,5225205.0,5576517.0,0.0
1577930537509,5199697.0,5531176.0,0.0
1577930537561,5176155.0,5514148.0,0.0
1577930537609,5182409.0,5539612.0,0.0
1577930537659,5237054.0,5571124.0,0.0
1577930537704,5291725.0,5608529.0,0.0
1577930537753,5263412.0,5588933.0,0.0
1577930537802,5225975.0,5582860.0,0.0
1577930537848,5215469.0,5583618.0,0.0
1577930537903,5212157.0,5580135.0,0.0
1577930537954,5207895.0,5554899.0,0.0
1577930537999,5198577.0,5525591.0,0.0
1577930538048,5208945.0,5534998.0,0.0
1577930538096,5223578.0,5552717.0,0.0
1577930538143,5226800.0,5556311.0,0.0
1577930538186,5199154.0,5530453.0,0.0
1577930538244,5172469.0,5503847.0,0.0
1577930538291,5166273.0,5490086.0,0.0
1577930538334,5157193.0,5498103.0,0.0
1577930538391,5140843.0,5463503.0,0.0
1577930538437,5151811.0,5436253.0,0.0
1577930538491,5141623.0,5428632.0,0.0
1577930538530,5127545.0,5423713.0,0.0
1577930538582,5099899.0,5423780.0,0.0
1577930538629,5095491.0,5430712.0,0.0
1577930538684,5105859.0,5445219.0,0.0
1577930538732,5109217.0,5464746.0,0.0
1577930538781,5127434.0,5480791.0,0.0
1577930538827,5140390.0,5486433.0,0.0
1577930538869,5137722.0,5474346.0,0.0
1577930538922,5113809.0,5437033.0,0.0
1577930538974,5074651.0,5395874.0,0.0
1577930539024,5055282.0,5370955.0,0.0
1577930539074,5039339.0,5367324.0,0.0
1577930539114,5027852.0,5375589.0,0.0
1577930539163,5030475.0,5393533.0,0.0
1577930539210,5058844.0,5408709.0,0.0
1577930539263,5072367.0,5421531.0,0.0
1577930539311,5082792.0,5427478.0,0.0
1577930539361,5033380.0,5398578.0,0.0
1577930539409,5006752.0,5378145.0,0.0
1577930539463,5003406.0,5369632.0,0.0
1577930539513,4992981.0,5369033.0,0.0
1577930539559,5003146.0,5389588.0,0.0
1577930539610,5027941.0,5410507.0,0.0
1577930539655,5064011.0,5437214.0,0.0
1577930539705,5081843.0,5444835.0,0.0
1577930539752,5051505.0,5429187.0,0.0
1577930539802,5024426.0,5404944.0,0.0
1577930539854,4986150.0,5367552.0,0.0
1577930539900,4951653.0,5331774.0,0.0
1577930539952,4926110.0,5316510.0,0.0
1577930539990,4925793.0,5316770.0,0.0
1577930540049,4925612.0,5326687.0,0.0
1577930540090,4932419.0,5334974.0,0.0
1577930540142,4927737.0,5336931.0,0.0
1577930540193,4927274.0,5330395.0,0.0
1577930540242,4942583.0,5336807.0,0.0
1577930540291,4939836.0,5326925.0,0.0
1577930540333,4914702.0,5291962.0,0.0
1577930540390,4911026.0,5274855.0,0.0
1577930540430,4920218.0,5287417.0,0.0
1577930540479,4945298.0,5316760.0,0.0
1577930540530,4934467.0,5320547.0,0.0
1577930540578,4919732.0,5324720.0,0.0
1577930540623,4905904.0,5309828.0,0.0
1577930540676,4901109.0,5314702.0,0.0
1577930540725,4888435.0,5318206.0,0.0
1577930540771,4888626.0,5321914.0,0.0
1577930540827,4879118.0,5302660.0,0.0
1577930540872,4870298.0,5297322.0,0.0
1577930540925,4863288.0,5288988.0,0.0
1577930540973,4840990.0,5287814.0,0.0
1577930541021,4868173.0,5293795.0,0.0
1577930541072,4867403.0,5295796.0,0.0
1577930541114,4875046.0,5305587.0,0.0
1577930541170,4889102.0,5320163.0,0.0
1577930541210,4918083.0,5337518.0,0.0
1577930541265,4908720.0,5346858.0,0.0
1577930541313,4897560.0,5335269.0,0.0
1577930541362,4881345.0,5318330.0,0.0
1577930541413,4876844.0,5317528.0,0.0
1577930541458,4869235.0,5324934.0,0.0
1577930541511,4875227.0,5337496.0,0.0
1577930541551,4886072.0,5351371.0,0.0
1577930541608,4909171.0,5367460.0,0.0
1577930541652,4936297.0,5394643.0,0.0
1577930541703,5014101.0,5412666.0,0.0
1577930541754,4966341.0,5394484.0,0.0
1577930541800,4945434.0,5387056.0,0.0
1577930541851,4944381.0,5385268.0,0.0
1577930541891,4952116.0,5399121.0,0.0
1577930541949,4954762.0,5408686.0,0.0
1577930541992,4972129.0,5434376.0,0.0
1577930542044,5027161.0,5460224.0,0.0
1577930542095,5058730.0,5493953.0,0.0
1577930542144,5033358.0,5469903.0,0.0
1577930542193,5006175.0,5452377.0,0.0
1577930542237,4975091.0,5432035.0,0.0
1577930542291,4972436.0,5431787.0,0.0
1577930542331,4969077.0,5433957.0,0.0
1577930542389,4983539.0,5441477.0,0.0
1577930542435,5102287.0,5495037.0,0.0
1577930542485,5137507.0,5512122.0,0.0
1577930542535,5139011.0,5501846.0,0.0
1577930542582,5088174.0,5489814.0,0.0
1577930542625,5065878.0,5485630.0,0.0
1577930542678,5057509.0,5478983.0,0.0
1577930542724,5048080.0,5471780.0,0.0
1577930542773,5058064.0,5471656.0,0.0
1577930542827,5106515.0,5500590.0,0.0
1577930542875,5142641.0,5542857.0,0.0
1577930542924,5165277.0,5552784.0,0.0
1577930542972,5177591.0,5545106.0,0.0
1577930543019,5167855.0,5539147.0,0.0
1577930543071,5168217.0,5549200.0,0.0
1577930543113,5174696.0,5564633.0,0.0
1577930543169,5178993.0,5559964.0,0.0
1577930543215,5220467.0,5581131.0,0.0
1577930543265,5237723.0,5585676.0,0.0
1577930543313,5258347.0,5594949.0,0.0
1577930543360,5188423.0,5565403.0,0.0
1577930543411,5163865.0,5562112.0,0.0
1577930543453,5166917.0,5558200.0,0.0
1577930543511,5167506.0,5566850.0,0.0
1577930543555,5167798.0,5573589.0,0.0
1577930543604,5180328.0,5575318.0,0.0
1577930543656,5210246.0,5578235.0,0.0
1577930543703,5225272.0,5589928.0,0.0
1577930543752,5200375.0,5563412.0,0.0
1577930543794,5184331.0,5544643.0,0.0
1577930543851,5162520.0,5540595.0,0.0
1577930543894,5161195.0,5553552.0,0.0
1577930543950,5165029.0,5557193.0,0.0
1577930543995,5179209.0,5566963.0,0.0
1577930544040,5233438.0,5587937.0,0.0
1577930544091,5252693.0,5571768.0,0.0
1577930544142,5194664.0,5532737.0,0.0
1577930544191,5162134.0,5505519.0,0.0
1577930544233,5158901.0,5503689.0,0.0
1577930544288,5154921.0,5513321.0,0.0
1577930544336,5161094.0,5527738.0,0.0
1577930544389,5168682.0,5527285.0,0.0
1577930544437,5185857.0,5540006.0,0.0
1577930544484,5198894.0,5548871.0,0.0
1577930544534,5176641.0,5522401.0,0.0
1577930544576,5157182.0,5467064.0,0.0
1577930544624,5120546.0,5432216.0,0.0
1577930544674,5117472.0,5428360.0,0.0
1577930544720,5125804.0,5432409.0,0.0
1577930544768,5124301.0,5444201.0,0.0
1577930544818,5141182.0,5457657.0,0.0
1577930544866,5163570.0,5463344.0,0.0
1577930544917,5140301.0,5458517.0,0.0
1577930544966,5127942.0,5458494.0,0.0
1577930545015,5123250.0,5442505.0,0.0
1577930545065,5118151.0,5420038.0,0.0
1577930545116,5110641.0,5408223.0,0.0
1577930545163,5111716.0,5406876.0,0.0
1577930545216,5141906.0,5428654.0,0.0
1577930545262,5169745.0,5468162.0,0.0
1577930545318,5160427.0,5484840.0,0.0
1577930545354,5158020.0,5478009.0,0.0
1577930545411,5141680.0,5468070.0,0.0
1577930545457,5138084.0,5457781.0,0.0
1577930545499,5112915.0,5404615.0,0.0
1577930545557,5101279.0,5378643.0,0.0
1577930545601,5104209.0,5425466.0,0.0
1577930545649,5130327.0,5472583.0,0.0
1577930545698,5126901.0,5477930.0,0.0
1577930545746,5115741.0,5487010.0,0.0
1577930545795,5119280.0,5508335.0,0.0
1577930545850,5135914.0,5535597.0,0.0
1577930545898,5139949.0,5542721.0,0.0
1577930545940,5158109.0,5536954.0,0.0
1577930545995,5172514.0,5520536.0,0.0
1577930546042,5184048.0,5529853.0,0.0
1577930546093,5183177.0,5532407.0,0.0
1577930546137,5160145.0,5518411.0,0.0
1577930546190,5142698.0,5508528.0,0.0
1577930546239,5135179.0,5507228.0,0.0
1577930546286,5136286.0,5509806.0,0.0
1577930546336,5144031.0,5515810.0,0.0
1577930546378,5161297.0,5511139.0,0.0
1577930546424,5161163.0,5479163.0,0.0
1577930546476,5199459.0,5454854.0,0.0
1577930546522,5186637.0,5442121.0,0.0
1577930546571,5117110.0,5433459.0,0.0
1577930546623,5068377.0,5464226.0,0.0
1577930546678,5073430.0,5522956.0,0.0
1577930546718,5069100.0,5533121.0,0.0
1577930546765,5076370.0,5568863.0,0.0
1577930546815,5125827.0,5583347.0,0.0
1577930546866,5146248.0,5596328.0,0.0
1577930546915,5131335.0,5550069.0,0.0
1577930546965,5109512.0,5512452.0,0.0
1577930547013,5086173.0,5477841.0,0.0
1577930547064,5088107.0,5478609.0,0.0
1577930547115,5087496.0,5479367.0,0.0
1577930547158,5086433.0,5484704.0,0.0
1577930547213,5093128.0,5494371.0,0.0
1577930547259,5098951.0,5484229.0,0.0
1577930547301,5101053.0,5474289.0,0.0
1577930547350,5070908.0,5434172.0,0.0
1577930547399,5056956.0,5395829.0,0.0
1577930547449,5047547.0,5376914.0,0.0
1577930547500,5046066.0,5376958.0,0.0
1577930547549,5047198.0,5383946.0,0.0
1577930547598,5080261.0,5404830.0,0.0
1577930547646,5101167.0,5437734.0,0.0
1577930547695,5125816.0,5455396.0,0.0
1577930547748,5099471.0,5437598.0,0.0
1577930547798,5078676.0,5381469.0,0.0
1577930547840,5049108.0,5332465.0,0.0
1577930547894,5037179.0,5301629.0,0.0
1577930547939,5022910.0,5290684.0,0.0
1577930547989,5022819.0,5315267.0,0.0
1577930548042,5030881.0,5346486.0,0.0
1577930548087,5051257.0,5332341.0,0.0
1577930548140,5025601.0,5317122.0,0.0
1577930548184,5028055.0,5325805.0,0.0
1577930548236,5053858.0,5348228.0,0.0
1577930548279,5062666.0,5352059.0,0.0
1577930548333,5061185.0,5326405.0,0.0
1577930548380,5051394.0,5319009.0,0.0
1577930548429,5066827.0,5340493.0,0.0
1577930548480,5071010.0,5392585.0,0.0
1577930548523,5069643.0,5407681.0,0.0
1577930548577,5060268.0,5408144.0,0.0
1577930548619,5050160.0,5398759.0,0.0
1577930548674,5053450.0,5398294.0,0.0
1577930548721,5045885.0,5370388.0,0.0
1577930548770,5021880.0,5310043.0,0.0
1577930548821,5003936.0,5286625.0,0.0
1577930548861,5014170.0,5298226.0,0.0
1577930548918,5029888.0,5305949.0,0.0
1577930548961,4993139.0,5288775.0,0.0
1577930549016,4984647.0,5287021.0,0.0
1577930549061,4989813.0,5288492.0,0.0
1577930549112,4993546.0,5294744.0,0.0
1577930549161,5004355.0,5307499.0,0.0
1577930549207,5016114.0,5277941.0,0.0
1577930549258,5006073.0,5255747.0,0.0
1577930549301,5004050.0,5244552.0,0.0
1577930549356,4984817.0,5224007.0,0.0
1577930549401,4961377.0,5200081.0,0.0
1577930549454,4961444.0,5204390.0,0.0
1577930549507,4953835.0,5213728.0,0.0
1577930549546,4954831.0,5228960.0,0.0
1577930549600,4991024.0,5252693.0,0.0
1577930549650,5008392.0,5273069.0,0.0
1577930549697,5014158.0,5230045.0,0.0
1577930549742,4952659.0,5175318.0,0.0
1577930549793,4933753.0,5161455.0,0.0
1577930549846,4932475.0,5163266.0,0.0
1577930549890,4943806.0,5174775.0,0.0
1577930549941,4956153.0,5193658.0,0.0
1577930549981,4990232.0,5208425.0,0.0
1577930550030,5012020.0,5247526.0,0.0
1577930550084,5019146.0,5244428.0,0.0
1577930550135,4996790.0,5174775.0,0.0
1577930550182,4941726.0,5095230.0,0.0
1577930550231,4906278.0,5067052.0,0.0
1577930550282,4897639.0,5065843.0,0.0
1577930550323,4889419.0,5072583.0,0.0
1577930550378,4910167.0,5096439.0,0.0
1577930550423,4939871.0,5123238.0,0.0
1577930550477,4931074.0,5109160.0,0.0
1577930550525,4914204.0,5112360.0,0.0
1577930550574,4919643.0,5116454.0,0.0
1577930550615,4921870.0,5098408.0,0.0
1577930550663,4900047.0,5048508.0,0.0
1577930550713,4896260.0,5020162.0,0.0
1577930550761,4927806.0,5038581.0,0.0
1577930550813,4937122.0,5084942.0,0.0
1577930550861,4940537.0,5096541.0,0.0
1577930550906,4924730.0,5072006.0,0.0
1577930550964,4910868.0,5057985.0,0.0
1577930551005,4893647.0,5063560.0,0.0
1577930551062,4885552.0,5071711.0,0.0
1577930551104,4851744.0,5024008.0,0.0
1577930551159,4867833.0,4996349.0,0.0
1577930551204,4922016.0,5016701.0,0.0
1577930551255,4922447.0,5019077.0,0.0
1577930551305,4884217.0,5013434.0,0.0
1577930551347,4862858.0,5014284.0,0.0
1577930551403,4874109.0,5038717.0,0.0
1577930551444,4886241.0,5073623.0,0.0
1577930551499,4891769.0,5089306.0,0.0
1577930551545,4909726.0,5074990.0,0.0
1577930551597,4883346.0,5026110.0,0.0
1577930551646,4837733.0,4981526.0,0.0
1577930551688,4810461.0,4952173.0,0.0
1577930551744,4796871.0,4954242.0,0.0
1577930551785,4807578.0,4975975.0,0.0
1577930551842,4814780.0,4998351.0,0.0
1577930551884,4821948.0,5028518.0,0.0
1577930551930,4855306.0,5068726.0,0.0
1577930551986,4923215.0,5076528.0,0.0
1577930552029,4874561.0,5035958.0,0.0
1577930552082,4824878.0,4985325.0,0.0
1577930552133,4790934.0,4955904.0,0.0
1577930552183,4790030.0,4964792.0,0.0
1577930552224,4806469.0,4995896.0,0.0
1577930552280,4821485.0,5023622.0,0.0
1577930552323,4853371.0,5041521.0,0.0
1577930552368,4865141.0,5066126.0,0.0
1577930552422,4857758.0,5057239.0,0.0
1577930552471,4835348.0,5027082.0,0.0
1577930552524,4792935.0,4967539.0,0.0
1577930552565,4768828.0,4933946.0,0.0
1577930552622,4755734.0,4925838.0,0.0
1577930552665,4765017.0,4941828.0,0.0
1577930552719,4814848.0,4989848.0,0.0
1577930552764,4875702.0,5049697.0,0.0
1577930552809,4885924.0,5049085.0,0.0
1577930552859,4846407.0,5037633.0,0.0
1577930552906,4842199.0,5036726.0,0.0
1577930552956,4846778.0,5048533.0,0.0
1577930553004,4829582.0,5015346.0,0.0
1577930553052,4814689.0,4985563.0,0.0
1577930553102,4837778.0,4990403.0,0.0
1577930553147,4849040.0,5025477.0,0.0
1577930553200,4847152.0,5027671.0,0.0
1577930553247,4830689.0,5007465.0,0.0
1577930553296,4810597.0,4996553.0,0.0
1577930553345,4813547.0,5010608.0,0.0
1577930553394,4814407.0,5024357.0,0.0
1577930553445,4818149.0,5027399.0,0.0
1577930553491,4842766.0,5014237.0,0.0
1577930553541,4923056.0,5021858.0,0.0
1577930553588,4880780.0,4990866.0,0.0
1577930553639,4829186.0,4960914.0,0.0
1577930553689,4806684.0,4957114.0,0.0
1577930553743,4809986.0,4966385.0,0.0
1577930553790,4823623.0,4978440.0,0.0
1577930553839,4826709.0,4984827.0,0.0
1577930553884,4850816.0,5000013.0,0.0
1577930553927,4852366.0,4998351.0,0.0
1577930553982,4810315.0,4948532.0,0.0
1577930554027,4762756.0,4884069.0,0.0
1577930554082,4728224.0,4850996.0,0.0
1577930554126,4723746.0,4861129.0,0.0
1577930554179,4727149.0,4888886.0,0.0
1577930554230,4745683.0,4917833.0,0.0
1577930554268,4793693.0,4950410.0,0.0
1577930554323,4827534.0,4955564.0,0.0
1577930554372,4785552.0,4934454.0,0.0
1577930554424,4756221.0,4923487.0,0.0
1577930554465,4734510.0,4896983.0,0.0
1577930554523,4712338.0,4869111.0,0.0
1577930554570,4698374.0,4859794.0,0.0
1577930554612,4710755.0,4880339.0,0.0
1577930554664,4733210.0,4908911.0,0.0
1577930554713,4764090.0,4952726.0,0.0
1577930554762,4764259.0,4957872.0,0.0
1577930554807,4754909.0,4955091.0,0.0
1577930554862,4745591.0,4958053.0,0.0
1577930554903,4736060.0,4952456.0,0.0
1577930554950,4701279.0,4921337.0,0.0
1577930555000,4698713.0,4921813.0,0.0
1577930555049,4727840.0,4955893.0,0.0
1577930555099,4765334.0,4986682.0,0.0
1577930555147,4737056.0,4992619.0,0.0
1577930555199,4735020.0,4999844.0,0.0
1577930555244,4744122.0,5015064.0,0.0
1577930555291,4756729.0,5033675.0,0.0
1577930555342,4782724.0,5061908.0,0.0
1577930555392,4810709.0,5070084.0,0.0
1577930555442,4809161.0,5072459.0,0.0
1577930555489,4806830.0,5071441.0,0.0
1577930555536,4780316.0,5061252.0,0.0
1577930555587,4758087.0,5053167.0,0.0
1577930555634,4759996.0,5066646.0,0.0
1577930555688,4764984.0,5088266.0,0.0
1577930555733,4772809.0,5110257.0,0.0
1577930555783,4820536.0,5140561.0,0.0
1577930555827,4882657.0,5178213.0,0.0
1577930555877,4896485.0,5169089.0,0.0
1577930555925,4840458.0,5142223.0,0.0
1577930555975,4803608.0,5123860.0,0.0
1577930556025,4807769.0,5139610.0,0.0
1577930556081,4822491.0,5164757.0,0.0
1577930556125,4832294.0,5191464.0,0.0
1577930556177,4862531.0,5218409.0,0.0
1577930556219,4866669.0,5237441.0,0.0
1577930556266,4876257.0,5260381.0,0.0
1577930556317,4873543.0,5258075.0,0.0
1577930556365,4866308.0,5250974.0,0.0
1577930556412,4843375.0,5231752.0,0.0
1577930556465,4826731.0,5224029.0,0.0
1577930556511,4828111.0,5230848.0,0.0
1577930556566,4839464.0,5254389.0,0.0
1577930556615,4858075.0,5282340.0,0.0
1577930556662,4868477.0,5286400.0,0.0
1577930556707,4845015.0,5294575.0,0.0
1577930556765,4845966.0,5300715.0,0.0
1577930556809,4861637.0,5310677.0,0.0
1577930556860,4879026.0,5316567.0,0.0
1577930556906,4895175.0,5328111.0,0.0
1577930556956,4920252.0,5336344.0,0.0
1577930557004,4926065.0,5354888.0,0.0
1577930557048,4943693.0,5377048.0,0.0
1577930557105,4923158.0,5380520.0,0.0
1577930557150,4893511.0,5384590.0,0.0
1577930557201,4892810.0,5392709.0,0.0
1577930557251,4889904.0,5399324.0,0.0
1577930557298,4892245.0,5394497.0,0.0
1577930557347,4900116.0,5373815.0,0.0
1577930557394,4880881.0,5379061.0,0.0
1577930557441,4885506.0,5376721.0,0.0
1577930557492,4846858.0,5373023.0,0.0
1577930557543,4832442.0,5378462.0,0.0
1577930557592,4851947.0,5385981.0,0.0
1577930557633,4858278.0,5396577.0,0.0
1577930557687,4882578.0,5420253.0,0.0
1577930557729,4893986.0,5420580.0,0.0
1577930557784,4905847.0,5427716.0,0.0
1577930557830,4899685.0,5407475.0,0.0
1577930557883,4861830.0,5387688.0,0.0
1577930557933,4834104.0,5360223.0,0.0
1577930557979,4823940.0,5357070.0,0.0
1577930558030,4819449.0,5365640.0,0.0
1577930558074,4819360.0,5375364.0,0.0
1577930558122,4846157.0,5399233.0,0.0
1577930558169,4865810.0,5424436.0,0.0
1577930558221,4868024.0,5424154.0,0.0
1577930558271,4846067.0,5409149.0,0.0
1577930558320,4836037.0,5388208.0,0.0
1577930558371,4835586.0,5371520.0,0.0
1577930558411,4845163.0,5377615.0,0.0
1577930558469,4884455.0,5401211.0,0.0
1577930558509,4919314.0,5443569.0,0.0
1577930558564,4989125.0,5504920.0,0.0
1577930558611,5007916.0,5536796.0,0.0
1577930558664,5034081.0,5561762.0,0.0
1577930558712,5013999.0,5562270.0,0.0
1577930558757,5013050.0,5560789.0,0.0
1577930558810,5006425.0,5556742.0,0.0
1577930558849,5037813.0,5577004.0,0.0
1577930558903,5029162.0,5614736.0,0.0
1577930558951,5039351.0,5623781.0,0.0
1577930559001,5025647.0,5613921.0,0.0
1577930559048,5026348.0,5631256.0,0.0
1577930559100,5031391.0,5639159.0,0.0
1577930559146,5042787.0,5645015.0,0.0
1577930559190,5068478.0,5652794.0,0.0
1577930559242,5086094.0,5650399.0,0.0
1577930559291,5112949.0,5652750.0,0.0
1577930559342,5140142.0,5675014.0,0.0
1577930559393,5150138.0,5674313.0,0.0
1577930559440,5122277.0,5659365.0,0.0
1577930559491,5092278.0,5638412.0,0.0
1577930559532,5081990.0,5627276.0,0.0
1577930559590,5070423.0,5616522.0,0.0
1577930559630,5068942.0,5614825.0,0.0
1577930559679,5112303.0,5635167.0,0.0
1577930559734,5164984.0,5635338.0,0.0
1577930559782,5095818.0,5589725.0,0.0
1577930559833,5045841.0,5563684.0,0.0
1577930559878,5022470.0,5558166.0,0.0
1577930559931,5022289.0,5566126.0,0.0
1577930559970,5027896.0,5572356.0,0.0
1577930560027,5044677.0,5586627.0,0.0
1577930560073,5075974.0,5605441.0,0.0
1577930560120,5100749.0,5627694.0,0.0
1577930560172,5081402.0,5619078.0,0.0
1577930560219,5063513.0,5584058.0,0.0
1577930560271,5025149.0,5547934.0,0.0
1577930560311,5003203.0,5533415.0,0.0
1577930560369,4994360.0,5524459.0,0.0
1577930560410,4998192.0,5522582.0,0.0
1577930560465,5089554.0,5601631.0,0.0
1577930560516,5196395.0,5672470.0,0.0
1577930560560,5147436.0,5631809.0,0.0
1577930560612,5116454.0,5618161.0,0.0
1577930560661,5095298.0,5593354.0,0.0
1577930560711,5094485.0,5579706.0,0.0
1577930560750,5075646.0,5575476.0,0.0
1577930560808,5090482.0,5585076.0,0.0
1577930560853,5135236.0,5617076.0,0.0
1577930560901,5169111.0,5656232.0,0.0
1577930560953,5140018.0,5628044.0,0.0
1577930560997,5128779.0,5606855.0,0.0
1577930561042,5105091.0,5581854.0,0.0
1577930561091,5096858.0,5571882.0,0.0
1577930561144,5074696.0,5546034.0,0.0
1577930561191,5072288.0,5524053.0,0.0
1577930561237,5105542.0,5543625.0,0.0
1577930561311,5168422.0,5591025.0,0.0
1577930561363,5104682.0,5557036.0,0.0
1577930561435,5068422.0,5540935.0,0.0
1577930561452,5056583.0,5527523.0,0.0
1577930561489,5044496.0,5525489.0,0.0
1577930561539,5039453.0,5531503.0,0.0
1577930561584,5053123.0,5550455.0,0.0
1577930561632,5088367.0,5557227.0,0.0
1577930561675,5122255.0,5579751.0,0.0
1577930561729,5063763.0,5534884.0,0.0
1577930561779,5019178.0,5549086.0,0.0
1577930561828,5022480.0,5564747.0,0.0
1577930561871,5044043.0,5605430.0,0.0
1577930561926,5026190.0,5604774.0,0.0
1577930561976,5037563.0,5616725.0,0.0
1577930562016,5067144.0,5614543.0,0.0
1577930562071,5179897.0,5683132.0,0.0
1577930562115,5148113.0,5646124.0,0.0
1577930562169,5117945.0,5630498.0,0.0
1577930562216,5093896.0,5611073.0,0.0
1577930562266,5074019.0,5605542.0,0.0
1577930562315,5079094.0,5607035.0,0.0
1577930562363,5093071.0,5614193.0,0.0
1577930562411,5110495.0,5627003.0,0.0
1577930562462,5131877.0,5640200.0,0.0
1577930562509,5112870.0,5629604.0,0.0
1577930562557,5066091.0,5558540.0,0.0
1577930562607,5010631.0,5487270.0,0.0
1577930562656,4969246.0,5430113.0,0.0
1577930562705,4944587.0,5392936.0,0.0
1577930562752,4931311.0,5390764.0,0.0
1577930562803,4948961.0,5413627.0,0.0
1577930562850,4984466.0,5425184.0,0.0
1577930562899,4928371.0,5401348.0,0.0
1577930562948,4910268.0,5393342.0,0.0
1577930562997,4906424.0,5381820.0,0.0
1577930563046,4891826.0,5349506.0,0.0
1577930563095,4890051.0,5311118.0,0.0
1577930563139,4862248.0,5269575.0,0.0
1577930563191,4870909.0,5274617.0,0.0
1577930563242,4866905.0,5266194.0,0.0
1577930563289,4838265.0,5230600.0,0.0
1577930563334,4815447.0,5190810.0,0.0
1577930563386,4801755.0,5171315.0,0.0
1577930563439,4787722.0,5160257.0,0.0
1577930563485,4743115.0,5085801.0,0.0
1577930563535,4690379.0,5018138.0,0.0
1577930563583,4661445.0,5005576.0,0.0
1577930563630,4666046.0,5018930.0,0.0
1577930563673,4664610.0,5030950.0,0.0
1577930563728,4677658.0,5043840.0,0.0
1577930563778,4698227.0,5042505.0,0.0
1577930563826,4694066.0,5035235.0,0.0
1577930563868,4712712.0,5052637.0,0.0
1577930563916,4708992.0,5040855.0,0.0
1577930563971,4703325.0,5004503.0,0.0
1577930564015,4695263.0,4990799.0,0.0
1577930564069,4670220.0,4986693.0,0.0
1577930564113,4659907.0,4983810.0,0.0
1577930564167,4652275.0,4979401.0,0.0
1577930564216,4635733.0,4959071.0,0.0
1577930564264,4626143.0,4955745.0,0.0
1577930564311,4618680.0,4960111.0,0.0
1577930564363,4643624.0,4990222.0,0.0
1577930564410,4668546.0,5004265.0,0.0
1577930564454,4680848.0,4970841.0,0.0
1577930564507,4607510.0,4919031.0,0.0
1577930564559,4585833.0,4904173.0,0.0
1577930564606,4580349.0,4908787.0,0.0
1577930564655,4607101.0,4929367.0,0.0
1577930564704,4632905.0,4962021.0,0.0
1577930564752,4657781.0,4994710.0,0.0
1577930564800,4707204.0,5022368.0,0.0
1577930564850,4773306.0,5107533.0,0.0
1577930564900,4748781.0,5078180.0,0.0
1577930564947,4704444.0,5026596.0,0.0
1577930564996,4658505.0,4989838.0,0.0
1577930565045,4642064.0,4983686.0,0.0
1577930565093,4646678.0,4996089.0,0.0
1577930565143,4643025.0,5011785.0,0.0
1577930565191,4654264.0,5027421.0,0.0
1577930565236,4697888.0,5038616.0,0.0
1577930565288,4655057.0,5014804.0,0.0
1577930565340,4638740.0,4994564.0,0.0
1577930565386,4619641.0,4963388.0,0.0
1577930565435,4600104.0,4935596.0,0.0
1577930565484,4592075.0,4924617.0,0.0
1577930565532,4609115.0,4934432.0,0.0
1577930565580,4632464.0,4955272.0,0.0
1577930565627,4654331.0,4987654.0,0.0
1577930565678,4642584.0,4987812.0,0.0
1577930565727,4616917.0,4962598.0,0.0
1577930565776,4590764.0,4942370.0,0.0
1577930565825,4555034.0,4909907.0,0.0
1577930565873,4528428.0,4896881.0,0.0
1577930565924,4523284.0,4894915.0,0.0
1577930565970,4569845.0,4924448.0,0.0
1577930566020,4647265.0,4961048.0,0.0
1577930566068,4636647.0,4954581.0,0.0
1577930566116,4607158.0,4971542.0,0.0
1577930566161,4679151.0,4982611.0,0.0
1577930566207,4657373.0,4987282.0,0.0
1577930566259,4674923.0,4987054.0,0.0
1577930566304,4638829.0,4949764.0,0.0
1577930566355,4630824.0,4939792.0,0.0
1577930566404,4637982.0,4947594.0,0.0
1577930566458,4634827.0,4954638.0,0.0
1577930566507,4618953.0,4949560.0,0.0
1577930566557,4616657.0,4949652.0,0.0
1577930566602,4613241.0,4944280.0,0.0
1577930566647,4601043.0,4939170.0,0.0
1577930566701,4617301.0,4942415.0,0.0
1577930566750,4596983.0,4923158.0,0.0
1577930566792,4587440.0,4914734.0,0.0
1577930566841,4690052.0,4955735.0,0.0
1577930566889,4631084.0,4958526.0,0.0
1577930566939,4615267.0,4956706.0,0.0
1577930566993,4612575.0,4948295.0,0.0
1577930567042,4617018.0,4949877.0,0.0
1577930567090,4633244.0,4957590.0,0.0
1577930567143,4654524.0,4978811.0,0.0
1577930567188,4647649.0,4974910.0,0.0
1577930567237,4621169.0,4954796.0,0.0
1577930567286,4567596.0,4919608.0,0.0
1577930567334,4567302.0,4915549.0,0.0
1577930567382,4581865.0,4913909.0,0.0
1577930567431,4583844.0,4916577.0,0.0
1577930567482,4586172.0,4919145.0,0.0
1577930567529,4593885.0,4931118.0,0.0
1577930567578,4594698.0,4931311.0,0.0
1577930567628,4594009.0,4931096.0,0.0
1577930567676,4563807.0,4915730.0,0.0
1577930567721,4539678.0,4902422.0,0.0
1577930567773,4546598.0,4898001.0,0.0
1577930567821,4549357.0,4896451.0,0.0
1577930567871,4566296.0,4909783.0,0.0
1577930567920,4584704.0,4920842.0,0.0
1577930567962,4616441.0,4948634.0,0.0
1577930568016,4651166.0,4980689.0,0.0
1577930568066,4663931.0,4994100.0,0.0
1577930568114,4628349.0,4968681.0,0.0
1577930568163,4593397.0,4940391.0,0.0
1577930568210,4580939.0,4928857.0,0.0
1577930568262,4580565.0,4930125.0,0.0
1577930568309,4577286.0,4932985.0,0.0
1577930568357,4602410.0,4951812.0,0.0
1577930568406,4683708.0,5003032.0,0.0
1577930568455,4765809.0,5023463.0,0.0
1577930568504,4715154.0,5014633.0,0.0
1577930568553,4702569.0,5019530.0,0.0
1577930568602,4696632.0,5013605.0,0.0
1577930568645,4702976.0,5009013.0,0.0
1577930568699,4715548.0,5018341.0,0.0
1577930568746,4724628.0,5028880.0,0.0
1577930568795,4751912.0,5049313.0,0.0
1577930568848,4764519.0,5065900.0,0.0
1577930568893,4752591.0,5067800.0,0.0
1577930568946,4737021.0,5064521.0,0.0
1577930568990,4722106.0,5052263.0,0.0
1577930569040,4703360.0,5038638.0,0.0
1577930569089,4685574.0,5023599.0,0.0
1577930569137,4702795.0,5027953.0,0.0
1577930569185,4879536.0,5126324.0,0.0
1577930569229,4838355.0,5147684.0,0.0
1577930569287,4946328.0,5192155.0,0.0
1577930569327,4924515.0,5177807.0,0.0
1577930569382,4887688.0,5177829.0,0.0
1577930569425,4873600.0,5179253.0,0.0
1577930569479,4873352.0,5182986.0,0.0
1577930569521,4852998.0,5170366.0,0.0
1577930569577,4877161.0,5189215.0,0.0
1577930569633,4881062.0,5198045.0,0.0
1577930569673,4875306.0,5196304.0,0.0
1577930569724,4849741.0,5191363.0,0.0
1577930569770,4836049.0,5179684.0,0.0
1577930569820,4831492.0,5188876.0,0.0
1577930569863,4836851.0,5197131.0,0.0
1577930569916,4836943.0,5195253.0,0.0
1577930569968,4879422.0,5203360.0,0.0
1577930570014,4894925.0,5208923.0,0.0
1577930570065,4918546.0,5206221.0,0.0
1577930570111,4875046.0,5187486.0,0.0
1577930570160,4849877.0,5181572.0,0.0
1577930570208,4853755.0,5180881.0,0.0
1577930570253,4853146.0,5188740.0,0.0
1577930570301,4867279.0,5202647.0,0.0
1577930570355,4888423.0,5220096.0,0.0
1577930570407,4896700.0,5217324.0,0.0
1577930570452,4903846.0,5215855.0,0.0
1577930570503,4879638.0,5213502.0,0.0
1577930570544,4872344.0,5202117.0,0.0
1577930570599,4850488.0,5193874.0,0.0
1577930570642,4852217.0,5200318.0,0.0
1577930570696,4852252.0,5213797.0,0.0
1577930570747,4861637.0,5222751.0,0.0
1577930570793,4897221.0,5243083.0,0.0
1577930570843,4930373.0,5249911.0,0.0
1577930570890,4918422.0,5232725.0,0.0
1577930570940,4876710.0,5215945.0,0.0
1577930570983,4865956.0,5204445.0,0.0
1577930571038,4870909.0,5200499.0,0.0
1577930571085,4880859.0,5205904.0,0.0
1577930571135,4903462.0,5222741.0,0.0
1577930571183,4920661.0,5237203.0,0.0
1577930571224,4931730.0,5254570.0,0.0
1577930571281,4948148.0,5276257.0,0.0
1577930571327,4929830.0,5256718.0,0.0
1577930571379,4906006.0,5227692.0,0.0
1577930571421,4889565.0,5207521.0,0.0
1577930571476,4895943.0,5212541.0,0.0
1577930571526,4897798.0,5220071.0,0.0
1577930571573,4902828.0,5237508.0,0.0
1577930571622,4910472.0,5245750.0,0.0
1577930571671,4913592.0,5240571.0,0.0
1577930571719,4900532.0,5240096.0,0.0
1577930571764,4908606.0,5229931.0,0.0
1577930571816,4917493.0,5208212.0,0.0
1577930571868,4920344.0,5193512.0,0.0
1577930571913,4921937.0,5191080.0,0.0
1577930571956,4929072.0,5191533.0,0.0
1577930572011,4952783.0,5210020.0,0.0
1577930572061,4969608.0,5236455.0,0.0
1577930572107,4979378.0,5249369.0,0.0
1577930572158,4960936.0,5237564.0,0.0
1577930572209,4954536.0,5198295.0,0.0
1577930572255,4928698.0,5168603.0,0.0
1577930572304,4920354.0,5149505.0,0.0
1577930572352,4917946.0,5149809.0,0.0
1577930572403,4933573.0,5171543.0,0.0
1577930572447,4964746.0,5199504.0,0.0
1577930572499,4964555.0,5201292.0,0.0
1577930572550,4948644.0,5194914.0,0.0
1577930572596,4930724.0,5191182.0,0.0
1577930572646,4935688.0,5191102.0,0.0
1577930572693,4940537.0,5184759.0,0.0
1577930572743,4938977.0,5176326.0,0.0
1577930572790,4943512.0,5173554.0,0.0
1577930572840,4994868.0,5202196.0,0.0
1577930572884,5023611.0,5277909.0,0.0
1577930572937,5022955.0,5269359.0,0.0
1577930572989,5021440.0,5255588.0,0.0
1577930573034,5012711.0,5251031.0,0.0
1577930573083,4991183.0,5269495.0,0.0
1577930573132,4992335.0,5264735.0,0.0
1577930573183,4990232.0,5244032.0,0.0
1577930573224,5033234.0,5246746.0,0.0
1577930573279,5099290.0,5293523.0,0.0
1577930573329,5164316.0,5329367.0,0.0
1577930573376,5118138.0,5306345.0,0.0
1577930573426,5065900.0,5299098.0,0.0
1577930573475,5053620.0,5302263.0,0.0
1577930573523,5048974.0,5309285.0,0.0
1577930573569,5043963.0,5310642.0,0.0
1577930573621,5064407.0,5306187.0,0.0
1577930573666,5118862.0,5332047.0,0.0
1577930573717,5187823.0,5379141.0,0.0
1577930573770,5166002.0,5366838.0,0.0
1577930573810,5127682.0,5350048.0,0.0
1577930573860,5098780.0,5340064.0,0.0
1577930573912,5095332.0,5343512.0,0.0
1577930573962,5096259.0,5355068.0,0.0
1577930574006,5099708.0,5354603.0,0.0
1577930574058,5176957.0,5369144.0,0.0
1577930574109,5227184.0,5384320.0,0.0
1577930574156,5267212.0,5385189.0,0.0
1577930574205,5189408.0,5354898.0,0.0
1577930574254,5163389.0,5348374.0,0.0
1577930574302,5159127.0,5361286.0,0.0
1577930574344,5155679.0,5372503.0,0.0
1577930574400,5156955.0,5392912.0,0.0
1577930574449,5213074.0,5436659.0,0.0
1577930574490,5234998.0,5466579.0,0.0
1577930574548,5234149.0,5442212.0,0.0
1577930574594,5195264.0,5393501.0,0.0
1577930574644,5176506.0,5373746.0,0.0
1577930574685,5157883.0,5375589.0,0.0
1577930574742,5162496.0,5396429.0,0.0
1577930574791,5159320.0,5415346.0,0.0
1577930574838,5180712.0,5434896.0,0.0
1577930574888,5211387.0,5465957.0,0.0
1577930574936,5234964.0,5445501.0,0.0
1577930574984,5176596.0,5389147.0,0.0
1577930575030,5151382.0,5361751.0,0.0
1577930575082,5141611.0,5348057.0,0.0
1577930575126,5131560.0,5355192.0,0.0
1577930575180,5132848.0,5369382.0,0.0
1577930575231,5155395.0,5397288.0,0.0
1577930575270,5193150.0,5419054.0,0.0
1577930575325,5200512.0,5456741.0,0.0
1577930575375,5153123.0,5426450.0,0.0
1577930575424,5129683.0,5371780.0,0.0
1577930575465,5110844.0,5332837.0,0.0
1577930575522,5100657.0,5326541.0,0.0
1577930575572,5089938.0,5335415.0,0.0
1577930575617,5103790.0,5349741.0,0.0
1577930575667,5167776.0,5382658.0,0.0
1577930575715,5197118.0,5394846.0,0.0
1577930575765,5158528.0,5374289.0,0.0
1577930575806,5114329.0,5352196.0,0.0
1577930575865,5085675.0,5317065.0,0.0
1577930575911,5074334.0,5292143.0,0.0
1577930575960,5062247.0,5283301.0,0.0
1577930576008,5067946.0,5296869.0,0.0
1577930576052,5092833.0,5321213.0,0.0
1577930576105,5110552.0,5349097.0,0.0
1577930576153,5101472.0,5363153.0,0.0
1577930576204,5084511.0,5353134.0,0.0
1577930576249,5083369.0,5351031.0,0.0
1577930576300,5074210.0,5328384.0,0.0
1577930576348,5066465.0,5298137.0,0.0
1577930576397,5071248.0,5301166.0,0.0
1577930576446,5119043.0,5333642.0,0.0
1577930576495,5150240.0,5357793.0,0.0
1577930576544,5102772.0,5340233.0,0.0
1577930576591,5065650.0,5334806.0,0.0
1577930576642,5061501.0,5336738.0,0.0
1577930576693,5066193.0,5347740.0,0.0
1577930576739,5073633.0,5352523.0,0.0
1577930576787,5072853.0,5332183.0,0.0
1577930576837,5090651.0,5325748.0,0.0
1577930576884,5088548.0,5351936.0,0.0
1577930576932,5109534.0,5373565.0,0.0
1577930576982,5082420.0,5362497.0,0.0
1577930577031,5075986.0,5354004.0,0.0
1577930577081,5068501.0,5360936.0,0.0
1577930577128,5071089.0,5374583.0,0.0
1577930577178,5070795.0,5372696.0,0.0
1577930577226,5087768.0,5353711.0,0.0
1577930577268,5126867.0,5382081.0,0.0
1577930577326,5116172.0,5367574.0,0.0
1577930577370,5057182.0,5341917.0,0.0
1577930577421,5041521.0,5337067.0,0.0
1577930577469,5056595.0,5350115.0,0.0
1577930577519,5058301.0,5356448.0,0.0
1577930577567,5063627.0,5379445.0,0.0
1577930577616,5083369.0,5374075.0,0.0
1577930577660,5120444.0,5371587.0,0.0
1577930577709,5135585.0,5398861.0,0.0
1577930577763,5125918.0,5419790.0,0.0
1577930577814,5106379.0,5414678.0,0.0
1577930577861,5089068.0,5418240.0,0.0
1577930577908,5082205.0,5443139.0,0.0
1577930577957,5088377.0,5494723.0,0.0
1577930578006,5113910.0,5524843.0,0.0
1577930578049,5149131.0,5525997.0,0.0
1577930578105,5151687.0,5495446.0,0.0
1577930578154,5105021.0,5464194.0,0.0
1577930578202,5062688.0,5450851.0,0.0
1577930578249,5060731.0,5459478.0,0.0
1577930578300,5071914.0,5468840.0,0.0
1577930578347,5088174.0,5474403.0,0.0
1577930578395,5093896.0,5480248.0,0.0
1577930578444,5110314.0,5491114.0,0.0
1577930578491,5122775.0,5495738.0,0.0
1577930578543,5091691.0,5448771.0,0.0
1577930578595,5053529.0,5395797.0,0.0
1577930578641,5020659.0,5366816.0,0.0
1577930578689,5003654.0,5370841.0,0.0
1577930578739,5001437.0,5366046.0,0.0
1577930578787,5004976.0,5382068.0,0.0
1577930578839,5058889.0,5434896.0,0.0
1577930578886,5129547.0,5484783.0,0.0
1577930578931,5117606.0,5468172.0,0.0
1577930578976,5082160.0,5439114.0,0.0
1577930579030,5055451.0,5414804.0,0.0
1577930579081,5035540.0,5404141.0,0.0
1577930579128,5030294.0,5415233.0,0.0
1577930579178,5047842.0,5434715.0,0.0
1577930579226,5099221.0,5471666.0,0.0
1577930579270,5129728.0,5506775.0,0.0
1577930579324,5135914.0,5521643.0,0.0
1577930579373,5117098.0,5498408.0,0.0
1577930579422,5100625.0,5477739.0,0.0
1577930579468,5087022.0,5472605.0,0.0
1577930579519,5079954.0,5463287.0,0.0
1577930579568,5077014.0,5466500.0,0.0
1577930579610,5127818.0,5499889.0,0.0
1577930579661,5167506.0,5525376.0,0.0
1577930579717,5192064.0,5518116.0,0.0
1577930579762,5128338.0,5482849.0,0.0
1577930579810,5089328.0,5474549.0,0.0
1577930579860,5071146.0,5450985.0,0.0
1577930579908,5042064.0,5409489.0,0.0
1577930579954,5022559.0,5393263.0,0.0
1577930580003,5040459.0,5395128.0,0.0
1577930580051,5051416.0,5415143.0,0.0
1577930580097,5053767.0,5422457.0,0.0
1577930580145,5033415.0,5414735.0,0.0
1577930580203,5017561.0,5393422.0,0.0
1577930580244,5003438.0,5399279.0,0.0
1577930580298,4971564.0,5362373.0,0.0
1577930580347,4938977.0,5330521.0,0.0
1577930580394,4996384.0,5361026.0,0.0
1577930580438,5073680.0,5407475.0,0.0
1577930580486,5096712.0,5409511.0,0.0
1577930580538,5018918.0,5389226.0,0.0
1577930580587,4996045.0,5375488.0,0.0
1577930580637,5000691.0,5382091.0,0.0
1577930580684,5006933.0,5392676.0,0.0
1577930580732,4998747.0,5378757.0,0.0
1577930580786,4980825.0,5351348.0,0.0
1577930580838,4983527.0,5357352.0,0.0
1577930580883,4979864.0,5361751.0,0.0
1577930580931,4959874.0,5349335.0,0.0
1577930580982,4945162.0,5339566.0,0.0
1577930581029,4945909.0,5355497.0,0.0
1577930581078,4952151.0,5355576.0,0.0
1577930581125,4941273.0,5393206.0,0.0
1577930581176,4991579.0,5388718.0,0.0
1577930581225,4932985.0,5336196.0,0.0
1577930581267,4894687.0,5301743.0,0.0
1577930581322,4857126.0,5280249.0,0.0
1577930581369,4849505.0,5279311.0,0.0
1577930581420,4859477.0,5285562.0,0.0
1577930581467,4868884.0,5296609.0,0.0
1577930581517,4876359.0,5300002.0,0.0
1577930581567,4893488.0,5307838.0,0.0
1577930581613,4887586.0,5300849.0,0.0
1577930581658,4857646.0,5255090.0,0.0
1577930581711,4811851.0,5205091.0,0.0
1577930581761,4788106.0,5171214.0,0.0
1577930581809,4768952.0,5173589.0,0.0
1577930581852,4764950.0,5194756.0,0.0
1577930581907,4784071.0,5214090.0,0.0
1577930581958,4806696.0,5222186.0,0.0
1577930582004,4829151.0,5238922.0,0.0
1577930582052,4802117.0,5193230.0,0.0
1577930582103,4751912.0,5142968.0,0.0
1577930582149,4745569.0,5110133.0,0.0
1577930582200,4735721.0,5093093.0,0.0
1577930582248,4747593.0,5100521.0,0.0
1577930582298,4749448.0,5111942.0,0.0
1577930582346,4744100.0,5105668.0,0.0
1577930582396,4741782.0,5135008.0,0.0
1577930582445,4733143.0,5130532.0,0.0
1577930582491,4722277.0,5106007.0,0.0
1577930582543,4693036.0,5045898.0,0.0
1577930582590,4665254.0,5009082.0,0.0
1577930582635,4643488.0,4997412.0,0.0
1577930582687,4635924.0,4997650.0,0.0
1577930582739,4674606.0,5030712.0,0.0
1577930582779,4733866.0,5063424.0,0.0
1577930582833,4707171.0,5035631.0,0.0
1577930582884,4669710.0,5023691.0,0.0
1577930582930,4671676.0,5015074.0,0.0
1577930582974,4649390.0,4969654.0,0.0
1577930583028,4625962.0,4934286.0,0.0
1577930583080,4631820.0,4937508.0,0.0
1577930583122,4650871.0,4950274.0,0.0
1577930583174,4670264.0,4991579.0,0.0
1577930583224,4684647.0,5012020.0,0.0
1577930583272,4666804.0,4990098.0,0.0
1577930583323,4657227.0,4980486.0,0.0
1577930583370,4653303.0,4980396.0,0.0
1577930583416,4637756.0,4944587.0,0.0
1577930583468,4628575.0,4928768.0,0.0
1577930583515,4692053.0,4954863.0,0.0
1577930583567,4813592.0,5018997.0,0.0
1577930583614,4858979.0,5030916.0,0.0
1577930583660,4797084.0,5018376.0,0.0
1577930583711,4774052.0,5024335.0,0.0
1577930583763,4771565.0,5035201.0,0.0
1577930583809,4775657.0,5046519.0,0.0
1577930583859,4770501.0,5037090.0,0.0
1577930583908,4795095.0,5045378.0,0.0
1577930583957,4804207.0,5062269.0,0.0
1577930584005,4798396.0,5084432.0,0.0
1577930584051,4778902.0,5072583.0,0.0
1577930584103,4766340.0,5071191.0,0.0
1577930584150,4767075.0,5088887.0,0.0
1577930584198,4769609.0,5104253.0,0.0
1577930584248,4774255.0,5110381.0,0.0
1577930584297,4813458.0,5103813.0,0.0
1577930584347,4845773.0,5103835.0,0.0
1577930584397,4831390.0,5086138.0,0.0
1577930584445,4787439.0,5081571.0,0.0
1577930584492,4779593.0,5084489.0,0.0
1577930584538,4791781.0,5098441.0,0.0
1577930584590,4801302.0,5116566.0,0.0
1577930584641,4820400.0,5135993.0,0.0
1577930584688,4863967.0,5169314.0,0.0
1577930584737,4855237.0,5184601.0,0.0
1577930584786,4829173.0,5190629.0,0.0
1577930584835,4822198.0,5181368.0,0.0
1577930584879,4817324.0,5195298.0,0.0
1577930584930,4821384.0,5203553.0,0.0
1577930584981,4823883.0,5206820.0,0.0
1577930585022,4820977.0,5218818.0,0.0
1577930585073,4860562.0,5239001.0,0.0
1577930585120,4890741.0,5255464.0,0.0
1577930585175,4905860.0,5235132.0,0.0
1577930585223,4846010.0,5207080.0,0.0
1577930585272,4845423.0,5199821.0,0.0
1577930585322,4850771.0,5210867.0,0.0
1577930585369,4864532.0,5223318.0,0.0
1577930585418,4882407.0,5238310.0,0.0
1577930585463,4900624.0,5255623.0,0.0
1577930585513,4959341.0,5297887.0,0.0
1577930585562,4975681.0,5349969.0,0.0
1577930585610,4922514.0,5304604.0,0.0
1577930585660,4913627.0,5272131.0,0.0
1577930585704,4894484.0,5268807.0,0.0
1577930585759,4888842.0,5294880.0,0.0
1577930585809,4885483.0,5297909.0,0.0
1577930585858,4902558.0,5308324.0,0.0
1577930585907,5014373.0,5358075.0,0.0
1577930585954,5056130.0,5367606.0,0.0
1577930585999,4985665.0,5336354.0,0.0
1577930586052,4956379.0,5314734.0,0.0
1577930586099,4948102.0,5302568.0,0.0
1577930586149,4943534.0,5301223.0,0.0
1577930586199,4958640.0,5316929.0,0.0
1577930586247,4970942.0,5326573.0,0.0
1577930586295,4986534.0,5345265.0,0.0
1577930586344,4997922.0,5353033.0,0.0
1577930586393,4978631.0,5346769.0,0.0
1577930586441,4969258.0,5348780.0,0.0
1577930586490,4962757.0,5337100.0,0.0
1577930586540,4958177.0,5328609.0,0.0
1577930586588,4950420.0,5327376.0,0.0
1577930586630,5003834.0,5355983.0,0.0
1577930586683,5058391.0,5382137.0,0.0
1577930586729,5078631.0,5388436.0,0.0
1577930586780,5024402.0,5370083.0,0.0
1577930586826,5000387.0,5365097.0,0.0
1577930586883,4992211.0,5363130.0,0.0
1577930586929,4991589.0,5362779.0,0.0
1577930586978,4990358.0,5359150.0,0.0
1577930587026,5014306.0,5367133.0,0.0
1577930587075,5053474.0,5393432.0,0.0
1577930587120,5066363.0,5414747.0,0.0
1577930587172,5034443.0,5397593.0,0.0
1577930587222,5025962.0,5384862.0,0.0
1577930587269,5013627.0,5393082.0,0.0
1577930587320,5013967.0,5401100.0,0.0
1577930587362,5014859.0,5392347.0,0.0
1577930587416,5085878.0,5404615.0,0.0
1577930587466,5134602.0,5429977.0,0.0
1577930587514,5124098.0,5413774.0,0.0
1577930587568,5062304.0,5402219.0,0.0
1577930587611,5044484.0,5389476.0,0.0
1577930587661,5042267.0,5393828.0,0.0
1577930587704,5044620.0,5406514.0,0.0
1577930587758,5058755.0,5415765.0,0.0
1577930587802,5073566.0,5420909.0,0.0
1577930587856,5082871.0,5411693.0,0.0
1577930587907,5100454.0,5421994.0,0.0
1577930587952,5069088.0,5411354.0,0.0
1577930588003,5061219.0,5401823.0,0.0
1577930588048,5048543.0,5404672.0,0.0
1577930588099,5050500.0,5413209.0,0.0
1577930588141,5057430.0,5428508.0,0.0
1577930588196,5106797.0,5454502.0,0.0
1577930588248,5229626.0,5545750.0,0.0
1577930588293,5304151.0,5583766.0,0.0
1577930588346,5268636.0,5541103.0,0.0
1577930588390,5232453.0,5516442.0,0.0
1577930588440,5190131.0,5499912.0,0.0
1577930588483,5183132.0,5513289.0,0.0
1577930588536,5176019.0,5518354.0,0.0
1577930588582,5176380.0,5524992.0,0.0
1577930588635,5184195.0,5532204.0,0.0
1577930588686,5232430.0,5547255.0,0.0
1577930588731,5204311.0,5503689.0,0.0
1577930588782,5175296.0,5474121.0,0.0
1577930588828,5154614.0,5439691.0,0.0
1577930588879,5139374.0,5427909.0,0.0
1577930588921,5132013.0,5426710.0,0.0
1577930588976,5129673.0,5422866.0,0.0
1577930589027,5159895.0,5443557.0,0.0
1577930589066,5194337.0,5473227.0,0.0
1577930589116,5216477.0,5460055.0,0.0
1577930589164,5160155.0,5409036.0,0.0
1577930589214,5124922.0,5376144.0,0.0
1577930589268,5118829.0,5362202.0,0.0
1577930589317,5121507.0,5367720.0,0.0
1577930589364,5122876.0,5375522.0,0.0
1577930589414,5136841.0,5393184.0,0.0
1577930589468,5167652.0,5423713.0,0.0
1577930589511,5222877.0,5481051.0,0.0
1577930589563,5183427.0,5445105.0,0.0
1577930589609,5179660.0,5408075.0,0.0
1577930589659,5151620.0,5378440.0,0.0
1577930589702,5129537.0,5376394.0,0.0
1577930589756,5132194.0,5377162.0,0.0
1577930589806,5139679.0,5390222.0,0.0
1577930589853,5190424.0,5430779.0,0.0
1577930589903,5235405.0,5463153.0,0.0
1577930589951,5223182.0,5438638.0,0.0
1577930590001,5187588.0,5416431.0,0.0
1577930590044,5145344.0,5386863.0,0.0
1577930590098,5134703.0,5363232.0,0.0
1577930590144,5119721.0,5355430.0,0.0
1577930590195,5120999.0,5357939.0,0.0
1577930590249,5147741.0,5383448.0,0.0
1577930590293,5190731.0,5425749.0,0.0
1577930590342,5241973.0,5473204.0,0.0
1577930590390,5212214.0,5447243.0,0.0
1577930590440,5209522.0,5408686.0,0.0
1577930590484,5171283.0,5373328.0,0.0
1577930590530,5158109.0,5353372.0,0.0
1577930590583,5159850.0,5353541.0,0.0
1577930590630,5171803.0,5387507.0,0.0
1577930590681,5240425.0,5446304.0,0.0
1577930590727,5288039.0,5474584.0,0.0
1577930590778,5272502.0,5463255.0,0.0
1577930590829,5232262.0,5446611.0,0.0
1577930590878,5211422.0,5445615.0,0.0
1577930590926,5204356.0,5437281.0,0.0
1577930590975,5200125.0,5439351.0,0.0
1577930591024,5204683.0,5447604.0,0.0
1577930591066,5260269.0,5487270.0,0.0
1577930591120,5308923.0,5536117.0,0.0
1577930591169,5345989.0,5556085.0,0.0
1577930591220,5299663.0,5530282.0,0.0
1577930591266,5302184.0,5526505.0,0.0
1577930591316,5272084.0,5509262.0,0.0
1577930591369,5257443.0,5477162.0,0.0
1577930591413,5249357.0,5463084.0,0.0
1577930591464,5275489.0,5478022.0,0.0
1577930591511,5267720.0,5486242.0,0.0
1577930591562,5311286.0,5507533.0,0.0
1577930591603,5254332.0,5478530.0,0.0
1577930591652,5240391.0,5480395.0,0.0
1577930591705,5243556.0,5489747.0,0.0
1577930591751,5269981.0,5501437.0,0.0
1577930591801,5257780.0,5478044.0,0.0
1577930591849,5248284.0,5464407.0,0.0
1577930591902,5275205.0,5480813.0,0.0
1577930591948,5321112.0,5540335.0,0.0
1577930592000,5271192.0,5493997.0,0.0
1577930592046,5266952.0,5468885.0,0.0
1577930592097,5235913.0,5454547.0,0.0
1577930592146,5227942.0,5457826.0,0.0
1577930592195,5218557.0,5443183.0,0.0
1577930592244,5202421.0,5408302.0,0.0
1577930592292,5238198.0,5423624.0,0.0
1577930592342,5287688.0,5457952.0,0.0
1577930592385,5270999.0,5451834.0,0.0
1577930592438,5229096.0,5449482.0,0.0
1577930592491,5208053.0,5445784.0,0.0
1577930592535,5198317.0,5444360.0,0.0
1577930592586,5199719.0,5457432.0,0.0
1577930592633,5202795.0,5466014.0,0.0
1577930592677,5208539.0,5452828.0,0.0
1577930592724,5236366.0,5486195.0,0.0
1577930592780,5314249.0,5556707.0,0.0
1577930592831,5288391.0,5576732.0,0.0
1577930592877,5280260.0,5559273.0,0.0
1577930592926,5272864.0,5589747.0,0.0
1577930592975,5281629.0,5603779.0,0.0
1577930593024,5274561.0,5598159.0,0.0
1577930593070,5264453.0,5624856.0,0.0
1577930593118,5296621.0,5666704.0,0.0
1577930593167,5315707.0,5660314.0,0.0
1577930593219,5315301.0,5655113.0,0.0
1577930593270,5285733.0,5622129.0,0.0
1577930593316,5256527.0,5608517.0,0.0
1577930593365,5240663.0,5604536.0,0.0
1577930593414,5228836.0,5605329.0,0.0
1577930593462,5235959.0,5612700.0,0.0
1577930593505,5257545.0,5611761.0,0.0
1577930593561,5268014.0,5604864.0,0.0
1577930593609,5311898.0,5620933.0,0.0
1577930593657,5258109.0,5564860.0,0.0
1577930593707,5242122.0,5534817.0,0.0
1577930593755,5202104.0,5520321.0,0.0
1577930593804,5197819.0,5513390.0,0.0
1577930593850,5200725.0,5512248.0,0.0
1577930593902,5204457.0,5519303.0,0.0
1577930593948,5239363.0,5514339.0,0.0
1577930593999,5260393.0,5499233.0,0.0
1577930594047,5236660.0,5463436.0,0.0
1577930594096,5186535.0,5434896.0,0.0
1577930594145,5157046.0,5423374.0,0.0
1577930594194,5142755.0,5433652.0,0.0
1577930594243,5144744.0,5463830.0,0.0
1577930594288,5158788.0,5485653.0,0.0
1577930594340,5170332.0,5492494.0,0.0
1577930594390,5187451.0,5489883.0,0.0
1577930594437,5212009.0,5488412.0,0.0
1577930594480,5153710.0,5434601.0,0.0
1577930594535,5136603.0,5404288.0,0.0
1577930594585,5107362.0,5401528.0,0.0
1577930594629,5107013.0,5413209.0,0.0
1577930594678,5109432.0,5416974.0,0.0
1577930594732,5116984.0,5427411.0,0.0
1577930594772,5171724.0,5457328.0,0.0
1577930594827,5233572.0,5470785.0,0.0
1577930594871,5187541.0,5407183.0,0.0
1577930594919,5120083.0,5365595.0,0.0
1577930594967,5075330.0,5342913.0,0.0
1577930595019,5062846.0,5348713.0,0.0
1577930595067,5062891.0,5368332.0,0.0
1577930595116,5074064.0,5393749.0,0.0
1577930595164,5108833.0,5426720.0,0.0
1577930595210,5170027.0,5485076.0,0.0
1577930595266,5190912.0,5481650.0,0.0
1577930595313,5134094.0,5394574.0,0.0
1577930595365,5086693.0,5338288.0,0.0
1577930595409,5053246.0,5333233.0,0.0
1577930595461,5048238.0,5340696.0,0.0
1577930595505,5052885.0,5349912.0,0.0
1577930595559,5071746.0,5363470.0,0.0
1577930595607,5151550.0,5431708.0,0.0
1577930595657,5225352.0,5438197.0,0.0
1577930595704,5199425.0,5367200.0,0.0
1577930595747,5132848.0,5315685.0,0.0
1577930595803,5069744.0,5288752.0,0.0
1577930595852,5063988.0,5295457.0,0.0
1577930595899,5047027.0,5307601.0,0.0
1577930595946,5055305.0,5324651.0,0.0
1577930595996,5097559.0,5360631.0,0.0
1577930596045,5141770.0,5409533.0,0.0
1577930596089,5148848.0,5388084.0,0.0
1577930596143,5107793.0,5300510.0,0.0
1577930596194,5045524.0,5238932.0,0.0
1577930596240,5009105.0,5221317.0,0.0
1577930596288,5008585.0,5222605.0,0.0
1577930596338,5005271.0,5230238.0,0.0
1577930596386,5071802.0,5284636.0,0.0
1577930596429,5119597.0,5316024.0,0.0
1577930596484,5105306.0,5302139.0,0.0
1577930596535,5056154.0,5239680.0,0.0
1577930596583,4970784.0,5168455.0,0.0
1577930596629,4933741.0,5135439.0,0.0
1577930596673,4916114.0,5136264.0,0.0
1577930596726,4913808.0,5150533.0,0.0
1577930596774,4931968.0,5172209.0,0.0
1577930596825,4998011.0,5214657.0,0.0
1577930596871,5078383.0,5297560.0,0.0
1577930596922,5079208.0,5260574.0,0.0
1577930596969,5030011.0,5157839.0,0.0
1577930597020,4948362.0,5070197.0,0.0
1577930597068,4910925.0,5047921.0,0.0
1577930597113,4910155.0,5051879.0,0.0
1577930597165,4917404.0,5077455.0,0.0
1577930597210,4979829.0,5139565.0,0.0
1577930597264,5035993.0,5189814.0,0.0
1577930597314,5053246.0,5183709.0,0.0
1577930597362,4994755.0,5158584.0,0.0
1577930597409,4949154.0,5122616.0,0.0
1577930597459,4911613.0,5078688.0,0.0
1577930597506,4882194.0,5060642.0,0.0
1577930597553,4862722.0,5062339.0,0.0
1577930597605,4899029.0,5090663.0,0.0
1577930597653,4898350.0,5126416.0,0.0
1577930597703,4917957.0,5136558.0,0.0
1577930597750,4863559.0,5091317.0,0.0
1577930597799,4811637.0,5031119.0,0.0
1577930597847,4751166.0,4942415.0,0.0
1577930597896,4694009.0,4872445.0,0.0
1577930597946,4657521.0,4851992.0,0.0
1577930597994,4664429.0,4860178.0,0.0
1577930598043,4680937.0,4886682.0,0.0
1577930598091,4678485.0,4885812.0,0.0
1577930598141,4639678.0,4871643.0,0.0
1577930598188,4618183.0,4866330.0,0.0
1577930598239,4616771.0,4862553.0,0.0
1577930598286,4585427.0,4811286.0,0.0
1577930598334,4552354.0,4774538.0,0.0
1577930598385,4557013.0,4763503.0,0.0
1577930598437,4574153.0,4799707.0,0.0
1577930598481,4578824.0,4813604.0,0.0
1577930598529,4556401.0,4790414.0,0.0
1577930598575,4532906.0,4765368.0,0.0
1577930598627,4529615.0,4756378.0,0.0
1577930598671,4515413.0,4722728.0,0.0
1577930598726,4467256.0,4637655.0,0.0
1577930598772,4466692.0,4608481.0,0.0
1577930598816,4495863.0,4631153.0,0.0
1577930598868,4518997.0,4644608.0,0.0
1577930598920,4479185.0,4633539.0,0.0
1577930598968,4469134.0,4627433.0,0.0
1577930599017,4470907.0,4635448.0,0.0
1577930599066,4484364.0,4665051.0,0.0
1577930599115,4495083.0,4658505.0,0.0
1577930599164,4476980.0,4604716.0,0.0
1577930599212,4467913.0,4594281.0,0.0
1577930599262,4487031.0,4608278.0,0.0
1577930599309,4452150.0,4569496.0,0.0
1577930599360,4419122.0,4535777.0,0.0
1577930599407,4400058.0,4517798.0,0.0
1577930599454,4400217.0,4527500.0,0.0
1577930599505,4398226.0,4545320.0,0.0
1577930599553,4391702.0,4514204.0,0.0
1577930599602,4380893.0,4473622.0,0.0
1577930599644,4354354.0,4444676.0,0.0
1577930599694,4324549.0,4432046.0,0.0
1577930599742,4322299.0,4431266.0,0.0
1577930599794,4338820.0,4451516.0,0.0
1577930599846,4362847.0,4475408.0,0.0
1577930599896,4386874.0,4506831.0,0.0
1577930599944,4409285.0,4531423.0,0.0
1577930599991,4398238.0,4520059.0,0.0
1577930600042,4370795.0,4485778.0,0.0
1577930600083,4339575.0,4465934.0,0.0
1577930600132,4324752.0,4448849.0,0.0
1577930600184,4347582.0,4489372.0,0.0
1577930600236,4374176.0,4523418.0,0.0
1577930600281,4388717.0,4545897.0,0.0
1577930600330,4454761.0,4598135.0,0.0
1577930600375,4524741.0,4649402.0,0.0
1577930600430,4548577.0,4608820.0,0.0
1577930600481,4456131.0,4534714.0,0.0
1577930600528,4392267.0,4506650.0,0.0
1577930600581,4384906.0,4509624.0,0.0
1577930600626,4393329.0,4539180.0,0.0
1577930600675,4413537.0,4563785.0,0.0
1577930600724,4427353.0,4604027.0,0.0
1577930600771,4460019.0,4646846.0,0.0
1577930600823,4487348.0,4674876.0,0.0
1577930600869,4434228.0,4602930.0,0.0
1577930600913,4400375.0,4534387.0,0.0
1577930600967,4389453.0,4523205.0,0.0
1577930601019,4403382.0,4542596.0,0.0
1577930601065,4413604.0,4572446.0,0.0
1577930601114,4457463.0,4606606.0,0.0
1577930601163,4518714.0,4672932.0,0.0
1577930601210,4590346.0,4692459.0,0.0
1577930601260,4559420.0,4652263.0,0.0
1577930601308,4484352.0,4598611.0,0.0
1577930601357,4452918.0,4570638.0,0.0
1577930601406,4429750.0,4562395.0,0.0
1577930601455,4432906.0,4580768.0,0.0
1577930601504,4452477.0,4606311.0,0.0
1577930601551,4477354.0,4650544.0,0.0
1577930601603,4493986.0,4679582.0,0.0
1577930601649,4473736.0,4656865.0,0.0
1577930601696,4437203.0,4621281.0,0.0
1577930601740,4401867.0,4571450.0,0.0
1577930601792,4383900.0,4540921.0,0.0
1577930601842,4369393.0,4537201.0,0.0
1577930601889,4382520.0,4548872.0,0.0
1577930601940,4484510.0,4633234.0,0.0
1577930601990,4547185.0,4659533.0,0.0
1577930602037,4526392.0,4621576.0,0.0
1577930602088,4507702.0,4621610.0,0.0
1577930602140,4472876.0,4640243.0,0.0
1577930602185,4478439.0,4620625.0,0.0
1577930602234,4438389.0,4564666.0,0.0
1577930602284,4420321.0,4552738.0,0.0
1577930602331,4446451.0,4575691.0,0.0
1577930602377,4490617.0,4640164.0,0.0
1577930602423,4488151.0,4639689.0,0.0
1577930602480,4457916.0,4611185.0,0.0
1577930602527,4444586.0,4600035.0,0.0
1577930602579,4417324.0,4576619.0,0.0
1577930602625,4374278.0,4513072.0,0.0
1577930602673,4348328.0,4487722.0,0.0
1577930602717,4457441.0,4561003.0,0.0
1577930602770,4534578.0,4622752.0,0.0
1577930602817,4563819.0,4627173.0,0.0
1577930602868,4503812.0,4617947.0,0.0
1577930602917,4489610.0,4627319.0,0.0
1577930602967,4488072.0,4657487.0,0.0
1577930603010,4490752.0,4670569.0,0.0
1577930603064,4481627.0,4650918.0,0.0
1577930603112,4491329.0,4656922.0,0.0
1577930603159,4518286.0,4692811.0,0.0
1577930603209,4582068.0,4757136.0,0.0
1577930603258,4536750.0,4728100.0,0.0
1577930603307,4548555.0,4733549.0,0.0
1577930603357,4537959.0,4773621.0,0.0
1577930603406,4557758.0,4802659.0,0.0
1577930603453,4585043.0,4821101.0,0.0
1577930603498,4606594.0,4815831.0,0.0
1577930603551,4606707.0,4819236.0,0.0
1577930603598,4606898.0,4805530.0,0.0
1577930603648,4572481.0,4805904.0,0.0
1577930603696,4570140.0,4819598.0,0.0
1577930603746,4581538.0,4828416.0,0.0
1577930603794,4593162.0,4839543.0,0.0
1577930603841,4613977.0,4856277.0,0.0
1577930603891,4604592.0,4822798.0,0.0
1577930603941,4572379.0,4796846.0,0.0
1577930603989,4552478.0,4780281.0,0.0
1577930604038,4527116.0,4765505.0,0.0
1577930604081,4508312.0,4752343.0,0.0
1577930604130,4508651.0,4775883.0,0.0
1577930604178,4508369.0,4799278.0,0.0
1577930604234,4516782.0,4817936.0,0.0
1577930604281,4568003.0,4858595.0,0.0
1577930604327,4638955.0,4863502.0,0.0
1577930604382,4596305.0,4810099.0,0.0
1577930604429,4515435.0,4780848.0,0.0
1577930604478,4499990.0,4773158.0,0.0
1577930604523,4503868.0,4785143.0,0.0
1577930604576,4516725.0,4818070.0,0.0
1577930604621,4536490.0,4848678.0,0.0
1577930604673,4564882.0,4868579.0,0.0
1577930604722,4581955.0,4904762.0,0.0
1577930604770,4598859.0,4906231.0,0.0
1577930604819,4552364.0,4846134.0,0.0
1577930604869,4520966.0,4816420.0,0.0
1577930604911,4526980.0,4813616.0,0.0
1577930604960,4503269.0,4793059.0,0.0
1577930605008,4499651.0,4795050.0,0.0
1577930605059,4529446.0,4837203.0,0.0
1577930605108,4572921.0,4845807.0,0.0
1577930605161,4564406.0,4789146.0,0.0
1577930605205,4473327.0,4716645.0,0.0
1577930605258,4436547.0,4662259.0,0.0
1577930605308,4415459.0,4617459.0,0.0
1577930605356,4416024.0,4614849.0,0.0
1577930605399,4430441.0,4625093.0,0.0
1577930605453,4440854.0,4653338.0,0.0
1577930605501,4470727.0,4695501.0,0.0
1577930605550,4490707.0,4740301.0,0.0
1577930605601,4490380.0,4745683.0,0.0
1577930605642,4449787.0,4677296.0,0.0
1577930605690,4404197.0,4638027.0,0.0
1577930605743,4388400.0,4625070.0,0.0
1577930605791,4383583.0,4627862.0,0.0
1577930605842,4409532.0,4649618.0,0.0
1577930605888,4502060.0,4721948.0,0.0
1577930605944,4571767.0,4766329.0,0.0
1577930605989,4529580.0,4740380.0,0.0
1577930606038,4495150.0,4738547.0,0.0
1577930606081,4487938.0,4729671.0,0.0
1577930606135,4462845.0,4703508.0,0.0
1577930606187,4461897.0,4701143.0,0.0
1577930606233,4462169.0,4712632.0,0.0
1577930606287,4492550.0,4752331.0,0.0
1577930606330,4530271.0,4807870.0,0.0
1577930606381,4549786.0,4826845.0,0.0
1577930606426,4521565.0,4808549.0,0.0
1577930606477,4505746.0,4807102.0,0.0
1577930606521,4488626.0,4766260.0,0.0
1577930606575,4458063.0,4739644.0,0.0
1577930606624,4453552.0,4753564.0,0.0
1577930606665,4521835.0,4806310.0,0.0
1577930606723,4608979.0,4855836.0,0.0
1577930606770,4599356.0,4851754.0,0.0
1577930606819,4560857.0,4839972.0,0.0
1577930606862,4542551.0,4845423.0,0.0
1577930606909,4545672.0,4863197.0,0.0
1577930606961,4526957.0,4834444.0,0.0
1577930607008,4513310.0,4825782.0,0.0
1577930607064,4536287.0,4858741.0,0.0
1577930607106,4560902.0,4913196.0,0.0
1577930607154,4578891.0,4931232.0,0.0
1577930607205,4569665.0,4908606.0,0.0
1577930607257,4550227.0,4888254.0,0.0
1577930607300,4549640.0,4898531.0,0.0
1577930607354,4559668.0,4898102.0,0.0
1577930607406,4533120.0,4857612.0,0.0
1577930607451,4543941.0,4843591.0,0.0
1577930607502,4571643.0,4861659.0,0.0
1577930607549,4608040.0,4873238.0,0.0
1577930607599,4569122.0,4862224.0,0.0
1577930607644,4550851.0,4873486.0,0.0
1577930607689,4547571.0,4887665.0,0.0
1577930607743,4553711.0,4912213.0,0.0
1577930607789,4560686.0,4921768.0,0.0
1577930607839,4551133.0,4895321.0,0.0
1577930607886,4563411.0,4901359.0,0.0
1577930607940,4587948.0,4931153.0,0.0
1577930607983,4577897.0,4942031.0,0.0
1577930608030,4561434.0,4926325.0,0.0
1577930608087,4560518.0,4923509.0,0.0
1577930608134,4567562.0,4937642.0,0.0
1577930608183,4574967.0,4951088.0,0.0
1577930608231,4578677.0,4915752.0,0.0
1577930608282,4579118.0,4873022.0,0.0
1577930608322,4649177.0,4903291.0,0.0
1577930608372,4665323.0,4891160.0,0.0
1577930608422,4603587.0,4877693.0,0.0
1577930608469,4579458.0,4875103.0,0.0
1577930608522,4581412.0,4889124.0,0.0
1577930608574,4580644.0,4905067.0,0.0
1577930608622,4599617.0,4933040.0,0.0
1577930608671,4629615.0,4936547.0,0.0
1577930608720,4620783.0,4925862.0,0.0
1577930608762,4638468.0,4923871.0,0.0
1577930608818,4587530.0,4889169.0,0.0
1577930608865,4564362.0,4871712.0,0.0
1577930608914,4555713.0,4876641.0,0.0
1577930608964,4560857.0,4892505.0,0.0
1577930609007,4571428.0,4906932.0,0.0
1577930609062,4603190.0,4921587.0,0.0
1577930609110,4718398.0,4977546.0,0.0
1577930609159,4859771.0,5085958.0,0.0
1577930609203,4874278.0,5077274.0,0.0
1577930609255,4846496.0,5078597.0,0.0
1577930609307,4820864.0,5090379.0,0.0
1577930609353,4816940.0,5105531.0,0.0
1577930609401,4807984.0,5119971.0,0.0
1577930609450,4823860.0,5142280.0,0.0
1577930609500,4889927.0,5182929.0,0.0
1577930609544,4950036.0,5220829.0,0.0
1577930609599,4986331.0,5224878.0,0.0
1577930609648,4952443.0,5187518.0,0.0
1577930609689,4910969.0,5170377.0,0.0
1577930609744,4888254.0,5174324.0,0.0
1577930609791,4895626.0,5180281.0,0.0
1577930609840,4899618.0,5197502.0,0.0
1577930609885,4952151.0,5248453.0,0.0
1577930609939,5025397.0,5321622.0,0.0
1577930609983,5107362.0,5354298.0,0.0
1577930610031,5036580.0,5307849.0,0.0
1577930610080,4994180.0,5286310.0,0.0
1577930610128,4965640.0,5278937.0,0.0
1577930610179,4944847.0,5277976.0,0.0
1577930610226,4947277.0,5275127.0,0.0
1577930610276,4983381.0,5289136.0,0.0
1577930610323,5021779.0,5310088.0,0.0
1577930610377,5110562.0,5385258.0,0.0
1577930610430,5130882.0,5373397.0,0.0
1577930610474,5085167.0,5341726.0,0.0
1577930610523,5047233.0,5327286.0,0.0
1577930610572,5044360.0,5337179.0,0.0
1577930610622,5038730.0,5348386.0,0.0
1577930610663,5048362.0,5355881.0,0.0
1577930610718,5099607.0,5375884.0,0.0
1577930610770,5124335.0,5391928.0,0.0
1577930610815,5135404.0,5392077.0,0.0
1577930610864,5037791.0,5359297.0,0.0
1577930610913,5011693.0,5334206.0,0.0
1577930610956,5003156.0,5329729.0,0.0
1577930611005,5003416.0,5335462.0,0.0
1577930611056,5018489.0,5350070.0,0.0
1577930611104,5031131.0,5366274.0,0.0
1577930611153,5073985.0,5386026.0,0.0
1577930611205,5123000.0,5427399.0,0.0
1577930611254,5131446.0,5410891.0,0.0
1577930611303,5115934.0,5401313.0,0.0
1577930611349,5069417.0,5405610.0,0.0
1577930611403,5074279.0,5405181.0,0.0
1577930611449,5086659.0,5404275.0,0.0
1577930611498,5137214.0,5437068.0,0.0
1577930611548,5178359.0,5466951.0,0.0
1577930611593,5219439.0,5491035.0,0.0
1577930611647,5162971.0,5455532.0,0.0
1577930611689,5117799.0,5436422.0,0.0
1577930611742,5094235.0,5422210.0,0.0
1577930611785,5085123.0,5418036.0,0.0
1577930611840,5078542.0,5415899.0,0.0
1577930611891,5097797.0,5432533.0,0.0
1577930611930,5152048.0,5460664.0,0.0
1577930611986,5195003.0,5491862.0,0.0
1577930612035,5182285.0,5484273.0,0.0
1577930612084,5180068.0,5469440.0,0.0
1577930612131,5151880.0,5440798.0,0.0
1577930612182,5122604.0,5435302.0,0.0
1577930612230,5123352.0,5414633.0,0.0
1577930612278,5124662.0,5411896.0,0.0
1577930612327,5169586.0,5444518.0,0.0
1577930612375,5211207.0,5470898.0,0.0
1577930612424,5187689.0,5457125.0,0.0
1577930612473,5133730.0,5440379.0,0.0
1577930612522,5127025.0,5439227.0,0.0
1577930612568,5118071.0,5427082.0,0.0
1577930612620,5113876.0,5418467.0,0.0
1577930612670,5121485.0,5422628.0,0.0
1577930612717,5152885.0,5438888.0,0.0
1577930612766,5193817.0,5469700.0,0.0
1577930612815,5203224.0,5481945.0,0.0
1577930612864,5189713.0,5469608.0,0.0
1577930612906,5187372.0,5463153.0,0.0
1577930612962,5156390.0,5462304.0,0.0
1577930613010,5144066.0,5443998.0,0.0
1577930613059,5145163.0,5424900.0,0.0
1577930613108,5188016.0,5440550.0,0.0
1577930613151,5204435.0,5459104.0,0.0
1577930613199,5238040.0,5476823.0,0.0
1577930613247,5177795.0,5446091.0,0.0
1577930613300,5163786.0,5433640.0,0.0
1577930613347,5159771.0,5431300.0,0.0
1577930613397,5147040.0,5407443.0,0.0
1577930613449,5138005.0,5378937.0,0.0
1577930613498,5146552.0,5368636.0,0.0
1577930613547,5169948.0,5380530.0,0.0
1577930613589,5187451.0,5406301.0,0.0
1577930613644,5170716.0,5400894.0,0.0
1577930613689,5173871.0,5388277.0,0.0
1577930613739,5158775.0,5379423.0,0.0
1577930613789,5154411.0,5385890.0,0.0
1577930613835,5167506.0,5376664.0,0.0
1577930613883,5163333.0,5373543.0,0.0
1577930613932,5227093.0,5412778.0,0.0
1577930613981,5280633.0,5447458.0,0.0
1577930614030,5298588.0,5443037.0,0.0
1577930614079,5253124.0,5420060.0,0.0
1577930614128,5218783.0,5408087.0,0.0
1577930614177,5207261.0,5413627.0,0.0
1577930614224,5197899.0,5418817.0,0.0
1577930614273,5196145.0,5410167.0,0.0
1577930614322,5213242.0,5399448.0,0.0
1577930614368,5229852.0,5406910.0,0.0
1577930614420,5259806.0,5429310.0,0.0
1577930614467,5239680.0,5412089.0,0.0
1577930614518,5232973.0,5401981.0,0.0
1577930614565,5221215.0,5399968.0,0.0
1577930614614,5226857.0,5414633.0,0.0
1577930614666,5230429.0,5416748.0,0.0
1577930614711,5229423.0,5398509.0,0.0
1577930614760,5282657.0,5416488.0,0.0
1577930614808,5322107.0,5432409.0,0.0
1577930614862,5292314.0,5415742.0,0.0
1577930614911,5255328.0,5405645.0,0.0
1577930614953,5243816.0,5406435.0,0.0
1577930615005,5239442.0,5416035.0,0.0
1577930615053,5236173.0,5425737.0,0.0
1577930615102,5233210.0,5418309.0,0.0
1577930615151,5246023.0,5395106.0,0.0
1577930615204,5275048.0,5401100.0,0.0
1577930615254,5275816.0,5411230.0,0.0
1577930615302,5264837.0,5393670.0,0.0
1577930615349,5232193.0,5381380.0,0.0
1577930615399,5220819.0,5385835.0,0.0
1577930615440,5240153.0,5398452.0,0.0
1577930615489,5243660.0,5417053.0,0.0
1577930615541,5265674.0,5422661.0,0.0
1577930615590,5296349.0,5425521.0,0.0
1577930615638,5337394.0,5432001.0,0.0
1577930615686,5267301.0,5390470.0,0.0
1577930615734,5252230.0,5386422.0,0.0
1577930615784,5225478.0,5388072.0,0.0
1577930615831,5235913.0,5404310.0,0.0
1577930615882,5232160.0,5421249.0,0.0
1577930615932,5253723.0,5433788.0,0.0
1577930615977,5285733.0,5447549.0,0.0
1577930616027,5318083.0,5449652.0,0.0
1577930616076,5268286.0,5408166.0,0.0
1577930616125,5262327.0,5380679.0,0.0
1577930616173,5234704.0,5375693.0,0.0
1577930616226,5240685.0,5387406.0,0.0
1577930616269,5242652.0,5396305.0,0.0
1577930616324,5253225.0,5400320.0,0.0
1577930616375,5325783.0,5449630.0,0.0
1577930616422,5366645.0,5443703.0,0.0
1577930616469,5320151.0,5390707.0,0.0
1577930616520,5278325.0,5362135.0,0.0
1577930616567,5250318.0,5352931.0,0.0
1577930616615,5248373.0,5368126.0,0.0
1577930616665,5246610.0,5381979.0,0.0
1577930616712,5258335.0,5402286.0,0.0
1577930616763,5302920.0,5435257.0,0.0
1577930616811,5315368.0,5453744.0,0.0
1577930616861,5316884.0,5436615.0,0.0
1577930616908,5293874.0,5396758.0,0.0
1577930616959,5286026.0,5375148.0,0.0
1577930617008,5273352.0,5380327.0,0.0
1577930617050,5297265.0,5403948.0,0.0
1577930617104,5301597.0,5414103.0,0.0
1577930617156,5304547.0,5435416.0,0.0
1577930617201,5351098.0,5465910.0,0.0
1577930617250,5307239.0,5402794.0,0.0
1577930617300,5267189.0,5355396.0,0.0
1577930617347,5241839.0,5320582.0,0.0
1577930617393,5240561.0,5315527.0,0.0
1577930617445,5235586.0,5318863.0,0.0
1577930617493,5238875.0,5330655.0,0.0
1577930617544,5275940.0,5361129.0,0.0
1577930617593,5298429.0,5388956.0,0.0
1577930617642,5320173.0,5409115.0,0.0
1577930617684,5284150.0,5324200.0,0.0
1577930617737,5247672.0,5254672.0,0.0
1577930617786,5211739.0,5226890.0,0.0
1577930617836,5210676.0,5219214.0,0.0
1577930617885,5214114.0,5229129.0,0.0
1577930617932,5266612.0,5278179.0,0.0
1577930617976,5323544.0,5338219.0,0.0
1577930618029,5383346.0,5371012.0,0.0
1577930618080,5349018.0,5362350.0,0.0
1577930618127,5309716.0,5361082.0,0.0
1577930618175,5293173.0,5353768.0,0.0
1577930618225,5280995.0,5348599.0,0.0
1577930618273,5274063.0,5355091.0,0.0
1577930618323,5309377.0,5384874.0,0.0
1577930618371,5367891.0,5427525.0,0.0
1577930618422,5420525.0,5476258.0,0.0
1577930618468,5368659.0,5445910.0,0.0
1577930618517,5343366.0,5411242.0,0.0
1577930618565,5297887.0,5354581.0,0.0
1577930618618,5275522.0,5305067.0,0.0
1577930618665,5263729.0,5277377.0,0.0
1577930618707,5254412.0,5284760.0,0.0
1577930618763,5291906.0,5316352.0,0.0
1577930618803,5323928.0,5340718.0,0.0
1577930618852,5308042.0,5325590.0,0.0
1577930618901,5268421.0,5305463.0,0.0
1577930618957,5243794.0,5294541.0,0.0
1577930619005,5223058.0,5254005.0,0.0
1577930619052,5185857.0,5211365.0,0.0
1577930619102,5172967.0,5202557.0,0.0
1577930619150,5187902.0,5218206.0,0.0
1577930619200,5198770.0,5241465.0,0.0
1577930619247,5229017.0,5280780.0,0.0
1577930619296,5195129.0,5253699.0,0.0
1577930619345,5180509.0,5234714.0,0.0
1577930619395,5141306.0,5173747.0,0.0
1577930619443,5110168.0,5124707.0,0.0
1577930619491,5092664.0,5106289.0,0.0
1577930619542,5084273.0,5120152.0,0.0
1577930619589,5147129.0,5180995.0,0.0
1577930619636,5177264.0,5202602.0,0.0
1577930619687,5126993.0,5176098.0,0.0
1577930619739,5102287.0,5165425.0,0.0
1577930619785,5094745.0,5163389.0,0.0
1577930619833,5091340.0,5150374.0,0.0
1577930619882,5062779.0,5110924.0,0.0
1577930619930,5054514.0,5098079.0,0.0
1577930619975,5076494.0,5114317.0,0.0
1577930620027,5105091.0,5157034.0,0.0
1577930620079,5117913.0,5185834.0,0.0
1577930620119,5096610.0,5166498.0,0.0
1577930620174,5075624.0,5150612.0,0.0
1577930620224,5060471.0,5153779.0,0.0
1577930620271,5047988.0,5099686.0,0.0
1577930620322,5009523.0,5034160.0,0.0
1577930620368,5014046.0,5040493.0,0.0
1577930620418,5097628.0,5101596.0,0.0
1577930620466,5124675.0,5113435.0,0.0
1577930620516,5083788.0,5088253.0,0.0
1577930620564,5038356.0,5074933.0,0.0
1577930620615,5028020.0,5073328.0,0.0
1577930620662,5021734.0,5082170.0,0.0
1577930620705,4996463.0,5038242.0,0.0
1577930620756,4983708.0,5011829.0,0.0
1577930620808,5003666.0,5028248.0,0.0
1577930620860,5023329.0,5078473.0,0.0
1577930620906,5027602.0,5108075.0,0.0
1577930620955,5022017.0,5098906.0,0.0
1577930621005,4998576.0,5080169.0,0.0
1577930621052,4981798.0,5081096.0,0.0
1577930621101,4983245.0,5065799.0,0.0
1577930621149,4953201.0,5001551.0,0.0
1577930621196,4938853.0,4974809.0,0.0
1577930621241,4989882.0,5009330.0,0.0
1577930621294,5067359.0,5066839.0,0.0
1577930621340,5020739.0,5040424.0,0.0
1577930621391,4985754.0,5025024.0,0.0
1577930621441,4956029.0,5017053.0,0.0
1577930621493,4947084.0,5035394.0,0.0
1577930621538,4950397.0,5052149.0,0.0
1577930621589,4956785.0,5044008.0,0.0
1577930621641,4969756.0,5041024.0,0.0
1577930621681,4988808.0,5071575.0,0.0
1577930621736,4995705.0,5082577.0,0.0
1577930621786,4979604.0,5067889.0,0.0
1577930621833,4953699.0,5057204.0,0.0
1577930621878,4939802.0,5063513.0,0.0
1577930621931,4955847.0,5078180.0,0.0
1577930621981,4943693.0,5034433.0,0.0
1577930622029,4944121.0,4997447.0,0.0
1577930622078,4958031.0,4985969.0,0.0
1577930622125,4935631.0,4957147.0,0.0
1577930622174,4890233.0,4940357.0,0.0
1577930622225,4858583.0,4934477.0,0.0
1577930622271,4852026.0,4948193.0,0.0
1577930622318,4854786.0,4961907.0,0.0
1577930622369,4859962.0,4982318.0,0.0
1577930622420,4864814.0,4963321.0,0.0
1577930622461,4868195.0,4934274.0,0.0
1577930622516,4876822.0,4944971.0,0.0
1577930622566,4848678.0,4932193.0,0.0
1577930622615,4836321.0,4917189.0,0.0
1577930622660,4821485.0,4913072.0,0.0
1577930622706,4820705.0,4928800.0,0.0
1577930622761,4836297.0,4942969.0,0.0
1577930622809,4844462.0,4961806.0,0.0
1577930622859,4854050.0,4932961.0,0.0
1577930622908,4818761.0,4872978.0,0.0
1577930622955,4805825.0,4833200.0,0.0
1577930623004,4747719.0,4804388.0,0.0
1577930623053,4728291.0,4800306.0,0.0
1577930623099,4733076.0,4813458.0,0.0
1577930623150,4740640.0,4834986.0,0.0
1577930623202,4748430.0,4856198.0,0.0
1577930623244,4764373.0,4874424.0,0.0
1577930623299,4772219.0,4850238.0,0.0
1577930623347,4755984.0,4828643.0,0.0
1577930623395,4721202.0,4812338.0,0.0
1577930623442,4707533.0,4784997.0,0.0
1577930623495,4689757.0,4778496.0,0.0
1577930623543,4688276.0,4789497.0,0.0
1577930623590,4696315.0,4806922.0,0.0
1577930623640,4701358.0,4829604.0,0.0
1577930623688,4732385.0,4841577.0,0.0
1577930623737,4686208.0,4781752.0,0.0
1577930623785,4630542.0,4738921.0,0.0
1577930623835,4602195.0,4721485.0,0.0
1577930623883,4595943.0,4720796.0,0.0
1577930623931,4603869.0,4741973.0,0.0
1577930623982,4615448.0,4766183.0,0.0
1577930624029,4647887.0,4792878.0,0.0
1577930624079,4673442.0,4816296.0,0.0
1577930624121,4695716.0,4839927.0,0.0
1577930624177,4674718.0,4820953.0,0.0
1577930624223,4645071.0,4779320.0,0.0
1577930624274,4614475.0,4740006.0,0.0
1577930624326,4593194.0,4737678.0,0.0
1577930624371,4604038.0,4761423.0,0.0
1577930624421,4614101.0,4781289.0,0.0
1577930624466,4636875.0,4823578.0,0.0
1577930624517,4686941.0,4874402.0,0.0
1577930624561,4746678.0,4891182.0,0.0
1577930624617,4741940.0,4847548.0,0.0
1577930624667,4675171.0,4813876.0,0.0
1577930624707,4644575.0,4805577.0,0.0
1577930624767,4637246.0,4819167.0,0.0
1577930624808,4644551.0,4851551.0,0.0
1577930624859,4668285.0,4882883.0,0.0
1577930624901,4694721.0,4909240.0,0.0
1577930624956,4709341.0,4945501.0,0.0
1577930625004,4724855.0,4959874.0,0.0
1577930625053,4693861.0,4902907.0,0.0
1577930625107,4655339.0,4855950.0,0.0
1577930625151,4638807.0,4856968.0,0.0
1577930625201,4647468.0,4878043.0,0.0
1577930625246,4654693.0,4916782.0,0.0
1577930625297,4667461.0,4942313.0,0.0
1577930625340,4727263.0,4980553.0,0.0
1577930625394,4770874.0,5021598.0,0.0
1577930625446,4801438.0,5015356.0,0.0
1577930625487,4742052.0,4959703.0,0.0
1577930625541,4704457.0,4922298.0,0.0
1577930625590,4682339.0,4916805.0,0.0
1577930625640,4684647.0,4948012.0,0.0
1577930625681,4745423.0,5047074.0,0.0
1577930625736,4741373.0,5086502.0,0.0
1577930625786,4775692.0,5110901.0,0.0
1577930625833,4824470.0,5149641.0,0.0
1577930625882,4801019.0,5143184.0,0.0
1577930625931,4782193.0,5094710.0,0.0
1577930625980,4754570.0,5061591.0,0.0
1577930626027,4750285.0,5053836.0,0.0
1577930626077,4750025.0,5056627.0,0.0
1577930626122,4752908.0,5072954.0,0.0
1577930626168,4844155.0,5125668.0,0.0
1577930626228,4877285.0,5167630.0,0.0
1577930626271,4883437.0,5155939.0,0.0
1577930626317,4839962.0,5114589.0,0.0
1577930626362,4805621.0,5068523.0,0.0
1577930626415,4781797.0,5043411.0,0.0
1577930626462,4772197.0,5041928.0,0.0
1577930626512,4775194.0,5053440.0,0.0
1577930626563,4795964.0,5072538.0,0.0
1577930626615,4825002.0,5110257.0,0.0
1577930626661,4880034.0,5167563.0,0.0
1577930626705,4856470.0,5158007.0,0.0
1577930626760,4830283.0,5086728.0,0.0
1577930626802,4790052.0,5042946.0,0.0
1577930626856,4780564.0,5028677.0,0.0
1577930626906,4777388.0,5037236.0,0.0
1577930626954,4783595.0,5069824.0,0.0
1577930627003,4865277.0,5133188.0,0.0
1577930627052,4927613.0,5184772.0,0.0
1577930627101,4911150.0,5159704.0,0.0
1577930627149,4876891.0,5144970.0,0.0
1577930627198,4853280.0,5115119.0,0.0
1577930627243,4829208.0,5079220.0,0.0
1577930627295,4819970.0,5066170.0,0.0
1577930627347,4821733.0,5072979.0,0.0
1577930627392,4854954.0,5107929.0,0.0
1577930627442,4886298.0,5156526.0,0.0
1577930627489,4893659.0,5179786.0,0.0
1577930627540,4885449.0,5156504.0,0.0
1577930627584,4866442.0,5130453.0,0.0
1577930627633,4846090.0,5103981.0,0.0
1577930627681,4834862.0,5062656.0,0.0
1577930627730,4822718.0,5063050.0,0.0
1577930627779,4845897.0,5113185.0,0.0
1577930627824,4896837.0,5144338.0,0.0
1577930627882,4945999.0,5164702.0,0.0
1577930627927,4915900.0,5167382.0,0.0
1577930627978,4896203.0,5167674.0,0.0
1577930628030,4892131.0,5170683.0,0.0
1577930628075,4880225.0,5138525.0,0.0
1577930628120,4857102.0,5105249.0,0.0
1577930628172,4844777.0,5100375.0,0.0
1577930628222,4879073.0,5122379.0,0.0
1577930628269,4898972.0,5167550.0,0.0
1577930628320,4896971.0,5188276.0,0.0
1577930628366,4890278.0,5164757.0,0.0
1577930628416,4872470.0,5145356.0,0.0
1577930628469,4864384.0,5126777.0,0.0
1577930628513,4843816.0,5078235.0,0.0
1577930628563,4841126.0,5078304.0,0.0
1577930628605,4894268.0,5125997.0,0.0
1577930628661,4934397.0,5177772.0,0.0
1577930628703,5018274.0,5223486.0,0.0
1577930628758,4962576.0,5200229.0,0.0
1577930628808,4940686.0,5196249.0,0.0
1577930628854,4931029.0,5199674.0,0.0
1577930628900,4926065.0,5207102.0,0.0
1577930628952,4923645.0,5188729.0,0.0
1577930629001,4933008.0,5182533.0,0.0
1577930629048,4948272.0,5203642.0,0.0
1577930629100,4996733.0,5252603.0,0.0
1577930629149,4959047.0,5228202.0,0.0
1577930629196,4953077.0,5207080.0,0.0
1577930629244,4929468.0,5194451.0,0.0
1577930629294,4935326.0,5200217.0,0.0
1577930629342,4932215.0,5173205.0,0.0
1577930629389,4915821.0,5140437.0,0.0
1577930629441,4979084.0,5170773.0,0.0
1577930629490,5025273.0,5200940.0,0.0
1577930629537,4996677.0,5195660.0,0.0
1577930629587,4963695.0,5201166.0,0.0
1577930629635,4956446.0,5206572.0,0.0
1577930629685,4943772.0,5215786.0,0.0
1577930629732,4944768.0,5228440.0,0.0
1577930629781,4948282.0,5182973.0,0.0
1577930629827,4931017.0,5146396.0,0.0
1577930629879,4932238.0,5153960.0,0.0
1577930629930,4927049.0,5160992.0,0.0
1577930629975,4906018.0,5156311.0,0.0
1577930630024,4894077.0,5158087.0,0.0
1577930630073,4884715.0,5173294.0,0.0
1577930630117,4883346.0,5192019.0,0.0
1577930630164,4895806.0,5219586.0,0.0
1577930630220,4943173.0,5202986.0,0.0
1577930630271,4962722.0,5206119.0,0.0
1577930630316,4995015.0,5212576.0,0.0
1577930630359,4939938.0,5201042.0,0.0
1577930630414,4925149.0,5205079.0,0.0
1577930630463,4913389.0,5216386.0,0.0
1577930630505,4917642.0,5234308.0,0.0
1577930630563,4925533.0,5249290.0,0.0
1577930630609,4945456.0,5248465.0,0.0
1577930630658,4937350.0,5218342.0,0.0
1577930630700,4916906.0,5186037.0,0.0
1577930630748,4889622.0,5165606.0,0.0
1577930630798,4862429.0,5146248.0,0.0
1577930630852,4838909.0,5145559.0,0.0
1577930630902,4838842.0,5168251.0,0.0
1577930630949,4833854.0,5179684.0,0.0
1577930630999,4851393.0,5192675.0,0.0
1577930631047,4875658.0,5210766.0,0.0
1577930631096,4920242.0,5182396.0,0.0
1577930631145,4841837.0,5120660.0,0.0
1577930631194,4811150.0,5104717.0,0.0
1577930631242,4801188.0,5103699.0,0.0
1577930631286,4801019.0,5116239.0,0.0
1577930631335,4801958.0,5134782.0,0.0
1577930631386,4815932.0,5156876.0,0.0
1577930631431,4860879.0,5190369.0,0.0
1577930631479,4878880.0,5216873.0,0.0
1577930631528,4874493.0,5192573.0,0.0
1577930631578,4834895.0,5126144.0,0.0
1577930631626,4806595.0,5085383.0,0.0
1577930631676,4790538.0,5097537.0,0.0
1577930631726,4795818.0,5116533.0,0.0
1577930631772,4814147.0,5139657.0,0.0
1577930631820,4855927.0,5183719.0,0.0
1577930631868,4904490.0,5228700.0,0.0
1577930631918,4923757.0,5214441.0,0.0
1577930631967,4869711.0,5151313.0,0.0
1577930632016,4827365.0,5116680.0,0.0
1577930632067,4809795.0,5110416.0,0.0
1577930632113,4803405.0,5119246.0,0.0
1577930632161,4816115.0,5140177.0,0.0
1577930632210,4853902.0,5172843.0,0.0
1577930632259,4868522.0,5207216.0,0.0
1577930632309,4896621.0,5237010.0,0.0
1577930632363,4873463.0,5209059.0,0.0
1577930632410,4853201.0,5154411.0,0.0
1577930632463,4828564.0,5131706.0,0.0
1577930632508,4820490.0,5130384.0,0.0
1577930632559,4824504.0,5144880.0,0.0
1577930632609,4834612.0,5168058.0,0.0
1577930632655,4856685.0,5196814.0,0.0
1577930632704,4901991.0,5227660.0,0.0
1577930632748,4863311.0,5196259.0,0.0
1577930632802,4836093.0,5184625.0,0.0
1577930632850,4816623.0,5134693.0,0.0
1577930632900,4788943.0,5092618.0,0.0
1577930632947,4778563.0,5080531.0,0.0
1577930632997,4786241.0,5091929.0,0.0
1577930633045,4808720.0,5111614.0,0.0
1577930633093,4863863.0,5176744.0,0.0
1577930633144,4887395.0,5236242.0,0.0
1577930633190,4884465.0,5232906.0,0.0
1577930633241,4870863.0,5196180.0,0.0
1577930633288,4838887.0,5142391.0,0.0
1577930633339,4797277.0,5098827.0,0.0
1577930633386,4779682.0,5093388.0,0.0
1577930633434,4838298.0,5144970.0,0.0
1577930633484,4830486.0,5164157.0,0.0
1577930633531,4856921.0,5162983.0,0.0
1577930633598,4812304.0,5144370.0,0.0
1577930633623,4798226.0,5138322.0,0.0
1577930633675,4800522.0,5149685.0,0.0
1577930633721,4794461.0,5127444.0,0.0
1577930633770,4775816.0,5100613.0,0.0
1577930633819,4774651.0,5100172.0,0.0
1577930633870,4810280.0,5134646.0,0.0
1577930633920,4851529.0,5194065.0,0.0
1577930633971,4867120.0,5230136.0,0.0
1577930634021,4857803.0,5222018.0,0.0
1577930634068,4840923.0,5219021.0,0.0
1577930634113,4841238.0,5208234.0,0.0
1577930634166,4837993.0,5170716.0,0.0
1577930634210,4841758.0,5180712.0,0.0
1577930634265,4891962.0,5232871.0,0.0
1577930634316,4943557.0,5284624.0,0.0
1577930634361,4994304.0,5313424.0,0.0
1577930634409,4952953.0,5299256.0,0.0
1577930634459,4935846.0,5306152.0,0.0
1577930634507,4929084.0,5314306.0,0.0
1577930634557,4932136.0,5322571.0,0.0
1577930634607,4931673.0,5289000.0,0.0
1577930634651,4930474.0,5276359.0,0.0
1577930634703,4954095.0,5308787.0,0.0
1577930634750,4972909.0,5361399.0,0.0
1577930634801,4948488.0,5358685.0,0.0
1577930634848,4927252.0,5353327.0,0.0
1577930634898,4918682.0,5359985.0,0.0
1577930634946,4922843.0,5366013.0,0.0
1577930634990,4907430.0,5317595.0,0.0
1577930635044,4889543.0,5259784.0,0.0
1577930635095,4926868.0,5274189.0,0.0
1577930635142,4987904.0,5296475.0,0.0
1577930635190,4957058.0,5281436.0,0.0
1577930635239,4935653.0,5288220.0,0.0
1577930635286,4925070.0,5298635.0,0.0
1577930635330,4931153.0,5317867.0,0.0
1577930635385,4931130.0,5326313.0,0.0
1577930635435,4934851.0,5284024.0,0.0
1577930635482,4931029.0,5227546.0,0.0
1577930635529,4922038.0,5234748.0,0.0
1577930635580,4913966.0,5235846.0,0.0
1577930635628,4899980.0,5214996.0,0.0
1577930635672,4891182.0,5205430.0,0.0
1577930635720,4868500.0,5201891.0,0.0
1577930635777,4871304.0,5215548.0,0.0
1577930635824,4878835.0,5228678.0,0.0
1577930635871,4872809.0,5175511.0,0.0
1577930635915,4876596.0,5152365.0,0.0
1577930635969,4875138.0,5140301.0,0.0
1577930636019,4841837.0,5133935.0,0.0
1577930636066,4820480.0,5139860.0,0.0
1577930636112,4821881.0,5147830.0,0.0
1577930636164,4828326.0,5168229.0,0.0
1577930636213,4851665.0,5184048.0,0.0
1577930636263,4866362.0,5196690.0,0.0
1577930636311,4878711.0,5170954.0,0.0
1577930636361,4883494.0,5148103.0,0.0
1577930636408,4842087.0,5105101.0,0.0
1577930636452,4825872.0,5079661.0,0.0
1577930636505,4806119.0,5081051.0,0.0
1577930636557,4807068.0,5106062.0,0.0
1577930636603,4818048.0,5129175.0,0.0
1577930636652,4827558.0,5143478.0,0.0
1577930636702,4841148.0,5156662.0,0.0
1577930636749,4842357.0,5076246.0,0.0
1577930636795,4798657.0,5027896.0,0.0
1577930636846,4759704.0,5002942.0,0.0
1577930636896,4749482.0,5004604.0,0.0
1577930636945,4756853.0,5034059.0,0.0
1577930636993,4761738.0,5052749.0,0.0
1577930637036,4786117.0,5078891.0,0.0
1577930637089,4810179.0,5102468.0,0.0
1577930637139,4834692.0,5137891.0,0.0
1577930637187,4858142.0,5147593.0,0.0
1577930637238,4822389.0,5068003.0,0.0
1577930637285,4789589.0,5018240.0,0.0
1577930637334,4760053.0,5007465.0,0.0
1577930637383,4756073.0,5017268.0,0.0
1577930637430,4763243.0,5031753.0,0.0
1577930637482,4778473.0,5064102.0,0.0
1577930637528,4824153.0,5102014.0,0.0
1577930637576,4856797.0,5080135.0,0.0
1577930637627,4816272.0,5009806.0,0.0
1577930637679,4750522.0,4951608.0,0.0
1577930637719,4727942.0,4929288.0,0.0
1577930637772,4729344.0,4942222.0,0.0
1577930637823,4742188.0,4969677.0,0.0
1577930637869,4765673.0,4993194.0,0.0
1577930637915,4800747.0,5036795.0,0.0
1577930637967,4858766.0,5100930.0,0.0
1577930638018,4910687.0,5140583.0,0.0
1577930638066,4875658.0,5058381.0,0.0
1577930638113,4822729.0,4973531.0,0.0
1577930638162,4776155.0,4953553.0,0.0
1577930638210,4770468.0,4966601.0,0.0
1577930638259,4780690.0,5003755.0,0.0
1577930638310,4835053.0,5062824.0,0.0
1577930638358,4952602.0,5160348.0,0.0
1577930638405,5023622.0,5217834.0,0.0
1577930638454,5015810.0,5203145.0,0.0
1577930638504,4978868.0,5198770.0,0.0
1577930638551,4962757.0,5189656.0,0.0
1577930638602,4952624.0,5189599.0,0.0
1577930638642,4946452.0,5197696.0,0.0
1577930638694,4965617.0,5207533.0,0.0
1577930638743,4998091.0,5234070.0,0.0
1577930638790,5040176.0,5288435.0,0.0
1577930638841,5018398.0,5278360.0,0.0
1577930638885,4982261.0,5237983.0,0.0
1577930638938,4947401.0,5136150.0,0.0
1577930638989,4895806.0,5070151.0,0.0
1577930639038,4870050.0,5048305.0,0.0
1577930639082,4859229.0,5065063.0,0.0
1577930639133,4879467.0,5091555.0,0.0
1577930639179,4894687.0,5101799.0,0.0
1577930639230,4901743.0,5111580.0,0.0
1577930639281,4878845.0,5100194.0,0.0
1577930639330,4871690.0,5090289.0,0.0
1577930639376,4861253.0,5053620.0,0.0
1577930639428,4837258.0,5015458.0,0.0
1577930639481,4835065.0,4993375.0,0.0
1577930639526,4831221.0,5005316.0,0.0
1577930639574,4858662.0,5053891.0,0.0
1577930639623,4883212.0,5098396.0,0.0
1577930639671,4873419.0,5097819.0,0.0
1577930639718,4863967.0,5080521.0,0.0
1577930639768,4847955.0,5075161.0,0.0
1577930639818,4827286.0,5030643.0,0.0
1577930639868,4793341.0,4988017.0,0.0
1577930639915,4785720.0,4994755.0,0.0
1577930639965,4812869.0,5037452.0,0.0
1577930640009,4854253.0,5075827.0,0.0
1577930640057,4858380.0,5099198.0,0.0
1577930640104,4843794.0,5111230.0,0.0
1577930640161,4845332.0,5124776.0,0.0
1577930640208,4858132.0,5139169.0,0.0
1577930640257,4858630.0,5128055.0,0.0
1577930640306,4858947.0,5096293.0,0.0
1577930640354,4876812.0,5100409.0,0.0
1577930640404,4909974.0,5151449.0,0.0
1577930640451,4922378.0,5189170.0,0.0
1577930640499,4918863.0,5162835.0,0.0
1577930640549,4892403.0,5138728.0,0.0
1577930640596,4874843.0,5150602.0,0.0
1577930640640,4882521.0,5164103.0,0.0
1577930640692,4872740.0,5121214.0,0.0
1577930640741,4864249.0,5087362.0,0.0
1577930640790,4861342.0,5080417.0,0.0
1577930640838,4863368.0,5079040.0,0.0
1577930640889,4849357.0,5083381.0,0.0
1577930640938,4839645.0,5092697.0,0.0
1577930640987,4846756.0,5108234.0,0.0
1577930641036,4857679.0,5129480.0,0.0
1577930641085,4870095.0,5151540.0,0.0
1577930641134,4877862.0,5131719.0,0.0
1577930641181,4891138.0,5111795.0,0.0
1577930641237,4892911.0,5117663.0,0.0
1577930641341,4863672.0,5081006.0,0.0
1577930641342,4855519.0,5064486.0,0.0
1577930641398,4842630.0,5065697.0,0.0
1577930641422,4844044.0,5095547.0,0.0
1577930641471,4854605.0,5129333.0,0.0
1577930641519,4856086.0,5160269.0,0.0
1577930641572,4874357.0,5095367.0,0.0
1577930641628,4846439.0,5031820.0,0.0
1577930641669,4806198.0,4995965.0,0.0
1577930641719,4790414.0,4988277.0,0.0
1577930641767,4786478.0,4990606.0,0.0
1577930641815,4809691.0,5009105.0,0.0
1577930641861,4827467.0,5036672.0,0.0
1577930641913,4850568.0,5062339.0,0.0
1577930641962,4862734.0,5074606.0,0.0
1577930642010,4867494.0,5051629.0,0.0
1577930642060,4871021.0,5045987.0,0.0
1577930642109,4862179.0,5039101.0,0.0
1577930642156,4858969.0,5043262.0,0.0
1577930642204,4840911.0,5072640.0,0.0
1577930642254,4831085.0,5082420.0,0.0
1577930642304,4835642.0,5087134.0,0.0
1577930642351,4832544.0,5089363.0,0.0
1577930642406,4857047.0,5112055.0,0.0
1577930642447,4886139.0,5088062.0,0.0
1577930642498,4908686.0,5061841.0,0.0
1577930642541,4852398.0,5036795.0,0.0
1577930642595,4818196.0,5042968.0,0.0
1577930642644,4799595.0,5072310.0,0.0
1577930642691,4811501.0,5103609.0,0.0
1577930642746,4815232.0,5128157.0,0.0
1577930642787,4845817.0,5148826.0,0.0
1577930642839,4893704.0,5183189.0,0.0
1577930642881,4917020.0,5155238.0,0.0
1577930642935,4850907.0,5072967.0,0.0
1577930642987,4811162.0,5008674.0,0.0
1577930643034,4763129.0,4968466.0,0.0
1577930643086,4753168.0,4970457.0,0.0
1577930643128,4748860.0,4974697.0,0.0
1577930643179,4735360.0,4970749.0,0.0
1577930643223,4772368.0,4982465.0,0.0
1577930643277,4762213.0,4947321.0,0.0
1577930643320,4744348.0,4899076.0,0.0
1577930643374,4675330.0,4855554.0,0.0
1577930643426,4631525.0,4817629.0,0.0
1577930643471,4632882.0,4819303.0,0.0
1577930643521,4636332.0,4833934.0,0.0
1577930643566,4650703.0,4840311.0,0.0
1577930643620,4679525.0,4852106.0,0.0
1577930643661,4698307.0,4879571.0,0.0
1577930643716,4693420.0,4852037.0,0.0
