time,value,value2,value3
1577110182179,5374799.0,4138855.0,0.0
1577110182234,5465063.0,4149061.0,0.0
1577110182283,5533606.0,4158638.0,0.0
1577110182330,5487553.0,4167391.0,0.0
1577110182372,5436954.0,4171066.0,0.0
1577110182427,5401541.0,4163023.0,0.0
1577110182474,5398465.0,4152082.0,0.0
1577110182516,5415119.0,4148756.0,0.0
1577110182572,5418569.0,4142882.0,0.0
1577110182615,5418309.0,4141698.0,0.0
1577110182664,5397650.0,4142075.0,0.0
1577110182714,5376065.0,4138272.0,0.0
1577110182764,5367143.0,4133430.0,0.0
1577110182808,5356651.0,4126803.0,0.0
1577110182860,5356854.0,4123162.0,0.0
1577110182908,5345320.0,4120005.0,0.0
1577110182958,5338583.0,4119198.0,0.0
1577110183004,5325307.0,4117790.0,0.0
1577110183054,5293015.0,4100150.0,0.0
1577110183106,5242642.0,4080808.0,0.0
1577110183156,5187892.0,4061832.0,0.0
1577110183198,5155835.0,4049017.0,0.0
1577110183248,5208584.0,4046317.0,0.0
1577110183302,5227863.0,4042624.0,0.0
1577110183347,5231425.0,4033915.0,0.0
1577110183404,5227818.0,4023182.0,0.0
1577110183448,5177319.0,4013864.0,0.0
1577110183496,5137497.0,4004473.0,0.0
1577110183545,5163662.0,3998852.0,0.0
1577110183590,5156561.0,3992484.0,0.0
1577110183639,5031052.0,3982520.0,0.0
1577110183687,4971688.0,3965474.0,0.0
1577110183747,4937067.0,3945484.0,0.0
1577110183791,4901959.0,3930689.0,0.0
1577110183833,4866352.0,3923586.0,0.0
1577110183882,4843194.0,3923307.0,0.0
1577110183930,4828348.0,3917255.0,0.0
1577110183982,4806842.0,3912009.0,0.0
1577110184027,4783811.0,3901417.0,0.0
1577110184080,4757453.0,3895751.0,0.0
1577110184125,4704729.0,3891921.0,0.0
1577110184174,4624595.0,3887886.0,0.0
1577110184224,4564045.0,3885742.0,0.0
1577110184275,4538242.0,3878432.0,0.0
1577110184325,4521927.0,3864112.0,0.0
1577110184368,4500691.0,3849305.0,0.0
1577110184423,4479774.0,3843890.0,0.0
1577110184465,4490605.0,3844912.0,0.0
1577110184518,4488005.0,3846158.0,0.0
1577110184569,4458345.0,3846221.0,0.0
1577110184616,4441488.0,3840867.0,0.0
1577110184666,4400861.0,3835477.0,0.0
1577110184709,4377658.0,3833730.0,0.0
1577110184765,4364655.0,3834733.0,0.0
1577110184812,4367662.0,3838338.0,0.0
1577110184855,4364633.0,3835416.0,0.0
1577110184904,4368296.0,3816681.0,0.0
1577110184951,4374550.0,3801813.0,0.0
1577110185005,4349797.0,3792855.0,0.0
1577110185050,4333279.0,3795518.0,0.0
1577110185103,4287360.0,3798521.0,0.0
1577110185151,4254140.0,3801973.0,0.0
1577110185196,4256989.0,3798072.0,0.0
1577110185247,4237450.0,3795760.0,0.0
1577110185297,4218953.0,3795464.0,0.0
1577110185344,4208300.0,3795348.0,0.0
1577110185396,4201065.0,3796199.0,0.0
1577110185440,4187530.0,3794371.0,0.0
1577110185490,4158923.0,3769906.0,0.0
1577110185541,4138286.0,3746653.0,0.0
1577110185586,4122197.0,3731480.0,0.0
1577110185639,4108956.0,3727059.0,0.0
1577110185684,4129808.0,3727041.0,0.0
1577110185730,4147049.0,3727721.0,0.0
1577110185784,4135584.0,3722144.0,0.0
1577110185833,4139666.0,3714011.0,0.0
1577110185885,4127918.0,3709275.0,0.0
1577110185931,4103970.0,3706971.0,0.0
1577110185977,4081763.0,3708718.0,0.0
1577110186022,4059702.0,3702676.0,0.0
1577110186071,4027331.0,3683313.0,0.0
1577110186124,3989282.0,3656338.0,0.0
1577110186168,3965344.0,3642906.0,0.0
1577110186223,3947910.0,3633741.0,0.0
1577110186265,3929049.0,3629929.0,0.0
1577110186317,3918782.0,3629078.0,0.0
1577110186364,3899005.0,3624594.0,0.0
1577110186412,3886433.0,3619212.0,0.0
1577110186465,3877014.0,3618019.0,0.0
1577110186510,3870614.0,3617212.0,0.0
1577110186566,3856818.0,3622637.0,0.0
1577110186608,3852625.0,3628997.0,0.0
1577110186667,3836501.0,3621337.0,0.0
1577110186706,3812473.0,3597860.0,0.0
1577110186752,3792538.0,3583467.0,0.0
1577110186804,3780077.0,3577646.0,0.0
1577110186854,3773068.0,3575621.0,0.0
1577110186906,3766316.0,3577969.0,0.0
1577110186947,3763921.0,3578248.0,0.0
1577110187001,3757397.0,3578185.0,0.0
1577110187043,3752827.0,3579495.0,0.0
1577110187097,3743297.0,3581773.0,0.0
1577110187143,3764339.0,3585477.0,0.0
1577110187198,3765684.0,3589638.0,0.0
1577110187243,3762043.0,3594587.0,0.0
1577110187291,3759272.0,3599063.0,0.0
1577110187338,3744325.0,3588400.0,0.0
1577110187387,3728711.0,3575127.0,0.0
1577110187434,3720456.0,3570267.0,0.0
1577110187485,3720285.0,3573566.0,0.0
1577110187531,3726358.0,3577845.0,0.0
1577110187585,3730135.0,3582275.0,0.0
1577110187629,3729275.0,3587405.0,0.0
1577110187682,3730734.0,3587082.0,0.0
1577110187727,3737439.0,3589601.0,0.0
1577110187779,3745399.0,3595906.0,0.0
1577110187825,3746484.0,3603537.0,0.0
1577110187872,3756389.0,3610370.0,0.0
1577110187929,3764270.0,3617688.0,0.0
1577110187973,3774695.0,3625364.0,0.0
1577110188017,3778190.0,3634600.0,0.0
1577110188067,3782418.0,3642268.0,0.0
1577110188324,3785155.0,3649980.0,0.0
1577110188325,3791441.0,3660751.0,0.0
1577110188325,3784171.0,3662634.0,0.0
1577110188325,3784001.0,3655568.0,0.0
1577110188326,3788875.0,3658177.0,0.0
1577110188379,3791656.0,3661433.0,0.0
1577110188478,3798972.0,3669296.0,0.0
1577110188478,3799864.0,3677324.0,0.0
1577110188506,3808075.0,3683009.0,0.0
1577110188554,3813501.0,3689287.0,0.0
1577110188607,3820694.0,3692200.0,0.0
1577110188654,3827262.0,3702558.0,0.0
1577110188699,3831560.0,3708889.0,0.0
1577110188749,3839349.0,3716530.0,0.0
1577110188804,3845162.0,3726008.0,0.0
1577110188844,3852194.0,3735883.0,0.0
1577110188900,3858956.0,3742697.0,0.0
1577110188951,3867278.0,3750115.0,0.0
1577110189000,3876788.0,3759378.0,0.0
1577110189047,3885472.0,3768183.0,0.0
1577110189095,3890265.0,3776211.0,0.0
1577110189143,3888806.0,3778291.0,0.0
1577110189191,3894664.0,3776550.0,0.0
1577110189240,3897616.0,3776534.0,0.0
1577110189295,3905361.0,3781688.0,0.0
1577110189331,3911692.0,3790685.0,0.0
1577110189386,3914599.0,3793680.0,0.0
1577110189434,3915979.0,3796656.0,0.0
1577110189478,3921462.0,3799312.0,0.0
1577110189527,3926572.0,3802997.0,0.0
1577110189576,3932791.0,3810933.0,0.0
1577110189627,3944110.0,3817354.0,0.0
1577110189673,3946055.0,3824339.0,0.0
1577110189722,3950906.0,3833441.0,0.0
1577110189770,3952318.0,3839020.0,0.0
1577110189821,3959466.0,3846123.0,0.0
1577110189868,3966984.0,3851125.0,0.0
1577110189921,3969235.0,3860246.0,0.0
1577110189964,3971395.0,3864649.0,0.0
1577110190017,3965673.0,3869708.0,0.0
1577110190070,3969324.0,3863645.0,0.0
1577110190110,3970909.0,3866183.0,0.0
1577110190167,3975635.0,3870793.0,0.0
1577110190207,3981864.0,3874586.0,0.0
1577110190256,3983278.0,3875886.0,0.0
1577110190304,3988819.0,3880155.0,0.0
1577110190354,3989089.0,3879222.0,0.0
1577110190411,3991962.0,3880441.0,0.0
1577110190455,3994630.0,3884539.0,0.0
1577110190507,4002612.0,3887445.0,0.0
1577110190551,4005044.0,3892549.0,0.0
1577110190599,4004683.0,3894664.0,0.0
1577110190649,4013671.0,3899300.0,0.0
1577110190692,4016601.0,3901086.0,0.0
1577110190747,4016373.0,3907228.0,0.0
1577110190795,4019234.0,3908628.0,0.0
1577110190842,4017255.0,3908331.0,0.0
1577110190891,4014949.0,3903587.0,0.0
1577110190939,4014701.0,3898924.0,0.0
1577110190991,4015152.0,3899192.0,0.0
1577110191036,4018816.0,3901149.0,0.0
1577110191086,4019462.0,3901517.0,0.0
1577110191134,4022152.0,3901049.0,0.0
1577110191186,4015063.0,3900314.0,0.0
1577110191230,4017414.0,3898404.0,0.0
1577110191280,4017787.0,3901748.0,0.0
1577110191327,4023147.0,3900448.0,0.0
1577110191376,4027286.0,3904178.0,0.0
1577110191427,4027003.0,3905076.0,0.0
1577110191474,4029604.0,3909156.0,0.0
1577110191523,4029513.0,3911541.0,0.0
1577110191571,4020321.0,3911354.0,0.0
1577110191622,4021666.0,3906385.0,0.0
1577110191669,4017064.0,3901696.0,0.0
1577110191719,4020366.0,3901856.0,0.0
1577110191766,4019709.0,3899345.0,0.0
1577110191816,4017617.0,3902941.0,0.0
1577110191864,4016363.0,3903784.0,0.0
1577110191917,4017483.0,3899237.0,0.0
1577110191965,4016351.0,3900314.0,0.0
1577110192009,4011908.0,3897409.0,0.0
1577110192062,4010664.0,3900009.0,0.0
1577110192108,4014407.0,3898727.0,0.0
1577110192170,4011194.0,3902681.0,0.0
1577110192208,4010233.0,3904404.0,0.0
1577110192256,4007984.0,3903991.0,0.0
1577110192306,3997379.0,3898278.0,0.0
1577110192352,3989508.0,3891185.0,0.0
1577110192402,3981899.0,3886218.0,0.0
1577110192449,3978540.0,3884245.0,0.0
1577110192500,3978721.0,3887203.0,0.0
1577110192552,3974030.0,3887445.0,0.0
1577110192600,3963479.0,3882827.0,0.0
1577110192648,3958867.0,3883357.0,0.0
1577110192690,3954966.0,3881213.0,0.0
1577110192742,3951709.0,3877562.0,0.0
1577110192793,3946112.0,3879751.0,0.0
1577110192837,3942458.0,3880701.0,0.0
1577110192889,3941317.0,3882154.0,0.0
1577110192935,3931310.0,3879572.0,0.0
1577110192984,3921054.0,3869519.0,0.0
1577110193031,3902963.0,3859923.0,0.0
1577110193085,3893692.0,3854955.0,0.0
1577110193129,3896145.0,3856266.0,0.0
1577110193185,3894676.0,3855798.0,0.0
1577110193232,3886071.0,3854319.0,0.0
1577110193276,3875488.0,3849665.0,0.0
1577110193328,3869586.0,3843951.0,0.0
1577110193372,3857554.0,3842104.0,0.0
1577110193427,3854354.0,3841926.0,0.0
1577110193474,3851166.0,3845467.0,0.0
1577110193525,3851414.0,3849000.0,0.0
1577110193570,3850792.0,3848903.0,0.0
1577110193617,3839022.0,3838616.0,0.0
1577110193671,3826765.0,3825854.0,0.0
1577110193720,3819054.0,3818654.0,0.0
1577110193769,3810866.0,3813363.0,0.0
1577110193811,3807634.0,3811319.0,0.0
1577110193862,3800385.0,3811139.0,0.0
1577110193907,3786160.0,3804190.0,0.0
1577110193960,3781504.0,3798306.0,0.0
1577110194007,3782995.0,3793922.0,0.0
1577110194055,3779072.0,3792603.0,0.0
1577110194104,3777704.0,3793491.0,0.0
1577110194157,3778190.0,3792164.0,0.0
1577110194202,3773350.0,3790612.0,0.0
1577110194253,3760258.0,3776479.0,0.0
1577110194299,3745410.0,3760121.0,0.0
1577110194350,3737506.0,3747163.0,0.0
1577110194399,3730224.0,3737559.0,0.0
1577110194449,3727398.0,3735612.0,0.0
1577110194501,3721892.0,3731874.0,0.0
1577110194545,3713152.0,3723713.0,0.0
1577110194598,3707272.0,3716727.0,0.0
1577110194644,3702217.0,3708458.0,0.0
1577110194694,3698011.0,3707194.0,0.0
1577110194735,3697525.0,3707347.0,0.0
1577110194785,3696631.0,3705571.0,0.0
1577110194834,3694925.0,3704925.0,0.0
1577110194883,3686964.0,3697913.0,0.0
1577110194929,3672807.0,3675188.0,0.0
1577110194983,3659385.0,3654330.0,0.0
1577110195034,3653562.0,3644619.0,0.0
1577110195082,3651323.0,3636977.0,0.0
1577110195126,3578615.0,3633785.0,0.0
1577110195176,3568900.0,3629740.0,0.0
1577110195225,3565797.0,3621095.0,0.0
1577110195272,3563154.0,3614927.0,0.0
1577110195323,3560200.0,3612523.0,0.0
1577110195370,3563658.0,3614423.0,0.0
1577110195418,3566559.0,3615670.0,0.0
1577110195467,3567693.0,3616227.0,0.0
1577110195516,3569680.0,3619563.0,0.0
1577110195568,3571358.0,3621849.0,0.0
1577110195611,3562977.0,3615752.0,0.0
1577110195672,3549866.0,3589735.0,0.0
1577110195713,3540512.0,3574257.0,0.0
1577110195764,3534396.0,3565899.0,0.0
1577110195812,3534689.0,3563209.0,0.0
1577110195856,3533866.0,3562142.0,0.0
1577110195909,3531048.0,3559873.0,0.0
1577110195953,3529589.0,3555785.0,0.0
1577110196006,3526241.0,3555945.0,0.0
1577110196050,3531938.0,3554834.0,0.0
1577110196104,3532373.0,3559155.0,0.0
1577110196153,3538271.0,3562528.0,0.0
1577110196195,3542274.0,3569755.0,0.0
1577110196250,3544588.0,3577378.0,0.0
1577110196301,3548674.0,3580767.0,0.0
1577110196344,3553724.0,3586427.0,0.0
1577110196394,3558582.0,3592543.0,0.0
1577110196442,3564269.0,3598882.0,0.0
1577110196491,3570310.0,3607312.0,0.0
1577110196538,3573522.0,3611832.0,0.0
1577110196587,3574546.0,3619553.0,0.0
1577110196635,3561409.0,3602730.0,0.0
1577110196690,3553824.0,3583861.0,0.0
1577110196736,3551357.0,3580157.0,0.0
1577110196787,3547692.0,3575692.0,0.0
1577110196837,3547266.0,3577010.0,0.0
1577110196882,3543172.0,3578579.0,0.0
1577110196933,3542188.0,3576850.0,0.0
1577110196975,3539488.0,3574974.0,0.0
1577110197030,3541091.0,3577073.0,0.0
1577110197072,3546778.0,3582435.0,0.0
1577110197126,3548103.0,3587161.0,0.0
1577110197178,3550368.0,3596371.0,0.0
1577110197224,3556955.0,3601214.0,0.0
1577110197268,3560183.0,3609069.0,0.0
1577110197322,3562063.0,3614864.0,0.0
1577110197364,3570285.0,3624189.0,0.0
1577110197413,3574966.0,3632188.0,0.0
1577110197461,3582415.0,3637032.0,0.0
1577110197513,3587348.0,3648698.0,0.0
1577110197558,3594630.0,3657057.0,0.0
1577110197606,3599101.0,3664347.0,0.0
1577110197655,3607549.0,3674319.0,0.0
1577110197704,3612397.0,3683279.0,0.0
1577110197752,3609772.0,3686820.0,0.0
1577110197802,3602322.0,3673467.0,0.0
1577110197854,3597557.0,3664024.0,0.0
1577110197902,3593640.0,3658975.0,0.0
1577110197949,3592466.0,3661092.0,0.0
1577110197999,3595158.0,3663880.0,0.0
1577110198047,3595394.0,3666714.0,0.0
1577110198096,3595544.0,3665773.0,0.0
1577110198151,3594839.0,3668813.0,0.0
1577110198206,3597742.0,3673333.0,0.0
1577110198247,3600091.0,3677395.0,0.0
1577110198295,3605745.0,3685296.0,0.0
1577110198345,3608287.0,3687994.0,0.0
1577110198395,3617154.0,3698192.0,0.0
1577110198436,3622028.0,3704531.0,0.0
1577110198492,3624754.0,3711634.0,0.0
1577110198536,3628572.0,3716512.0,0.0
1577110198589,3634511.0,3723838.0,0.0
1577110198635,3639696.0,3732295.0,0.0
1577110198681,3644519.0,3739729.0,0.0
1577110198734,3651155.0,3748634.0,0.0
1577110198776,3656777.0,3754229.0,0.0
1577110198830,3654152.0,3761280.0,0.0
1577110198877,3649822.0,3755818.0,0.0
1577110198929,3644797.0,3745836.0,0.0
1577110198978,3638798.0,3742258.0,0.0
1577110199022,3640921.0,3741649.0,0.0
1577110199069,3644948.0,3743057.0,0.0
1577110199120,3643026.0,3749495.0,0.0
1577110199167,3640937.0,3748258.0,0.0
1577110199215,3640393.0,3747128.0,0.0
1577110199265,3639377.0,3748868.0,0.0
1577110199315,3639856.0,3753378.0,0.0
1577110199362,3642305.0,3757253.0,0.0
1577110199410,3645074.0,3764939.0,0.0
1577110199464,3650251.0,3766400.0,0.0
1577110199512,3655393.0,3773734.0,0.0
1577110199555,3656801.0,3778210.0,0.0
1577110199610,3661155.0,3783170.0,0.0
1577110199660,3662246.0,3788891.0,0.0
1577110199706,3667791.0,3793239.0,0.0
1577110199757,3663362.0,3798700.0,0.0
1577110199805,3657262.0,3794872.0,0.0
1577110199847,3650251.0,3788728.0,0.0
1577110199897,3645929.0,3784856.0,0.0
1577110199951,3649605.0,3788873.0,0.0
1577110199998,3650878.0,3791662.0,0.0
1577110200041,3649385.0,3797418.0,0.0
1577110200094,3646785.0,3797481.0,0.0
1577110200140,3649806.0,3797822.0,0.0
1577110200189,3647825.0,3800486.0,0.0
1577110200239,3652388.0,3802467.0,0.0
1577110200287,3655141.0,3810243.0,0.0
1577110200338,3657339.0,3814530.0,0.0
1577110200385,3663756.0,3820080.0,0.0
1577110200432,3665401.0,3827076.0,0.0
1577110200482,3669989.0,3832259.0,0.0
1577110200530,3670987.0,3837943.0,0.0
1577110200579,3667783.0,3839782.0,0.0
1577110200628,3658949.0,3828321.0,0.0
1577110200678,3646734.0,3820377.0,0.0
1577110200730,3645669.0,3817228.0,0.0
1577110200788,3646039.0,3818097.0,0.0
1577110200826,3643991.0,3821417.0,0.0
1577110200872,3643832.0,3825594.0,0.0
1577110200926,3638219.0,3822008.0,0.0
1577110200973,3634939.0,3821236.0,0.0
1577110201016,3634478.0,3823227.0,0.0
1577110201065,3631786.0,3825353.0,0.0
1577110201118,3634360.0,3828994.0,0.0
1577110201172,3635988.0,3831226.0,0.0
1577110201220,3639462.0,3836123.0,0.0
1577110201263,3639033.0,3842007.0,0.0
1577110201310,3642347.0,3844768.0,0.0
1577110201359,3635720.0,3848769.0,0.0
1577110201408,3622070.0,3834796.0,0.0
1577110201455,3607700.0,3821541.0,0.0
1577110201505,3602659.0,3813264.0,0.0
1577110201554,3597541.0,3811094.0,0.0
1577110201606,3597474.0,3815336.0,0.0
1577110201657,3594219.0,3812924.0,0.0
1577110201700,3589613.0,3810960.0,0.0
1577110201755,3586039.0,3808467.0,0.0
1577110201799,3583656.0,3806943.0,0.0
1577110201850,3583069.0,3808449.0,0.0
1577110201903,3584109.0,3811086.0,0.0
1577110201948,3587506.0,3815050.0,0.0
1577110201995,3591635.0,3818995.0,0.0
1577110202047,3589495.0,3821614.0,0.0
1577110202095,3593648.0,3827094.0,0.0
1577110202137,3593656.0,3831899.0,0.0
1577110202201,3584570.0,3826159.0,0.0
1577110202240,3569068.0,3808396.0,0.0
1577110202291,3556945.0,3793698.0,0.0
1577110202337,3552835.0,3788129.0,0.0
1577110202382,3551199.0,3785402.0,0.0
1577110202431,3549555.0,3787885.0,0.0
1577110202478,3549647.0,3786254.0,0.0
1577110202528,3543649.0,3783296.0,0.0
1577110202579,3538574.0,3779403.0,0.0
1577110202626,3538364.0,3775447.0,0.0
1577110202676,3538346.0,3774175.0,0.0
1577110202726,3543456.0,3778901.0,0.0
1577110202772,3548113.0,3783052.0,0.0
1577110202823,3551502.0,3786658.0,0.0
1577110202869,3552574.0,3789259.0,0.0
1577110202923,3559044.0,3792558.0,0.0
1577110202972,3562374.0,3797006.0,0.0
1577110203021,3559228.0,3794594.0,0.0
1577110203064,3543791.0,3775063.0,0.0
1577110203112,3530638.0,3756383.0,0.0
1577110203162,3523011.0,3744885.0,0.0
1577110203215,3524354.0,3743863.0,0.0
1577110203264,3525126.0,3745156.0,0.0
1577110203312,3528431.0,3743577.0,0.0
1577110203359,3523892.0,3738725.0,0.0
1577110203410,3519286.0,3732079.0,0.0
1577110203458,3517056.0,3729050.0,0.0
1577110203503,3521450.0,3727579.0,0.0
1577110203551,3525268.0,3729757.0,0.0
1577110203602,3529488.0,3737012.0,0.0
1577110203650,3536115.0,3739174.0,0.0
1577110203697,3541770.0,3743863.0,0.0
1577110203746,3547097.0,3747118.0,0.0
1577110203800,3550679.0,3752813.0,0.0
1577110203845,3552885.0,3755396.0,0.0
1577110203897,3548086.0,3751182.0,0.0
1577110203942,3535957.0,3728483.0,0.0
1577110203996,3530209.0,3713678.0,0.0
1577110204041,3531702.0,3710002.0,0.0
1577110204085,3533791.0,3710602.0,0.0
1577110204137,3536418.0,3710835.0,0.0
1577110204191,3537483.0,3713670.0,0.0
1577110204240,3538163.0,3706782.0,0.0
1577110204290,3540764.0,3701132.0,0.0
1577110204333,3541132.0,3698594.0,0.0
1577110204386,3549572.0,3699177.0,0.0
1577110204431,3557760.0,3705258.0,0.0
1577110204479,3560143.0,3709984.0,0.0
1577110204530,3566594.0,3712763.0,0.0
1577110204577,3576106.0,3718422.0,0.0
1577110204625,3585485.0,3716171.0,0.0
1577110204669,3574135.0,3704378.0,0.0
1577110204725,3558658.0,3685430.0,0.0
1577110204766,3555864.0,3678327.0,0.0
1577110204817,3557264.0,3678004.0,0.0
1577110204865,3561173.0,3684973.0,0.0
1577110204915,3564747.0,3689421.0,0.0
1577110204965,3566661.0,3688129.0,0.0
1577110205011,3566996.0,3681475.0,0.0
1577110205062,3568103.0,3682785.0,0.0
1577110205106,3569857.0,3683799.0,0.0
1577110205164,3575873.0,3685888.0,0.0
1577110205205,3582852.0,3693348.0,0.0
1577110205260,3589160.0,3699411.0,0.0
1577110205303,3593833.0,3704557.0,0.0
1577110205356,3594496.0,3710764.0,0.0
1577110205408,3584916.0,3700335.0,0.0
1577110205454,3572138.0,3674114.0,0.0
1577110205499,3565586.0,3659765.0,0.0
1577110205551,3567382.0,3659030.0,0.0
1577110205602,3567843.0,3659101.0,0.0
1577110205643,3573120.0,3662195.0,0.0
1577110205692,3574798.0,3660966.0,0.0
1577110205747,3571508.0,3656114.0,0.0
1577110205794,3573975.0,3654330.0,0.0
1577110205843,3574924.0,3649891.0,0.0
1577110205887,3576382.0,3655100.0,0.0
1577110205936,3581334.0,3655092.0,0.0
1577110205988,3588305.0,3665198.0,0.0
1577110206034,3593329.0,3669432.0,0.0
1577110206084,3599672.0,3673602.0,0.0
1577110206130,3595008.0,3672561.0,0.0
1577110206186,3579889.0,3646350.0,0.0
1577110206228,3569781.0,3630736.0,0.0
1577110206275,3567071.0,3622377.0,0.0
1577110206332,3566551.0,3620585.0,0.0
1577110206374,3567290.0,3624576.0,0.0
1577110206429,3570921.0,3623759.0,0.0
1577110206475,3572173.0,3622146.0,0.0
1577110206525,3570176.0,3617186.0,0.0
1577110206568,3569009.0,3616747.0,0.0
1577110206620,3573757.0,3617877.0,0.0
1577110206669,3579387.0,3623060.0,0.0
1577110206719,3584822.0,3628952.0,0.0
1577110206791,3589176.0,3635023.0,0.0
1577110206837,3596131.0,3641929.0,0.0
1577110206867,3599587.0,3647640.0,0.0
1577110206916,3595233.0,3646752.0,0.0
1577110206965,3584136.0,3627042.0,0.0
1577110207008,3574176.0,3608998.0,0.0
1577110207057,3571291.0,3600900.0,0.0
1577110207104,3572197.0,3599412.0,0.0
1577110207154,3574889.0,3602765.0,0.0
1577110207207,3576417.0,3604146.0,0.0
1577110207250,3572423.0,3601798.0,0.0
1577110207300,3577406.0,3600524.0,0.0
1577110207349,3579026.0,3597458.0,0.0
1577110207405,3583238.0,3602452.0,0.0
1577110207448,3586517.0,3609124.0,0.0
1577110207505,3593287.0,3618100.0,0.0
1577110207550,3600847.0,3623677.0,0.0
1577110207605,3607675.0,3631991.0,0.0
1577110207648,3613992.0,3636081.0,0.0
1577110207690,3607373.0,3633444.0,0.0
1577110207745,3600217.0,3612541.0,0.0
1577110207784,3593547.0,3599097.0,0.0
1577110207835,3593094.0,3598336.0,0.0
1577110207886,3595083.0,3601787.0,0.0
1577110207938,3597793.0,3606345.0,0.0
1577110207984,3596493.0,3604506.0,0.0
1577110208034,3595326.0,3604963.0,0.0
1577110208082,3594018.0,3602990.0,0.0
1577110208127,3598388.0,3604603.0,0.0
1577110208177,3604815.0,3608120.0,0.0
1577110208229,3608764.0,3613653.0,0.0
1577110208273,3614697.0,3623113.0,0.0
1577110208321,3625333.0,3630368.0,0.0
1577110208369,3629931.0,3635947.0,0.0
1577110208418,3631776.0,3642951.0,0.0
1577110208468,3622741.0,3631248.0,0.0
1577110208517,3614856.0,3617428.0,0.0
1577110208567,3610317.0,3608693.0,0.0
1577110208614,3613984.0,3612048.0,0.0
1577110208668,3616861.0,3620297.0,0.0
1577110208714,3620400.0,3622621.0,0.0
1577110208767,3618312.0,3623740.0,0.0
1577110208810,3619504.0,3621105.0,0.0
1577110208857,3619303.0,3622298.0,0.0
1577110208909,3621987.0,3625776.0,0.0
1577110208960,3626542.0,3630082.0,0.0
1577110209011,3632859.0,3641041.0,0.0
1577110209056,3638060.0,3647075.0,0.0
1577110209100,3643329.0,3656051.0,0.0
1577110209147,3643739.0,3659639.0,0.0
1577110209204,3630476.0,3646510.0,0.0
1577110209247,3622172.0,3630673.0,0.0
1577110209297,3619293.0,3623141.0,0.0
1577110209344,3615309.0,3626522.0,0.0
1577110209395,3618874.0,3633633.0,0.0
1577110209443,3620845.0,3639381.0,0.0
1577110209491,3619872.0,3639228.0,0.0
1577110209539,3617633.0,3635364.0,0.0
1577110209589,3619813.0,3634448.0,0.0
1577110209635,3625216.0,3639541.0,0.0
1577110209685,3630427.0,3649003.0,0.0
1577110209732,3634562.0,3656679.0,0.0
1577110209782,3639444.0,3665432.0,0.0
1577110209830,3643891.0,3673118.0,0.0
1577110209884,3648085.0,3682131.0,0.0
1577110209929,3636181.0,3671655.0,0.0
1577110209980,3617540.0,3652116.0,0.0
1577110210030,3609285.0,3637731.0,0.0
1577110210080,3602683.0,3633623.0,0.0
1577110210127,3604429.0,3635543.0,0.0
1577110210174,3601568.0,3636234.0,0.0
1577110210221,3601206.0,3637829.0,0.0
1577110210272,3598689.0,3634763.0,0.0
1577110210318,3596694.0,3628099.0,0.0
1577110210368,3599605.0,3631695.0,0.0
1577110210414,3602070.0,3637794.0,0.0
1577110210465,3607054.0,3644789.0,0.0
1577110210512,3609681.0,3650663.0,0.0
1577110210563,3615108.0,3659603.0,0.0
1577110210610,3618346.0,3666041.0,0.0
1577110210658,3618799.0,3673638.0,0.0
1577110210708,3627070.0,3679951.0,0.0
1577110210755,3621550.0,3683691.0,0.0
1577110210811,3608523.0,3662059.0,0.0
1577110210853,3589613.0,3640708.0,0.0
1577110210908,3585720.0,3633265.0,0.0
1577110210948,3584369.0,3629929.0,0.0
1577110210998,3585938.0,3634001.0,0.0
1577110211053,3582423.0,3636620.0,0.0
1577110211100,3578766.0,3633391.0,0.0
1577110211150,3576366.0,3629919.0,0.0
1577110211203,3576862.0,3629588.0,0.0
1577110211245,3580913.0,3635372.0,0.0
1577110211294,3582835.0,3641346.0,0.0
1577110211376,3588866.0,3650178.0,0.0
1577110211414,3597372.0,3660409.0,0.0
1577110211433,3602876.0,3666895.0,0.0
1577110211488,3608992.0,3673018.0,0.0
1577110211532,3615979.0,3676812.0,0.0
1577110211582,3619697.0,3681664.0,0.0
1577110211632,3630518.0,3689061.0,0.0
1577110211678,3627322.0,3690416.0,0.0
1577110211731,3612936.0,3669136.0,0.0
1577110211774,3600217.0,3649792.0,0.0
1577110211823,3597750.0,3638440.0,0.0
1577110211872,3600091.0,3636933.0,0.0
1577110211920,3602289.0,3642770.0,0.0
1577110211971,3603984.0,3640752.0,0.0
1577110212022,3602330.0,3635732.0,0.0
1577110212069,3602399.0,3630959.0,0.0
1577110212117,3602080.0,3631095.0,0.0
1577110212166,3603555.0,3634844.0,0.0
1577110212215,3611089.0,3641443.0,0.0
1577110212265,3618765.0,3649263.0,0.0
1577110212312,3624244.0,3652555.0,0.0
1577110212362,3628800.0,3662858.0,0.0
1577110212408,3635955.0,3665424.0,0.0
1577110212459,3641626.0,3671665.0,0.0
1577110212507,3648932.0,3677610.0,0.0
1577110212555,3641457.0,3671881.0,0.0
1577110212605,3630132.0,3653227.0,0.0
1577110212657,3622532.0,3640017.0,0.0
1577110212702,3624126.0,3638422.0,0.0
1577110212748,3630100.0,3644062.0,0.0
1577110212802,3633556.0,3653217.0,0.0
1577110212855,3634108.0,3653900.0,0.0
1577110212902,3635157.0,3649048.0,0.0
1577110212945,3637229.0,3649066.0,0.0
1577110212994,3641291.0,3650708.0,0.0
1577110213043,3647112.0,3657567.0,0.0
1577110213091,3655308.0,3664518.0,0.0
1577110213142,3662531.0,3675109.0,0.0
1577110213191,3668026.0,3683600.0,0.0
1577110213237,3673085.0,3692137.0,0.0
1577110213286,3679654.0,3695061.0,0.0
1577110213334,3681676.0,3702603.0,0.0
1577110213387,3669713.0,3682696.0,0.0
1577110213436,3659310.0,3661155.0,0.0
1577110213486,3656281.0,3653451.0,0.0
1577110213535,3658621.0,3653057.0,0.0
1577110213582,3660804.0,3656141.0,0.0
1577110213630,3665233.0,3659674.0,0.0
1577110213675,3664503.0,3658607.0,0.0
1577110213727,3662329.0,3653569.0,0.0
1577110213772,3663219.0,3656553.0,0.0
1577110213826,3669243.0,3658187.0,0.0
1577110213872,3672632.0,3667970.0,0.0
1577110213922,3678874.0,3676946.0,0.0
1577110213971,3687027.0,3686255.0,0.0
1577110214019,3690987.0,3691769.0,0.0
1577110214069,3696599.0,3702568.0,0.0
1577110214113,3703025.0,3708925.0,0.0
1577110214163,3700660.0,3712298.0,0.0
1577110214212,3689276.0,3690837.0,0.0
1577110214259,3677431.0,3671316.0,0.0
1577110214308,3672423.0,3665781.0,0.0
1577110214356,3673035.0,3665180.0,0.0
1577110214405,3675014.0,3671198.0,0.0
1577110214454,3679520.0,3674292.0,0.0
1577110214503,3676684.0,3674158.0,0.0
1577110214552,3677740.0,3673565.0,0.0
1577110214604,3677037.0,3673728.0,0.0
1577110214652,3681718.0,3679431.0,0.0
1577110214697,3687976.0,3686400.0,0.0
1577110214749,3693102.0,3694963.0,0.0
1577110214794,3699712.0,3707885.0,0.0
1577110214848,3704250.0,3714870.0,0.0
1577110214893,3708017.0,3720072.0,0.0
1577110214944,3713428.0,3729515.0,0.0
1577110214993,3716658.0,3738922.0,0.0
1577110215041,3707312.0,3727884.0,0.0
1577110215090,3693714.0,3706827.0,0.0
1577110215140,3687062.0,3695232.0,0.0
1577110215189,3686700.0,3697393.0,0.0
1577110215237,3686869.0,3698173.0,0.0
1577110215285,3688244.0,3704998.0,0.0
1577110215333,3685384.0,3706146.0,0.0
1577110215379,3683606.0,3703643.0,0.0
1577110215431,3680282.0,3699447.0,0.0
1577110215480,3681475.0,3703320.0,0.0
1577110215523,3684855.0,3711500.0,0.0
1577110215573,3689183.0,3718960.0,0.0
1577110215622,3691030.0,3726833.0,0.0
1577110215677,3693824.0,3735946.0,0.0
1577110215720,3700459.0,3743030.0,0.0
1577110215768,3705811.0,3750231.0,0.0
1577110215816,3702095.0,3752535.0,0.0
1577110215865,3688277.0,3735775.0,0.0
1577110215914,3675560.0,3723373.0,0.0
1577110215964,3671826.0,3721293.0,0.0
1577110216014,3675560.0,3727382.0,0.0
1577110216060,3681332.0,3734779.0,0.0
1577110216113,3682960.0,3740527.0,0.0
1577110216160,3677238.0,3738294.0,0.0
1577110216210,3675593.0,3737012.0,0.0
1577110216252,3676491.0,3742492.0,0.0
1577110216307,3680266.0,3746724.0,0.0
1577110216359,3684000.0,3754258.0,0.0
1577110216405,3685743.0,3764356.0,0.0
1577110216452,3691625.0,3772982.0,0.0
1577110216498,3694561.0,3784173.0,0.0
1577110216550,3699309.0,3790791.0,0.0
1577110216593,3688663.0,3786908.0,0.0
1577110216648,3667791.0,3761987.0,0.0
1577110216697,3651508.0,3747898.0,0.0
1577110216739,3645594.0,3745048.0,0.0
1577110216787,3649428.0,3748232.0,0.0
1577110216836,3646021.0,3752320.0,0.0
1577110216885,3645653.0,3751692.0,0.0
1577110216936,3640425.0,3748203.0,0.0
1577110216982,3634620.0,3746033.0,0.0
1577110217036,3635183.0,3747441.0,0.0
1577110217078,3637825.0,3751765.0,0.0
1577110217127,3639722.0,3760956.0,0.0
1577110217177,3646055.0,3768372.0,0.0
1577110217225,3650015.0,3775341.0,0.0
1577110217275,3657723.0,3784076.0,0.0
1577110217323,3655903.0,3788802.0,0.0
1577110217375,3638916.0,3773529.0,0.0
1577110217419,3616810.0,3750141.0,0.0
1577110217467,3602188.0,3736358.0,0.0
1577110217518,3598766.0,3732610.0,0.0
1577110217565,3600627.0,3735623.0,0.0
1577110217614,3601887.0,3737971.0,0.0
1577110217663,3600000.0,3735560.0,0.0
1577110217715,3593782.0,3732977.0,0.0
1577110217761,3591005.0,3729838.0,0.0
1577110217808,3592399.0,3731220.0,0.0
1577110217860,3596107.0,3735623.0,0.0
1577110217910,3601147.0,3741765.0,0.0
1577110217956,3604370.0,3746939.0,0.0
1577110218004,3609268.0,3749532.0,0.0
1577110218057,3614872.0,3755700.0,0.0
1577110218101,3615997.0,3763234.0,0.0
1577110218149,3619193.0,3762598.0,0.0
1577110218200,3598279.0,3744572.0,0.0
1577110218246,3581190.0,3718448.0,0.0
1577110218296,3571484.0,3705912.0,0.0
1577110218344,3571460.0,3702469.0,0.0
1577110218396,3574479.0,3705760.0,0.0
1577110218444,3575996.0,3707696.0,0.0
1577110218491,3574873.0,3702093.0,0.0
1577110218542,3572567.0,3696542.0,0.0
1577110218587,3572012.0,3688102.0,0.0
1577110218638,3573473.0,3691895.0,0.0
1577110218687,3580109.0,3695008.0,0.0
1577110218737,3582659.0,3701841.0,0.0
1577110218784,3589579.0,3707402.0,0.0
1577110218833,3594847.0,3711634.0,0.0
1577110218881,3598388.0,3713454.0,0.0
1577110218929,3604603.0,3721274.0,0.0
1577110218979,3606593.0,3721784.0,0.0
1577110219027,3592490.0,3705006.0,0.0
1577110219078,3578028.0,3676623.0,0.0
1577110219124,3572004.0,3664778.0,0.0
1577110219173,3574068.0,3666096.0,0.0
1577110219222,3579704.0,3667665.0,0.0
1577110219269,3586450.0,3672740.0,0.0
1577110219320,3583355.0,3669306.0,0.0
1577110219368,3581468.0,3661110.0,0.0
1577110219417,3585099.0,3657809.0,0.0
1577110219465,3589152.0,3659172.0,0.0
1577110219514,3592708.0,3664195.0,0.0
1577110219563,3603439.0,3673862.0,0.0
1577110219611,3609563.0,3677135.0,0.0
1577110219661,3616014.0,3684874.0,0.0
1577110219708,3621786.0,3692200.0,0.0
1577110219759,3620258.0,3690327.0,0.0
1577110219809,3605595.0,3665808.0,0.0
1577110219855,3595351.0,3637337.0,0.0
1577110219903,3592029.0,3624584.0,0.0
1577110219955,3596525.0,3623257.0,0.0
1577110220006,3599831.0,3624925.0,0.0
1577110220052,3601895.0,3625858.0,0.0
1577110220100,3601340.0,3617499.0,0.0
1577110220151,3598632.0,3611286.0,0.0
1577110220198,3599630.0,3611034.0,0.0
1577110220248,3604989.0,3612665.0,0.0
1577110220292,3607456.0,3621384.0,0.0
1577110220342,3618799.0,3626126.0,0.0
1577110220390,3625216.0,3631687.0,0.0
1577110220440,3633832.0,3641112.0,0.0
1577110220487,3638966.0,3644771.0,0.0
1577110220535,3638656.0,3642628.0,0.0
1577110220585,3629285.0,3619965.0,0.0
1577110220633,3616853.0,3597395.0,0.0
1577110220684,3617934.0,3589126.0,0.0
1577110220734,3621701.0,3591161.0,0.0
1577110220780,3625660.0,3596094.0,0.0
1577110220831,3630309.0,3595735.0,0.0
1577110220875,3630226.0,3589583.0,0.0
1577110220928,3628966.0,3586247.0,0.0
1577110220978,3634529.0,3588632.0,0.0
1577110221022,3637709.0,3590893.0,0.0
1577110221074,3645535.0,3601375.0,0.0
1577110221121,3651492.0,3607931.0,0.0
1577110221172,3659704.0,3615563.0,0.0
1577110221216,3666442.0,3623338.0,0.0
1577110221265,3673665.0,3633355.0,0.0
1577110221317,3669847.0,3630171.0,0.0
1577110221364,3667053.0,3613590.0,0.0
1577110221415,3666474.0,3603592.0,0.0
1577110221467,3669032.0,3605168.0,0.0
1577110221507,3674469.0,3611706.0,0.0
1577110221559,3679150.0,3618155.0,0.0
1577110221606,3682791.0,3623903.0,0.0
1577110221655,3684502.0,3622324.0,0.0
1577110221703,3689092.0,3626126.0,0.0
1577110221752,3693923.0,3633284.0,0.0
1577110221803,3701666.0,3639757.0,0.0
1577110221848,3710055.0,3652796.0,0.0
1577110221906,3718428.0,3662025.0,0.0
1577110221944,3726331.0,3675170.0,0.0
1577110221998,3729838.0,3683421.0,0.0
1577110222049,3734528.0,3683080.0,0.0
1577110222096,3731415.0,3675198.0,0.0
1577110222145,3731675.0,3667323.0,0.0
1577110222193,3740056.0,3669701.0,0.0
1577110222244,3743227.0,3678587.0,0.0
1577110222291,3750491.0,3684929.0,0.0
1577110222339,3753730.0,3689537.0,0.0
1577110222384,3757521.0,3693752.0,0.0
1577110222437,3764803.0,3699169.0,0.0
1577110222484,3768964.0,3705518.0,0.0
1577110222533,3774720.0,3716226.0,0.0
1577110222585,3782521.0,3725730.0,0.0
1577110222631,3790407.0,3735281.0,0.0
1577110222684,3796297.0,3747594.0,0.0
1577110222729,3804718.0,3756722.0,0.0
1577110222774,3809332.0,3767143.0,0.0
1577110222823,3811137.0,3768641.0,0.0
1577110222871,3808243.0,3756580.0,0.0
1577110222923,3813595.0,3754912.0,0.0
1577110222967,3814812.0,3758364.0,0.0
1577110223016,3817780.0,3765063.0,0.0
1577110223066,3824660.0,3770695.0,0.0
1577110223114,3827529.0,3775646.0,0.0
1577110223165,3832017.0,3778641.0,0.0
1577110223214,3835205.0,3782085.0,0.0
1577110223263,3841859.0,3789653.0,0.0
1577110223312,3844618.0,3796388.0,0.0
1577110223358,3851899.0,3805490.0,0.0
1577110223410,3856489.0,3813597.0,0.0
1577110223454,3864399.0,3824806.0,0.0
1577110223504,3870388.0,3833451.0,0.0
1577110223551,3872839.0,3842661.0,0.0
1577110223603,3878383.0,3846733.0,0.0
1577110223650,3875498.0,3841718.0,0.0
1577110223699,3875088.0,3838705.0,0.0
1577110223746,3879348.0,3839441.0,0.0
1577110223798,3883904.0,3846796.0,0.0
1577110223849,3886472.0,3851664.0,0.0
1577110223895,3890306.0,3857154.0,0.0
1577110223949,3894450.0,3857592.0,0.0
1577110223989,3895732.0,3860319.0,0.0
1577110224038,3901647.0,3867008.0,0.0
1577110224086,3907856.0,3872926.0,0.0
1577110224135,3911277.0,3877528.0,0.0
1577110224186,3916832.0,3884836.0,0.0
1577110224232,3921747.0,3893857.0,0.0
1577110224286,3924532.0,3900432.0,0.0
1577110224329,3932200.0,3911003.0,0.0
1577110224379,3937318.0,3916761.0,0.0
1577110224427,3934701.0,3920060.0,0.0
1577110224475,3930817.0,3913695.0,0.0
1577110224527,3930926.0,3916572.0,0.0
1577110224575,3937485.0,3919721.0,0.0
1577110224628,3938661.0,3926339.0,0.0
1577110224674,3945388.0,3932848.0,0.0
1577110224724,3945404.0,3937269.0,0.0
1577110224771,3946882.0,3935835.0,0.0
1577110224820,3952780.0,3941396.0,0.0
1577110224865,3952485.0,3945996.0,0.0
1577110224917,3956152.0,3953143.0,0.0
1577110224968,3959322.0,3958802.0,0.0
1577110225014,3960901.0,3963806.0,0.0
1577110225063,3968073.0,3973231.0,0.0
1577110225111,3970271.0,3977750.0,0.0
1577110225160,3972644.0,3983894.0,0.0
1577110225206,3969298.0,3985741.0,0.0
1577110225254,3967620.0,3977902.0,0.0
1577110225306,3963491.0,3974450.0,0.0
1577110225351,3965925.0,3973993.0,0.0
1577110225402,3966630.0,3978288.0,0.0
1577110225448,3966319.0,3983794.0,0.0
1577110225498,3965572.0,3983776.0,0.0
1577110225546,3967360.0,3985454.0,0.0
1577110225594,3967016.0,3984585.0,0.0
1577110225649,3967687.0,3985336.0,0.0
1577110225696,3968810.0,3989857.0,0.0
1577110225744,3969759.0,3993981.0,0.0
1577110225793,3972049.0,3996225.0,0.0
1577110225841,3973325.0,3999587.0,0.0
1577110225890,3974733.0,4002277.0,0.0
1577110225940,3975127.0,4007486.0,0.0
1577110225989,3974180.0,4008106.0,0.0
1577110226036,3966689.0,4000386.0,0.0
1577110226087,3960295.0,3989786.0,0.0
1577110226133,3957544.0,3988457.0,0.0
1577110226184,3957788.0,3987740.0,0.0
1577110226230,3958072.0,3989802.0,0.0
1577110226281,3955220.0,3990538.0,0.0
1577110226328,3953560.0,3988475.0,0.0
1577110226374,3949490.0,3985336.0,0.0
1577110226430,3948418.0,3984861.0,0.0
1577110226471,3947973.0,3985410.0,0.0
1577110226522,3948257.0,3987364.0,0.0
1577110226568,3952209.0,3992108.0,0.0
1577110226617,3949651.0,3995229.0,0.0
1577110226666,3952268.0,3995103.0,0.0
1577110226714,3953214.0,4000646.0,0.0
1577110226765,3957855.0,4003443.0,0.0
1577110226813,3956882.0,4004187.0,0.0
1577110226862,3953131.0,3999193.0,0.0
1577110226907,3946873.0,3992242.0,0.0
1577110226964,3939364.0,3983605.0,0.0
1577110227011,3933535.0,3980629.0,0.0
1577110227060,3931538.0,3982216.0,0.0
1577110227110,3933844.0,3984288.0,0.0
1577110227157,3929843.0,3982208.0,0.0
1577110227207,3927688.0,3980316.0,0.0
1577110227254,3925833.0,3976315.0,0.0
1577110227304,3923023.0,3976844.0,0.0
1577110227348,3923374.0,3976431.0,0.0
1577110227401,3926656.0,3976691.0,0.0
1577110227451,3924087.0,3982673.0,0.0
1577110227498,3922872.0,3983508.0,0.0
1577110227547,3926009.0,3988861.0,0.0
1577110227590,3927680.0,3988502.0,0.0
1577110227643,3925733.0,3992261.0,0.0
1577110227689,3919760.0,3990619.0,0.0
1577110227738,3911816.0,3980997.0,0.0
1577110227787,3902998.0,3975680.0,0.0
1577110227834,3899912.0,3977868.0,0.0
1577110227883,3900590.0,3979410.0,0.0
1577110227931,3904172.0,3983813.0,0.0
1577110227981,3902134.0,3984199.0,0.0
1577110228029,3900448.0,3982961.0,0.0
1577110228079,3900086.0,3980621.0,0.0
1577110228132,3898493.0,3983713.0,0.0
1577110228179,3902084.0,3986844.0,0.0
1577110228228,3905590.0,3991040.0,0.0
1577110228272,3903719.0,3991704.0,0.0
1577110228327,3908636.0,4000887.0,0.0
1577110228370,3909818.0,4004116.0,0.0
1577110228422,3913551.0,4007452.0,0.0
1577110228471,3914575.0,4010652.0,0.0
1577110228520,3906245.0,4006241.0,0.0
1577110228566,3897797.0,3997299.0,0.0
1577110228613,3892528.0,3988557.0,0.0
1577110228663,3891949.0,3987094.0,0.0
1577110228710,3890531.0,3989032.0,0.0
1577110228760,3890322.0,3992421.0,0.0
1577110228810,3887150.0,3994278.0,0.0
1577110228858,3888174.0,3990091.0,0.0
1577110228912,3886405.0,3990215.0,0.0
1577110228954,3885943.0,3991328.0,0.0
1577110229008,3887737.0,3994880.0,0.0
1577110229057,3892158.0,3999085.0,0.0
1577110229106,3892998.0,4002726.0,0.0
1577110229152,3896858.0,4008035.0,0.0
1577110229199,3900515.0,4011971.0,0.0
1577110229247,3903349.0,4016357.0,0.0
1577110229297,3905489.0,4022276.0,0.0
1577110229345,3900531.0,4016176.0,0.0
1577110229394,3893132.0,4010168.0,0.0
1577110229443,3889509.0,4002098.0,0.0
1577110229491,3892427.0,4001460.0,0.0
1577110229541,3894306.0,4002923.0,0.0
1577110229588,3894633.0,4003793.0,0.0
1577110229642,3895507.0,4005757.0,0.0
1577110229692,3895113.0,4004258.0,0.0
1577110229738,3894324.0,4003399.0,0.0
1577110229787,3895507.0,4003317.0,0.0
1577110229836,3900188.0,4005542.0,0.0
1577110229879,3902092.0,4009882.0,0.0
1577110229929,3904054.0,4017074.0,0.0
1577110229982,3909180.0,4018732.0,0.0
1577110230034,3912636.0,4026634.0,0.0
1577110230080,3918157.0,4027960.0,0.0
1577110230129,3921966.0,4034050.0,0.0
1577110230178,3926983.0,4040013.0,0.0
1577110230225,3921245.0,4034094.0,0.0
1577110230276,3917058.0,4029019.0,0.0
1577110230324,3915966.0,4023253.0,0.0
1577110230370,3919106.0,4026894.0,0.0
1577110230418,3921001.0,4029870.0,0.0
1577110230465,3920841.0,4033844.0,0.0
1577110230513,3923267.0,4033771.0,0.0
1577110230563,3925288.0,4034704.0,0.0
1577110230611,3926076.0,4033217.0,0.0
1577110230662,3927873.0,4033753.0,0.0
1577110230709,3931530.0,4037914.0,0.0
1577110230757,3932669.0,4044092.0,0.0
1577110230805,3937460.0,4047169.0,0.0
1577110230854,3942653.0,4050990.0,0.0
1577110230907,3944466.0,4055895.0,0.0
1577110230950,3947192.0,4062953.0,0.0
1577110231005,3948702.0,4066996.0,0.0
1577110231051,3950053.0,4067805.0,0.0
1577110231101,3944273.0,4061742.0,0.0
1577110231149,3941059.0,4055322.0,0.0
1577110231198,3943013.0,4055671.0,0.0
1577110231248,3944852.0,4058674.0,0.0
1577110231296,3946747.0,4066108.0,0.0
1577110231345,3946898.0,4064603.0,0.0
1577110231394,3948434.0,4066245.0,0.0
1577110231443,3949651.0,4066119.0,0.0
1577110231491,3953542.0,4068289.0,0.0
1577110231539,3954533.0,4069042.0,0.0
1577110231588,3958005.0,4074252.0,0.0
1577110231633,3961268.0,4079721.0,0.0
1577110231682,3962963.0,4080995.0,0.0
1577110231733,3965338.0,4086790.0,0.0
1577110231779,3969893.0,4089614.0,0.0
1577110231827,3969676.0,4091560.0,0.0
1577110231876,3972813.0,4095953.0,0.0
1577110231925,3966000.0,4086753.0,0.0
1577110231974,3959365.0,4078681.0,0.0
1577110232023,3956796.0,4076907.0,0.0
1577110232075,3953332.0,4074288.0,0.0
1577110232127,3954322.0,4076521.0,0.0
1577110232172,3952536.0,4076986.0,0.0
1577110232222,3948726.0,4074871.0,0.0
1577110232265,3946739.0,4068656.0,0.0
1577110232318,3945305.0,4067122.0,0.0
1577110232364,3946563.0,4065410.0,0.0
1577110232411,3948726.0,4068664.0,0.0
1577110232465,3948407.0,4069715.0,0.0
1577110232513,3948324.0,4074225.0,0.0
1577110232562,3951362.0,4077104.0,0.0
1577110232611,3953021.0,4077139.0,0.0
1577110232659,3955236.0,4081623.0,0.0
1577110232710,3955581.0,4085587.0,0.0
1577110232751,3956788.0,4086117.0,0.0
1577110232805,3946906.0,4076907.0,0.0
1577110232857,3935876.0,4066432.0,0.0
1577110232903,3929969.0,4054873.0,0.0
1577110232951,3928224.0,4050515.0,0.0
1577110233000,3928173.0,4053394.0,0.0
1577110233048,3923551.0,4051124.0,0.0
1577110233096,3919030.0,4049438.0,0.0
1577110233146,3913677.0,4042900.0,0.0
1577110233193,3913837.0,4035082.0,0.0
1577110233240,3910582.0,4034767.0,0.0
1577110233288,3910666.0,4035358.0,0.0
1577110233337,3911891.0,4035807.0,0.0
1577110233386,3914449.0,4036839.0,0.0
1577110233434,3917200.0,4042093.0,0.0
1577110233484,3916613.0,4042461.0,0.0
1577110233534,3917570.0,4043312.0,0.0
1577110233581,3917352.0,4045994.0,0.0
1577110233633,3914022.0,4045761.0,0.0
1577110233683,3904601.0,4034507.0,0.0
1577110233726,3888585.0,4018913.0,0.0
1577110233776,3878914.0,4006950.0,0.0
1577110233824,3875909.0,4001657.0,0.0
1577110233874,3875195.0,3999075.0,0.0
1577110233921,3872914.0,3999085.0,0.0
1577110233969,3866798.0,3990538.0,0.0
1577110234018,3859055.0,3983166.0,0.0
1577110234066,3850666.0,3974280.0,0.0
1577110234115,3850473.0,3969940.0,0.0
1577110234164,3849315.0,3968926.0,0.0
1577110234214,3846540.0,3972083.0,0.0
1577110234261,3847655.0,3971195.0,0.0
1577110234310,3845894.0,3972935.0,0.0
1577110234358,3846213.0,3974135.0,0.0
1577110234408,3839953.0,3971490.0,0.0
1577110234457,3828276.0,3956695.0,0.0
1577110234506,3811941.0,3932804.0,0.0
1577110234555,3799710.0,3916125.0,0.0
1577110234602,3794484.0,3911767.0,0.0
1577110234650,3790693.0,3908331.0,0.0
1577110234706,3788897.0,3911846.0,0.0
1577110234751,3782026.0,3904475.0,0.0
1577110234797,3773318.0,3891732.0,0.0
1577110234849,3766070.0,3882640.0,0.0
1577110234894,3764845.0,3880880.0,0.0
1577110234947,3761741.0,3880586.0,0.0
1577110234994,3765341.0,3881921.0,0.0
1577110235045,3756481.0,3882433.0,0.0
1577110235091,3753872.0,3884800.0,0.0
1577110235141,3755198.0,3885293.0,0.0
1577110235189,3760172.0,3887366.0,0.0
1577110235238,3749662.0,3876864.0,0.0
1577110235287,3726155.0,3847584.0,0.0
1577110235334,3708436.0,3820493.0,0.0
1577110235381,3701054.0,3806297.0,0.0
1577110235429,3696532.0,3802790.0,0.0
1577110235478,3692330.0,3798666.0,0.0
1577110235526,3687657.0,3790720.0,0.0
1577110235576,3677381.0,3781644.0,0.0
1577110235624,3670418.0,3771457.0,0.0
1577110235672,3665048.0,3765278.0,0.0
1577110235720,3665477.0,3762113.0,0.0
1577110235772,3665970.0,3762202.0,0.0
1577110235823,3667498.0,3765790.0,0.0
1577110235867,3667624.0,3769171.0,0.0
1577110235918,3670032.0,3767153.0,0.0
1577110235968,3670853.0,3769807.0,0.0
1577110236016,3672976.0,3770928.0,0.0
1577110236065,3665863.0,3760436.0,0.0
1577110236113,3646793.0,3732268.0,0.0
1577110236162,3631945.0,3704084.0,0.0
1577110236210,3624663.0,3691349.0,0.0
1577110236258,3600729.0,3688740.0,0.0
1577110236307,3593297.0,3690174.0,0.0
1577110236355,3589412.0,3684981.0,0.0
1577110236653,3591702.0,3677224.0,0.0
1577110236653,3596249.0,3667539.0,0.0
1577110236653,3600646.0,3660769.0,0.0
1577110236653,3601174.0,3660759.0,0.0
1577110236655,3604102.0,3662535.0,0.0
1577110236656,3607196.0,3663414.0,0.0
1577110236709,3609906.0,3661828.0,0.0
1577110236796,3613456.0,3663727.0,0.0
1577110236796,3615979.0,3665414.0,0.0
1577110236840,3618690.0,3666929.0,0.0
1577110236888,3621558.0,3668992.0,0.0
1577110236936,3613011.0,3655828.0,0.0
1577110236985,3594999.0,3626351.0,0.0
1577110237038,3588774.0,3612665.0,0.0
1577110237087,3586342.0,3609421.0,0.0
1577110237135,3590536.0,3612739.0,0.0
1577110237182,3590410.0,3615150.0,0.0
1577110237232,3588908.0,3611160.0,0.0
1577110237280,3584637.0,3606011.0,0.0
1577110237330,3585436.0,3598407.0,0.0
1577110237374,3587256.0,3604595.0,0.0
1577110237634,3592541.0,3606253.0,0.0
1577110237634,3597206.0,3613626.0,0.0
1577110237634,3598547.0,3619742.0,0.0
1577110237634,3608187.0,3623617.0,0.0
1577110237636,3610418.0,3628629.0,0.0
1577110237681,3614142.0,3635265.0,0.0
1577110237777,3615150.0,3640905.0,0.0
1577110237779,3607531.0,3633525.0,0.0
1577110237864,3595174.0,3606200.0,0.0
1577110237864,3586903.0,3591216.0,0.0
1577110237920,3584790.0,3589144.0,0.0
1577110237960,3586852.0,3592785.0,0.0
1577110238008,3592080.0,3597726.0,0.0
1577110238058,3589386.0,3596478.0,0.0
1577110238105,3589059.0,3590184.0,0.0
1577110238154,3589420.0,3587360.0,0.0
1577110238203,3590820.0,3591476.0,0.0
1577110238254,3595251.0,3596310.0,0.0
1577110238306,3603161.0,3603886.0,0.0
1577110238352,3607062.0,3611725.0,0.0
1577110238399,3610912.0,3616621.0,0.0
1577110238449,3615360.0,3624137.0,0.0
1577110238498,3619840.0,3630000.0,0.0
1577110238543,3627414.0,3638842.0,0.0
1577110238594,3631534.0,3643847.0,0.0
1577110238644,3624647.0,3636681.0,0.0
1577110238692,3613513.0,3612702.0,0.0
1577110238741,3605729.0,3603224.0,0.0
1577110238786,3607314.0,3602883.0,0.0
1577110238838,3610057.0,3605617.0,0.0
1577110238883,3615183.0,3609886.0,0.0
1577110238937,3615979.0,3610388.0,0.0
1577110238986,3613421.0,3601806.0,0.0
1577110239028,3616065.0,3605268.0,0.0
1577110239079,3615410.0,3602801.0,0.0
1577110239126,3619856.0,3611394.0,0.0
1577110239175,3627507.0,3618862.0,0.0
1577110239224,3632650.0,3623042.0,0.0
1577110239272,3637347.0,3631713.0,0.0
1577110239324,3642390.0,3637820.0,0.0
1577110239369,3646819.0,3643245.0,0.0
1577110239420,3651358.0,3651504.0,0.0
1577110239471,3655401.0,3653353.0,0.0
1577110239520,3646080.0,3642242.0,0.0
1577110239569,3634789.0,3625947.0,0.0
1577110239616,3629880.0,3625140.0,0.0
1577110239663,3632465.0,3623328.0,0.0
1577110239713,3636374.0,3629884.0,0.0
1577110239761,3638454.0,3637300.0,0.0
1577110239811,3636106.0,3634566.0,0.0
1577110239857,3636417.0,3633273.0,0.0
1577110239905,3639940.0,3634870.0,0.0
1577110239954,3641851.0,3640313.0,0.0
1577110240005,3645184.0,3649345.0,0.0
1577110240051,3650535.0,3656724.0,0.0
1577110240104,3655779.0,3665038.0,0.0
1577110240148,3661037.0,3673880.0,0.0
1577110240198,3666171.0,3681995.0,0.0
1577110240246,3662289.0,3685018.0,0.0
1577110240295,3656769.0,3675243.0,0.0
1577110240344,3649470.0,3666840.0,0.0
1577110240396,3651248.0,3668634.0,0.0
1577110240442,3656307.0,3678490.0,0.0
1577110240494,3662943.0,3686757.0,0.0
1577110240544,3666525.0,3692182.0,0.0
1577110240585,3666616.0,3688417.0,0.0
1577110240639,3665997.0,3690524.0,0.0
1577110240685,3672791.0,3696038.0,0.0
1577110240732,3674311.0,3702406.0,0.0
1577110240783,3680316.0,3712109.0,0.0
1577110240833,3686676.0,3722987.0,0.0
1577110240882,3690837.0,3731362.0,0.0
1577110240931,3693505.0,3737335.0,0.0
1577110240980,3688462.0,3731659.0,0.0
1577110241043,3678898.0,3712467.0,0.0
1577110241077,3674469.0,3704145.0,0.0
1577110241123,3675383.0,3702773.0,0.0
1577110241174,3674059.0,3705293.0,0.0
1577110241222,3676692.0,3711185.0,0.0
1577110241266,3675552.0,3713607.0,0.0
1577110241317,3676995.0,3712180.0,0.0
1577110241365,3678228.0,3713903.0,0.0
1577110241414,3678153.0,3714925.0,0.0
1577110241465,3679955.0,3722502.0,0.0
1577110241510,3685081.0,3726923.0,0.0
1577110241565,3689520.0,3736905.0,0.0
1577110241611,3693545.0,3739873.0,0.0
1577110241661,3691129.0,3745011.0,0.0
1577110241705,3685073.0,3732951.0,0.0
1577110241758,3676139.0,3717883.0,0.0
1577110241806,3674126.0,3715464.0,0.0
1577110241855,3673000.0,3713767.0,0.0
1577110241904,3676072.0,3715159.0,0.0
1577110241947,3676574.0,3720602.0,0.0
1577110241996,3673780.0,3718556.0,0.0
1577110242047,3675812.0,3717731.0,0.0
1577110242094,3677330.0,3719023.0,0.0
1577110242145,3678606.0,3721220.0,0.0
1577110242189,3683512.0,3726565.0,0.0
1577110242249,3686247.0,3733668.0,0.0
1577110242293,3691869.0,3739505.0,0.0
1577110242342,3697733.0,3746931.0,0.0
1577110242395,3694494.0,3749827.0,0.0
1577110242435,3687866.0,3734312.0,0.0
1577110242484,3682247.0,3723893.0,0.0
1577110242532,3682035.0,3716746.0,0.0
1577110242585,3683118.0,3719570.0,0.0
1577110242629,3686400.0,3725651.0,0.0
1577110242679,3687381.0,3727256.0,0.0
1577110242726,3687102.0,3727345.0,0.0
1577110242776,3688429.0,3723633.0,0.0
1577110242827,3688328.0,3725651.0,0.0
1577110242873,3691985.0,3730161.0,0.0
1577110242925,3696188.0,3737039.0,0.0
1577110242970,3702036.0,3743506.0,0.0
1577110243020,3704779.0,3749380.0,0.0
1577110243067,3708604.0,3758059.0,0.0
1577110243116,3710114.0,3758697.0,0.0
1577110243165,3704309.0,3749548.0,0.0
1577110243212,3701038.0,3738213.0,0.0
1577110243265,3698722.0,3735704.0,0.0
1577110243308,3700199.0,3737201.0,0.0
1577110243359,3704468.0,3743729.0,0.0
1577110243405,3706122.0,3748492.0,0.0
1577110243457,3706424.0,3747100.0,0.0
1577110243506,3708478.0,3745127.0,0.0
1577110243554,3712396.0,3749855.0,0.0
1577110243604,3714988.0,3758598.0,0.0
1577110243651,3719562.0,3760794.0,0.0
1577110243701,3725600.0,3771196.0,0.0
1577110243749,3730986.0,3777743.0,0.0
1577110243799,3734586.0,3783816.0,0.0
1577110243847,3739954.0,3793204.0,0.0
1577110243895,3740233.0,3793194.0,0.0
1577110243945,3735048.0,3780030.0,0.0
1577110243993,3730013.0,3766991.0,0.0
1577110244042,3730299.0,3766121.0,0.0
1577110244089,3732412.0,3767369.0,0.0
1577110244139,3734737.0,3770552.0,0.0
1577110244187,3737102.0,3772013.0,0.0
1577110244235,3736506.0,3769528.0,0.0
1577110244284,3738034.0,3771286.0,0.0
1577110244333,3742177.0,3774963.0,0.0
1577110244382,3746011.0,3776245.0,0.0
1577110244430,3749241.0,3785886.0,0.0
1577110244480,3754426.0,3789608.0,0.0
1577110244527,3757840.0,3799096.0,0.0
1577110244577,3765794.0,3804450.0,0.0
1577110244626,3771095.0,3810216.0,0.0
1577110244673,3773001.0,3816529.0,0.0
1577110244723,3772816.0,3812179.0,0.0
1577110244769,3768352.0,3800297.0,0.0
1577110244821,3768596.0,3793330.0,0.0
1577110244867,3770172.0,3794145.0,0.0
1577110244917,3772521.0,3792792.0,0.0
1577110244966,3775457.0,3794773.0,0.0
1577110245014,3774317.0,3799033.0,0.0
1577110245063,3778419.0,3797526.0,0.0
1577110245110,3780213.0,3797536.0,0.0
1577110245161,3783814.0,3799391.0,0.0
1577110245208,3787958.0,3805346.0,0.0
1577110245257,3792101.0,3811427.0,0.0
1577110245307,3797999.0,3816718.0,0.0
1577110245354,3802597.0,3821864.0,0.0
1577110245407,3810466.0,3827827.0,0.0
1577110245455,3813461.0,3831936.0,0.0
1577110245506,3818512.0,3836196.0,0.0
1577110245552,3824375.0,3844364.0,0.0
1577110245602,3824660.0,3845073.0,0.0
1577110245650,3821228.0,3837289.0,0.0
1577110245698,3821295.0,3828465.0,0.0
1577110245747,3823201.0,3828752.0,0.0
1577110245791,3825432.0,3831208.0,0.0
1577110245841,3828829.0,3833711.0,0.0
1577110245889,3828545.0,3834949.0,0.0
1577110245938,3831572.0,3834707.0,0.0
1577110245986,3831556.0,3832823.0,0.0
1577110246035,3834945.0,3839073.0,0.0
1577110246084,3839869.0,3847172.0,0.0
1577110246132,3842730.0,3849880.0,0.0
1577110246181,3845382.0,3855118.0,0.0
1577110246231,3853208.0,3862345.0,0.0
1577110246282,3856044.0,3867223.0,0.0
1577110246328,3862337.0,3872954.0,0.0
1577110246375,3862160.0,3875842.0,0.0
1577110246428,3859189.0,3868990.0,0.0
1577110246476,3858787.0,3861654.0,0.0
1577110246526,3858149.0,3859098.0,0.0
1577110246568,3859902.0,3859726.0,0.0
1577110246623,3864785.0,3864559.0,0.0
1577110246670,3867822.0,3868676.0,0.0
1577110246716,3866680.0,3867286.0,0.0
1577110246768,3867503.0,3866506.0,0.0
1577110246817,3872469.0,3867969.0,0.0
1577110246862,3875364.0,3871707.0,0.0
1577110246913,3878694.0,3877455.0,0.0
1577110246956,3882536.0,3880559.0,0.0
1577110247007,3887303.0,3883985.0,0.0
1577110247056,3889777.0,3890395.0,0.0
1577110247105,3895145.0,3893678.0,0.0
1577110247153,3899802.0,3900001.0,0.0
1577110247202,3899156.0,3901525.0,0.0
1577110247250,3890507.0,3889893.0,0.0
1577110247300,3890104.0,3883420.0,0.0
1577110247347,3890271.0,3878818.0,0.0
1577110247394,3892276.0,3882808.0,0.0
1577110247442,3893853.0,3883142.0,0.0
1577110247497,3894507.0,3884710.0,0.0
1577110247543,3896252.0,3881563.0,0.0
1577110247588,3895633.0,3879186.0,0.0
1577110247640,3897628.0,3879393.0,0.0
1577110247690,3899046.0,3884056.0,0.0
1577110247735,3906052.0,3890486.0,0.0
1577110247786,3909038.0,3896153.0,0.0
1577110247833,3908215.0,3898780.0,0.0
1577110247886,3912175.0,3901732.0,0.0
1577110247929,3918240.0,3907228.0,0.0
1577110247986,3923543.0,3911111.0,0.0
1577110248032,3924264.0,3913506.0,0.0
1577110248075,3918594.0,3906277.0,0.0
1577110248129,3920280.0,3898843.0,0.0
1577110248178,3918878.0,3897096.0,0.0
1577110248227,3923366.0,3896431.0,0.0
1577110248271,3926219.0,3899032.0,0.0
1577110248322,3930270.0,3903427.0,0.0
1577110248369,3930036.0,3900046.0,0.0
1577110248416,3931168.0,3902941.0,0.0
1577110248466,3935372.0,3903077.0,0.0
1577110248515,3936916.0,3907848.0,0.0
1577110248564,3939978.0,3909461.0,0.0
1577110248612,3945656.0,3916850.0,0.0
1577110248662,3948946.0,3922169.0,0.0
1577110248709,3951772.0,3924931.0,0.0
1577110248763,3957091.0,3929325.0,0.0
1577110248811,3960724.0,3937369.0,0.0
1577110248856,3960815.0,3936050.0,0.0
1577110248902,3958802.0,3929935.0,0.0
1577110248953,3958735.0,3933442.0,0.0
1577110249002,3962461.0,3935809.0,0.0
1577110249051,3968290.0,3938706.0,0.0
1577110249100,3969523.0,3943610.0,0.0
1577110249148,3975866.0,3946004.0,0.0
1577110249196,3979432.0,3946965.0,0.0
1577110249245,3978634.0,3946416.0,0.0
1577110249294,3982585.0,3952327.0,0.0
1577110249343,3986092.0,3959393.0,0.0
1577110249391,3988382.0,3962433.0,0.0
1577110249442,3990824.0,3968577.0,0.0
1577110249492,3997184.0,3977715.0,0.0
1577110249537,3999540.0,3982512.0,0.0
1577110249586,3993197.0,3984109.0,0.0
1577110249634,3995891.0,3979893.0,0.0
1577110249683,3998157.0,3977463.0,0.0
1577110249734,3999540.0,3980101.0,0.0
1577110249780,4004339.0,3982835.0,0.0
1577110249831,4006050.0,3992019.0,0.0
1577110249877,4010790.0,3990269.0,0.0
1577110249924,4007988.0,3992234.0,0.0
1577110249974,3951201.0,3988951.0,0.0
1577110250098,3892293.0,3990269.0,0.0
1577110250098,3910891.0,3990341.0,0.0
1577110250334,3911178.0,4003793.0,0.0
1577110250334,3920197.0,4027826.0,0.0
1577110250335,3940933.0,4037735.0,0.0
1577110250335,3949608.0,4041691.0,0.0
1577110250336,3980387.0,4048847.0,0.0
1577110250373,4032946.0,4077480.0,0.0
1577110250463,4080656.0,4120283.0,0.0
1577110250463,4119237.0,4168342.0,0.0
1577110250514,4110697.0,4185990.0,0.0
1577110250558,4114992.0,4183541.0,0.0
1577110250607,4093482.0,4162369.0,0.0
1577110250656,4085680.0,4141895.0,0.0
1577110250705,4083659.0,4133034.0,0.0
1577110250755,4091402.0,4135196.0,0.0
1577110250803,4089094.0,4136874.0,0.0
1577110250854,4081980.0,4140576.0,0.0
1577110250899,4079924.0,4146576.0,0.0
1577110250947,4081066.0,4154971.0,0.0
1577110250996,4075010.0,4156728.0,0.0
1577110251044,4074179.0,4153069.0,0.0
1577110251096,4076007.0,4153931.0,0.0
1577110251143,4082970.0,4151769.0,0.0
1577110251195,4087828.0,4149491.0,0.0
1577110251240,4089900.0,4151438.0,0.0
1577110251288,4095353.0,4150253.0,0.0
1577110251336,4107979.0,4149142.0,0.0
1577110251386,4116191.0,4147096.0,0.0
1577110251434,4121837.0,4144172.0,0.0
1577110251484,4125194.0,4145223.0,0.0
1577110251533,4137213.0,4149841.0,0.0
1577110251581,4163120.0,4155589.0,0.0
1577110251627,4178799.0,4150056.0,0.0
1577110251677,4170201.0,4136533.0,0.0
1577110251726,4166375.0,4129214.0,0.0
1577110251776,4170686.0,4127483.0,0.0
1577110251823,4182985.0,4131770.0,0.0
1577110251874,4192213.0,4133081.0,0.0
1577110251921,4196374.0,4134200.0,0.0
1577110251968,4210117.0,4136344.0,0.0
1577110252017,4223002.0,4138469.0,0.0
1577110252066,4228563.0,4141850.0,0.0
1577110252115,4233195.0,4150613.0,0.0
1577110252164,4238270.0,4150245.0,0.0
1577110252216,4222943.0,4147689.0,0.0
1577110252261,4222675.0,4155446.0,0.0
1577110252309,4215889.0,4147653.0,0.0
1577110252358,4209176.0,4140029.0,0.0
1577110252406,4207993.0,4139339.0,0.0
1577110252457,4236810.0,4144004.0,0.0
1577110252504,4248145.0,4146757.0,0.0
1577110252555,4270250.0,4146442.0,0.0
1577110252601,4266156.0,4146379.0,0.0
1577110252648,4256516.0,4147976.0,0.0
1577110252698,4284562.0,4169004.0,0.0
1577110252745,4293319.0,4180106.0,0.0
1577110252796,4306742.0,4188483.0,0.0
1577110252843,4330038.0,4199952.0,0.0
1577110252895,4416245.0,4213089.0,0.0
1577110252945,4411036.0,4212104.0,0.0
1577110252993,4435246.0,4206248.0,0.0
1577110253043,4410558.0,4202042.0,0.0
1577110253091,4395944.0,4207099.0,0.0
1577110253134,4353361.0,4208329.0,0.0
1577110253188,4316357.0,4208158.0,0.0
1577110253237,4343235.0,4202500.0,0.0
1577110253282,4351632.0,4198257.0,0.0
1577110253334,4335559.0,4199350.0,0.0
1577110253378,4343060.0,4200391.0,0.0
1577110253425,4360155.0,4204993.0,0.0
1577110253475,4353932.0,4206301.0,0.0
1577110253528,4316424.0,4201441.0,0.0
1577110253579,4276709.0,4185262.0,0.0
1577110253626,4202567.0,4177219.0,0.0
1577110253674,4165150.0,4175973.0,0.0
1577110253725,4141192.0,4176026.0,0.0
1577110253770,4141259.0,4178169.0,0.0
1577110253815,4130210.0,4181855.0,0.0
1577110253865,4122122.0,4180644.0,0.0
1577110253917,4098423.0,4179953.0,0.0
1577110253963,4091158.0,4176646.0,0.0
1577110254014,4064640.0,4176520.0,0.0
1577110254065,4021235.0,4176950.0,0.0
1577110254111,3987502.0,4173596.0,0.0
1577110254157,3972309.0,4162836.0,0.0
1577110254209,3953408.0,4153823.0,0.0
1577110254261,3943216.0,4146100.0,0.0
1577110254307,3935455.0,4143993.0,0.0
1577110254355,3925170.0,4142047.0,0.0
1577110254398,3919130.0,4145598.0,0.0
1577110254447,3909550.0,4140873.0,0.0
1577110254499,3897821.0,4142317.0,0.0
1577110254545,3892528.0,4141070.0,0.0
1577110254598,3882477.0,4140846.0,0.0
1577110254642,3866498.0,4138335.0,0.0
1577110254691,3868233.0,4144361.0,0.0
1577110254740,3873678.0,4152289.0,0.0
1577110254788,3873828.0,4155966.0,0.0
1577110254838,3866179.0,4147921.0,0.0
1577110254884,3863283.0,4152307.0,0.0
1577110254936,3866103.0,4152100.0,0.0
1577110254981,3871949.0,4160081.0,0.0
1577110255029,3868401.0,4163248.0,0.0
1577110255078,3870951.0,4167803.0,0.0
1577110255126,3874198.0,4170378.0,0.0
1577110255176,3872772.0,4173228.0,0.0
1577110255224,3873426.0,4179281.0,0.0
1577110255274,3874214.0,4181560.0,0.0
1577110255324,3870908.0,4189468.0,0.0
1577110255371,3873141.0,4189316.0,0.0
1577110255422,3871286.0,4193145.0,0.0
1577110255468,3870490.0,4194913.0,0.0
1577110255518,3866018.0,4196437.0,0.0
1577110255564,3864777.0,4190626.0,0.0
1577110255613,3859232.0,4197808.0,0.0
1577110255663,3864927.0,4200472.0,0.0
1577110255710,3862873.0,4201136.0,0.0
1577110255759,3862093.0,4195289.0,0.0
1577110255807,3858007.0,4201386.0,0.0
1577110255857,3857664.0,4201961.0,0.0
1577110255904,3852009.0,4202912.0,0.0
1577110255953,3844660.0,4205513.0,0.0
1577110256003,3833923.0,4204777.0,0.0
1577110256050,3829065.0,4194553.0,0.0
1577110256102,3829014.0,4188609.0,0.0
1577110256148,3806321.0,4178214.0,0.0
1577110256202,3789149.0,4175892.0,0.0
1577110256246,3786170.0,4181792.0,0.0
1577110256295,3801187.0,4191396.0,0.0
1577110256345,3826816.0,4198544.0,0.0
1577110256392,3853283.0,4204176.0,0.0
1577110256443,3869828.0,4209188.0,0.0
1577110256489,3881916.0,4212768.0,0.0
1577110256541,3895161.0,4221734.0,0.0
1577110256587,3903408.0,4229554.0,0.0
1577110256636,3911521.0,4235806.0,0.0
1577110256684,3917696.0,4240640.0,0.0
1577110256733,3919492.0,4246548.0,0.0
1577110256782,3927755.0,4250853.0,0.0
1577110256830,3931471.0,4257391.0,0.0
1577110256879,3936841.0,4265480.0,0.0
1577110256925,3941270.0,4268672.0,0.0
1577110256979,3948710.0,4276124.0,0.0
1577110257025,3951268.0,4279675.0,0.0
1577110257076,3957906.0,4289208.0,0.0
1577110257124,3961697.0,4296417.0,0.0
1577110257174,3966285.0,4302776.0,0.0
1577110257222,3970799.0,4310552.0,0.0
1577110257265,3978575.0,4320999.0,0.0
1577110257315,3984036.0,4326379.0,0.0
1577110257393,3985304.0,4328649.0,0.0
1577110257429,3988736.0,4333086.0,0.0
1577110257461,3988610.0,4340244.0,0.0
1577110257543,3991369.0,4345104.0,0.0
1577110257567,3992586.0,4348403.0,0.0
1577110257618,3998390.0,4353794.0,0.0
1577110257658,3999063.0,4357182.0,0.0
1577110257703,4001227.0,4362886.0,0.0
1577110257751,4004624.0,4363828.0,0.0
1577110257803,4006806.0,4368008.0,0.0
1577110257850,4009514.0,4374168.0,0.0
1577110257903,4012694.0,4382374.0,0.0
1577110257946,4015597.0,4388821.0,0.0
1577110257995,4019724.0,4392901.0,0.0
1577110258043,4021914.0,4396013.0,0.0
1577110258093,4023037.0,4401267.0,0.0
1577110258143,4020252.0,4396525.0,0.0
1577110258192,4019155.0,4396103.0,0.0
1577110258243,4021217.0,4397789.0,0.0
1577110258289,4021973.0,4400030.0,0.0
1577110258338,4020169.0,4403573.0,0.0
1577110258387,4022359.0,4403707.0,0.0
1577110258435,4034816.0,4400111.0,0.0
1577110258484,4082895.0,4390794.0,0.0
1577110258904,4576302.0,4346861.0,0.0
1577110258904,4656193.0,4341552.0,0.0
1577110258904,4673775.0,4354243.0,0.0
1577110258904,4651485.0,4368680.0,0.0
1577110258904,4627350.0,4380355.0,0.0
1577110259055,4550438.0,4373979.0,0.0
1577110259141,4535901.0,4371352.0,0.0
1577110259142,4525598.0,4366555.0,0.0
1577110259226,4519163.0,4365927.0,0.0
1577110259227,4506353.0,4358735.0,0.0
1577110259263,4498326.0,4354340.0,0.0
1577110259307,4483854.0,4347678.0,0.0
1577110259357,4475221.0,4346152.0,0.0
1577110259405,4471102.0,4341481.0,0.0
1577110259453,4480390.0,4332127.0,0.0
1577110259504,4482604.0,4332145.0,0.0
1577110259551,4468494.0,4334890.0,0.0
1577110259608,4462311.0,4336002.0,0.0
1577110259647,4476481.0,4327212.0,0.0
1577110259697,4504844.0,4305700.0,0.0
1577110259744,4533802.0,4294615.0,0.0
1577110259793,4542880.0,4288339.0,0.0
1577110259844,4562023.0,4283387.0,0.0
1577110259891,4739354.0,4285423.0,0.0
1577110259959,4773069.0,4291334.0,0.0
1577110259991,4768784.0,4297835.0,0.0
1577110260038,4728917.0,4310345.0,0.0
1577110260085,4666233.0,4318459.0,0.0
1577110260144,4625672.0,4321007.0,0.0
1577110260187,4586949.0,4320479.0,0.0
1577110260234,4562653.0,4319867.0,0.0
1577110260286,4544457.0,4314989.0,0.0
1577110260331,4523166.0,4310909.0,0.0
1577110260378,4506514.0,4308075.0,0.0
1577110260434,4493476.0,4303951.0,0.0
1577110260476,4483031.0,4303045.0,0.0
1577110260526,4473679.0,4296230.0,0.0
1577110260574,4466622.0,4297333.0,0.0
1577110260625,4445876.0,4280033.0,0.0
1577110260671,4417001.0,4251158.0,0.0
1577110260719,4389065.0,4229491.0,0.0
1577110260767,4370198.0,4223016.0,0.0
1577110260819,4359602.0,4212794.0,0.0
1577110260863,4346632.0,4205531.0,0.0
1577110260912,4329083.0,4191075.0,0.0
1577110260968,4310912.0,4172206.0,0.0
1577110261010,4296624.0,4159561.0,0.0
1577110261058,4292069.0,4156090.0,0.0
1577110261119,4281801.0,4149473.0,0.0
1577110261171,4273824.0,4143573.0,0.0
1577110261240,4269821.0,4142021.0,0.0
1577110261254,4264108.0,4135635.0,0.0
1577110261304,4257464.0,4132193.0,0.0
1577110261349,4250778.0,4128642.0,0.0
1577110261399,4241491.0,4110776.0,0.0
1577110261446,4211508.0,4083533.0,0.0
1577110261496,4193816.0,4062370.0,0.0
1577110261544,4182188.0,4049798.0,0.0
1577110261593,4176190.0,4042506.0,0.0
1577110261645,4171836.0,4042372.0,0.0
1577110261689,4164412.0,4030705.0,0.0
1577110261740,4153782.0,4017844.0,0.0
1577110261787,4142500.0,4007434.0,0.0
1577110261836,4135838.0,4003120.0,0.0
1577110261885,4132953.0,3999156.0,0.0
1577110261934,4125872.0,3998797.0,0.0
1577110261987,4124867.0,3994341.0,0.0
1577110262031,4125947.0,3993085.0,0.0
1577110262084,4122274.0,3990727.0,0.0
1577110262133,4116660.0,3992324.0,0.0
1577110262179,4109287.0,3988475.0,0.0
1577110262227,4089094.0,3961169.0,0.0
1577110262276,4065009.0,3933190.0,0.0
1577110262326,4050545.0,3918941.0,0.0
1577110262372,4042132.0,3910590.0,0.0
1577110262422,4040990.0,3909650.0,0.0
1577110262469,4037577.0,3907740.0,0.0
1577110262519,4028314.0,3899192.0,0.0
1577110262566,4017032.0,3889885.0,0.0
1577110262616,4008860.0,3886055.0,0.0
