time,value,value2,value3
1586175114986,8159721.0,8372369.0,0.0
1586175115037,8155116.0,8359869.0,0.0
1586175115074,8148053.0,8336913.0,0.0
1586175115130,8129470.0,8305602.0,0.0
1586175115171,8104539.0,8284360.0,0.0
1586175115221,8049814.0,8259348.0,0.0
1586175115270,8012851.0,8237134.0,0.0
1586175115322,7949895.0,8207831.0,0.0
1586175115373,7891814.0,8169640.0,0.0
1586175115419,7852842.0,8143397.0,0.0
1586175115467,7810830.0,8122350.0,0.0
1586175115520,7775559.0,8102484.0,0.0
1586175115563,7737107.0,8082021.0,0.0
1586175115612,7695854.0,8037742.0,0.0
1586175115665,7638172.0,7961166.0,0.0
1586175115713,7614299.0,7938516.0,0.0
1586175115763,7586028.0,7908241.0,0.0
1586175115808,7565940.0,7876768.0,0.0
1586175115856,7541640.0,7838091.0,0.0
1586175115906,7528612.0,7812834.0,0.0
1586175115958,7513241.0,7788794.0,0.0
1586175116003,7516615.0,7805597.0,0.0
1586175116057,7500848.0,7802731.0,0.0
1586175116108,7574710.0,7930792.0,0.0
1586175116148,7531050.0,7879618.0,0.0
1586175116201,7574820.0,7994661.0,0.0
1586175116250,7574519.0,8029536.0,0.0
1586175116292,7571544.0,8062836.0,0.0
1586175116344,7583288.0,8062481.0,0.0
1586175116396,7557154.0,8067499.0,0.0
1586175116444,7464723.0,7920497.0,0.0
1586175116490,7475837.0,7960581.0,0.0
1586175116539,7493137.0,8056133.0,0.0
1586175116589,7619999.0,8186542.0,0.0
1586175116635,7394406.0,7753547.0,0.0
1586175116683,7408588.0,7673297.0,0.0
1586175116732,7786894.0,7972401.0,0.0
1586175116782,7935317.0,7970362.0,0.0
1586175116829,8051808.0,7926551.0,0.0
1586175116879,8214715.0,8072064.0,0.0
1586175116932,8471936.0,8297960.0,0.0
1586175116977,8495806.0,8334888.0,0.0
1586175117026,8505796.0,8325466.0,0.0
1586175117071,8434372.0,8183936.0,0.0
1586175117130,8263438.0,7908290.0,0.0
1586175117168,8137130.0,7782917.0,0.0
1586175117226,8112042.0,7816736.0,0.0
1586175117265,7989961.0,7697579.0,0.0
1586175117315,7907581.0,7717867.0,0.0
1586175117367,7806048.0,7732453.0,0.0
1586175117413,7721833.0,7728616.0,0.0
1586175117464,7622516.0,7603421.0,0.0
1586175117514,7546990.0,7450670.0,0.0
1586175117564,7555427.0,7426385.0,0.0
1586175117611,7583021.0,7439613.0,0.0
1586175117659,7566526.0,7413419.0,0.0
1586175117708,7534976.0,7381056.0,0.0
1586175117756,7513969.0,7365125.0,0.0
1586175117805,7460448.0,7307342.0,0.0
1586175117854,7500023.0,7323985.0,0.0
1586175117905,7652736.0,7433073.0,0.0
1586175117951,7574030.0,7292334.0,0.0
1586175118000,7587182.0,7280500.0,0.0
1586175118053,7578808.0,7273538.0,0.0
1586175118095,7587248.0,7268488.0,0.0
1586175118146,7595241.0,7265931.0,0.0
1586175118191,7601541.0,7274946.0,0.0
1586175118242,7626046.0,7279933.0,0.0
1586175118290,7599610.0,7291589.0,0.0
1586175118340,7590033.0,7322190.0,0.0
1586175118390,7595178.0,7352189.0,0.0
1586175118438,7661678.0,7439499.0,0.0
1586175118494,7765333.0,7582618.0,0.0
1586175118540,7772663.0,7602027.0,0.0
1586175118586,7770953.0,7581920.0,0.0
1586175118636,7793211.0,7519057.0,0.0
1586175118685,7610532.0,7283479.0,0.0
1586175118734,7626535.0,7241824.0,0.0
1586175118782,7650187.0,7213832.0,0.0
1586175118831,7654729.0,7188817.0,0.0
1586175118879,7649774.0,7160680.0,0.0
1586175118924,7637888.0,7141154.0,0.0
1586175118978,7610439.0,7127589.0,0.0
1586175119034,7613240.0,7147485.0,0.0
1586175119075,7609187.0,7168677.0,0.0
1586175119119,7602980.0,7168500.0,0.0
1586175119171,7600591.0,7171397.0,0.0
1586175119220,7586170.0,7167124.0,0.0
1586175119272,7608649.0,7179089.0,0.0
1586175119318,7621154.0,7199909.0,0.0
1586175119371,7582435.0,7225504.0,0.0
1586175119410,7649362.0,7355735.0,0.0
1586175119459,8014481.0,7749015.0,0.0
1586175119513,7829412.0,7497573.0,0.0
1586175119561,7819027.0,7523639.0,0.0
1586175119608,7694145.0,7362048.0,0.0
1586175119658,7775701.0,7432264.0,0.0
1586175119709,7696631.0,7325783.0,0.0
1586175119754,7761740.0,7359281.0,0.0
1586175119805,7740956.0,7307813.0,0.0
1586175119853,7729385.0,7318999.0,0.0
1586175119903,7749441.0,7370289.0,0.0
1586175119948,7767250.0,7370385.0,0.0
1586175119996,7815230.0,7410277.0,0.0
1586175120046,7665621.0,7248994.0,0.0
1586175120091,7629846.0,7221521.0,0.0
1586175120141,7590175.0,7171138.0,0.0
1586175120195,7613161.0,7181064.0,0.0
1586175120237,7642843.0,7191831.0,0.0
1586175120294,7683399.0,7216081.0,0.0
1586175120340,7739514.0,7263275.0,0.0
1586175120389,7757132.0,7286458.0,0.0
1586175120437,7799384.0,7295121.0,0.0
1586175120487,7840384.0,7372165.0,0.0
1586175120531,7814280.0,7380424.0,0.0
1586175120580,7775482.0,7359717.0,0.0
1586175120632,7731726.0,7307505.0,0.0
1586175120677,7715185.0,7271223.0,0.0
1586175120729,7673267.0,7216226.0,0.0
1586175120778,7663419.0,7199197.0,0.0
1586175120827,7711180.0,7223528.0,0.0
1586175120877,7802598.0,7272858.0,0.0
1586175120926,7796488.0,7317428.0,0.0
1586175120974,7791707.0,7352593.0,0.0
1586175121030,7838515.0,7363182.0,0.0
1586175121068,7857211.0,7391755.0,0.0
1586175121113,7830172.0,7381928.0,0.0
1586175121166,7776873.0,7329765.0,0.0
1586175121210,7724097.0,7293451.0,0.0
1586175121260,7518592.0,7063915.0,0.0
1586175121308,7357269.0,6911083.0,0.0
1586175121357,7269919.0,6807048.0,0.0
1586175121409,7405533.0,6899490.0,0.0
1586175121454,7544886.0,6929297.0,0.0
1586175121510,7703153.0,6993893.0,0.0
1586175121552,7783492.0,6989669.0,0.0
1586175121601,7770794.0,6975016.0,0.0
1586175121651,7745245.0,6948756.0,0.0
1586175121699,7766963.0,6940631.0,0.0
1586175121751,7800445.0,6952965.0,0.0
1586175121797,7827498.0,6971034.0,0.0
1586175121853,7827165.0,6959150.0,0.0
1586175121899,7811114.0,6918661.0,0.0
1586175121948,7711829.0,6819627.0,0.0
1586175122011,7652420.0,6791182.0,0.0
1586175122046,7580629.0,6797675.0,0.0
1586175122091,7632045.0,6816634.0,0.0
1586175122138,7710705.0,6935546.0,0.0
1586175122188,7735145.0,6946135.0,0.0
1586175122233,7740987.0,6918158.0,0.0
1586175122283,7749011.0,6886344.0,0.0
1586175122335,7753730.0,6883982.0,0.0
1586175122386,7751640.0,6887348.0,0.0
1586175122429,7714599.0,6862094.0,0.0
1586175122486,7639819.0,6803828.0,0.0
1586175122539,7579300.0,6765326.0,0.0
1586175122576,7528155.0,6736008.0,0.0
1586175122636,7414414.0,6658152.0,0.0
1586175122674,7400325.0,6643563.0,0.0
1586175122727,7308211.0,6579371.0,0.0
1586175122770,7319532.0,6605309.0,0.0
1586175122824,7321841.0,6609745.0,0.0
1586175122875,7286462.0,6584942.0,0.0
1586175122921,7277329.0,6584293.0,0.0
1586175122976,7247044.0,6559863.0,0.0
1586175123026,7197909.0,6522109.0,0.0
1586175123069,7134478.0,6483933.0,0.0
1586175123110,7110638.0,6472974.0,0.0
1586175123165,7055502.0,6422251.0,0.0
1586175123214,7008836.0,6376837.0,0.0
1586175123262,6972222.0,6363904.0,0.0
1586175123313,6958134.0,6361198.0,0.0
1586175123359,6947399.0,6354304.0,0.0
1586175123410,6887927.0,6302932.0,0.0
1586175123453,6860145.0,6283959.0,0.0
1586175123509,6844805.0,6279345.0,0.0
1586175123551,6834642.0,6271831.0,0.0
1586175123604,6811690.0,6257457.0,0.0
1586175123655,6757899.0,6194074.0,0.0
1586175123700,6681725.0,6136194.0,0.0
1586175123749,6667431.0,6126676.0,0.0
1586175123797,6585685.0,6063778.0,0.0
1586175123847,6534397.0,6035933.0,0.0
1586175123890,6489787.0,6005658.0,0.0
1586175123944,6432435.0,5970461.0,0.0
1586175123994,6387558.0,5948296.0,0.0
1586175124036,6373168.0,5944994.0,0.0
1586175124089,6362467.0,5947941.0,0.0
1586175124134,6309248.0,5902205.0,0.0
1586175124189,6251847.0,5855319.0,0.0
1586175124232,6191044.0,5804904.0,0.0
1586175124285,6178554.0,5785492.0,0.0
1586175124331,6156930.0,5736066.0,0.0
1586175124376,6077243.0,5660736.0,0.0
1586175124432,5993565.0,5603179.0,0.0
1586175124479,5987123.0,5595540.0,0.0
1586175124526,5985444.0,5607729.0,0.0
1586175124574,5997761.0,5611825.0,0.0
1586175124620,5941137.0,5599232.0,0.0
1586175124669,5913466.0,5614545.0,0.0
1586175124719,5856637.0,5570670.0,0.0
1586175124772,5831927.0,5566624.0,0.0
1586175124820,5834285.0,5566818.0,0.0
1586175124869,5846505.0,5582085.0,0.0
1586175124918,5842104.0,5587653.0,0.0
1586175124964,5829205.0,5591912.0,0.0
1586175125012,5820068.0,5589160.0,0.0
1586175125065,5818993.0,5599490.0,0.0
1586175125116,5812093.0,5602970.0,0.0
1586175125160,5774020.0,5572613.0,0.0
1586175125210,5719899.0,5534359.0,0.0
1586175125259,5687224.0,5522961.0,0.0
1586175125308,5669700.0,5511805.0,0.0
1586175125354,5661326.0,5512971.0,0.0
1586175125406,5648125.0,5516046.0,0.0
1586175125456,5640701.0,5516776.0,0.0
1586175125503,5634036.0,5523592.0,0.0
1586175125551,5626564.0,5519496.0,0.0
1586175125599,5624032.0,5523284.0,0.0
1586175125649,5588067.0,5487150.0,0.0
1586175125697,5531411.0,5425256.0,0.0
1586175125746,5499608.0,5386318.0,0.0
1586175125796,5461410.0,5359979.0,0.0
1586175125843,5458212.0,5365838.0,0.0
1586175125893,5462408.0,5366292.0,0.0
1586175125940,5443271.0,5368980.0,0.0
1586175125990,5429102.0,5381186.0,0.0
1586175126037,5422136.0,5400322.0,0.0
1586175126089,5417799.0,5423944.0,0.0
1586175126136,5425097.0,5446173.0,0.0
1586175126184,5415076.0,5434062.0,0.0
1586175126233,5399768.0,5503208.0,0.0
1586175126281,5446326.0,5583072.0,0.0
1586175126330,5462599.0,5769562.0,0.0
1586175126377,5579423.0,5828395.0,0.0
1586175126423,5603817.0,5775973.0,0.0
1586175126473,5644293.0,5740453.0,0.0
1586175126528,5722825.0,5693518.0,0.0
1586175126568,5741949.0,5670690.0,0.0
1586175126615,5790785.0,5682379.0,0.0
1586175126668,5817728.0,5673541.0,0.0
1586175126714,5850860.0,5679418.0,0.0
1586175126765,5861307.0,5645597.0,0.0
1586175126814,5848422.0,5599473.0,0.0
1586175126861,5868319.0,5593710.0,0.0
1586175126913,5884862.0,5591022.0,0.0
1586175126962,5963568.0,5711796.0,0.0
1586175127008,6058089.0,5810845.0,0.0
1586175127059,6238424.0,5950775.0,0.0
1586175127110,6350768.0,5973876.0,0.0
1586175127158,6405509.0,5951825.0,0.0
1586175127207,6500332.0,5987476.0,0.0
1586175127252,6547171.0,5979170.0,0.0
1586175127304,6571929.0,6003066.0,0.0
1586175127353,6632368.0,6097565.0,0.0
1586175127401,6692727.0,6105224.0,0.0
1586175127447,6619500.0,5888817.0,0.0
1586175127496,6517236.0,5759720.0,0.0
1586175127543,6497006.0,5764154.0,0.0
1586175127599,6435285.0,5733914.0,0.0
1586175127640,6395630.0,5717076.0,0.0
1586175127695,6369021.0,5735176.0,0.0
1586175127743,6337518.0,5741666.0,0.0
1586175127792,6343836.0,5770356.0,0.0
1586175127839,6353206.0,5772605.0,0.0
1586175127889,6255664.0,5717303.0,0.0
1586175127937,6186629.0,5712785.0,0.0
1586175127989,6150141.0,5726594.0,0.0
1586175128038,6116184.0,5739627.0,0.0
1586175128080,6130306.0,5768250.0,0.0
1586175128132,6149063.0,5785946.0,0.0
1586175128178,6165481.0,5799723.0,0.0
1586175128230,6111783.0,5755575.0,0.0
1586175128275,6047055.0,5704916.0,0.0
1586175128324,5983783.0,5652235.0,0.0
1586175128378,5949053.0,5639834.0,0.0
1586175128425,5939111.0,5639397.0,0.0
1586175128469,5936799.0,5647703.0,0.0
1586175128526,5917804.0,5636759.0,0.0
1586175128572,5880746.0,5622818.0,0.0
1586175128619,5835995.0,5600299.0,0.0
1586175128664,5814007.0,5597725.0,0.0
1586175128719,5791624.0,5582621.0,0.0
1586175128765,5740080.0,5526117.0,0.0
1586175128814,5691309.0,5480721.0,0.0
1586175128863,5669321.0,5454493.0,0.0
1586175128912,5674467.0,5445460.0,0.0
1586175128955,5672203.0,5427086.0,0.0
1586175129006,5679928.0,5430760.0,0.0
1586175129059,5693476.0,5432151.0,0.0
1586175129107,5695837.0,5434807.0,0.0
1586175129150,5686829.0,5431197.0,0.0
1586175129204,5685151.0,5435778.0,0.0
1586175129249,5636030.0,5394091.0,0.0
1586175129299,5573233.0,5349262.0,0.0
1586175129347,5539137.0,5332084.0,0.0
1586175129400,5522989.0,5323616.0,0.0
1586175129442,5528846.0,5324296.0,0.0
1586175129510,5559856.0,5336552.0,0.0
1586175129540,5610006.0,5355298.0,0.0
1586175129594,5635586.0,5363636.0,0.0
1586175129642,5629604.0,5372994.0,0.0
1586175129690,5625915.0,5386059.0,0.0
1586175129738,5595727.0,5373917.0,0.0
1586175129789,5534782.0,5314112.0,0.0
1586175129836,5485124.0,5272992.0,0.0
1586175129886,5466683.0,5262839.0,0.0
1586175129934,5463785.0,5273687.0,0.0
1586175129986,5459811.0,5278187.0,0.0
1586175130037,5445913.0,5265122.0,0.0
1586175130076,5425905.0,5252430.0,0.0
1586175130130,5409789.0,5243234.0,0.0
1586175130180,5409709.0,5248948.0,0.0
1586175130227,5401241.0,4945555.0,0.0
1586175130275,5345806.0,4827630.0,0.0
1586175130324,5291886.0,4755330.0,0.0
1586175130374,5255478.0,4730919.0,0.0
1586175130416,5247644.0,4723106.0,0.0
1586175130464,5247436.0,4728647.0,0.0
1586175130525,5259215.0,4736713.0,0.0
1586175130562,5263963.0,4742833.0,0.0
1586175130617,5265055.0,4754195.0,0.0
1586175130661,5275360.0,4769518.0,0.0
1586175130713,5282596.0,4780650.0,0.0
1586175130758,5300514.0,4779841.0,0.0
1586175130812,5281439.0,4747472.0,0.0
1586175130860,5259832.0,4729782.0,0.0
1586175130909,5272194.0,4733706.0,0.0
1586175130957,5292174.0,4743354.0,0.0
1586175131000,5297206.0,4751661.0,0.0
1586175131060,5299279.0,4751793.0,0.0
1586175131099,5267399.0,4720837.0,0.0
1586175131149,5258754.0,4725508.0,0.0
1586175131201,5267620.0,4745044.0,0.0
1586175131245,5282722.0,4755221.0,0.0
1586175131299,5233126.0,4714522.0,0.0
1586175131343,5183499.0,4672577.0,0.0
1586175131393,5149767.0,4655529.0,0.0
1586175131441,5126749.0,4651847.0,0.0
1586175131494,5126624.0,4658826.0,0.0
1586175131538,5117092.0,4656943.0,0.0
1586175131593,4819018.0,4647536.0,0.0
1586175131641,4738922.0,4647512.0,0.0
1586175131684,4730665.0,4654106.0,0.0
1586175131734,4730834.0,4669220.0,0.0
1586175131782,4723722.0,4658850.0,0.0
1586175131830,4681513.0,4611944.0,0.0
1586175131884,4650639.0,4581603.0,0.0
1586175131933,4637298.0,4576846.0,0.0
1586175131983,4641670.0,4583547.0,0.0
1586175132035,4648443.0,4581770.0,0.0
1586175132081,4641089.0,4579694.0,0.0
1586175132128,4635595.0,4579019.0,0.0
1586175132176,4631298.0,4581989.0,0.0
1586175132226,4639531.0,4592336.0,0.0
1586175132267,4648237.0,4606377.0,0.0
1586175132317,4618148.0,4571943.0,0.0
1586175132365,4573331.0,4527125.0,0.0
1586175132424,4549679.0,4502291.0,0.0
1586175132465,4532764.0,4487766.0,0.0
1586175132520,4527681.0,4489216.0,0.0
1586175132560,4528564.0,4495325.0,0.0
1586175132611,4503209.0,4486473.0,0.0
1586175132660,4486836.0,4482961.0,0.0
1586175132707,4464837.0,4487790.0,0.0
1586175132759,4471962.0,4510030.0,0.0
1586175132806,4475402.0,4523057.0,0.0
1586175132853,4449058.0,4506190.0,0.0
1586175132904,4407716.0,4472734.0,0.0
1586175132951,4398214.0,4466395.0,0.0
1586175133001,4405122.0,4469026.0,0.0
1586175133059,4416748.0,4480896.0,0.0
1586175133104,4440484.0,4492244.0,0.0
1586175133146,4465538.0,4499694.0,0.0
1586175133195,4494273.0,4503087.0,0.0
1586175133244,4540444.0,4519315.0,0.0
1586175133296,4582966.0,4552530.0,0.0
1586175133345,4614321.0,4582955.0,0.0
1586175133394,4608286.0,4588882.0,0.0
1586175133441,4585068.0,4557806.0,0.0
1586175133497,4577763.0,4552456.0,0.0
1586175133542,4566016.0,4562937.0,0.0
1586175133586,4562924.0,4579067.0,0.0
1586175133638,4570506.0,4591889.0,0.0
1586175133683,4605810.0,4612983.0,0.0
1586175133736,4628568.0,4617619.0,0.0
1586175133778,4621277.0,4610870.0,0.0
1586175133832,4606427.0,4609878.0,0.0
1586175133882,4611920.0,4627590.0,0.0
1586175133930,4612100.0,4641234.0,0.0
1586175133978,4553265.0,4605544.0,0.0
1586175134033,4477563.0,4571715.0,0.0
1586175134079,4429620.0,4567343.0,0.0
1586175134143,4423957.0,4583764.0,0.0
1586175134183,4460600.0,4598120.0,0.0
1586175134225,4498353.0,4618788.0,0.0
1586175134276,4529408.0,4635415.0,0.0
1586175134324,4582580.0,4657401.0,0.0
1586175134370,4614189.0,4675197.0,0.0
1586175134421,4649057.0,4704501.0,0.0
1586175134464,4692909.0,4738475.0,0.0
1586175134519,4735917.0,4765594.0,0.0
1586175134562,4717552.0,4739816.0,0.0
1586175134616,4694009.0,4712892.0,0.0
1586175134669,4688128.0,4688262.0,0.0
1586175134708,4719726.0,4699394.0,0.0
1586175134756,4794654.0,4734129.0,0.0
1586175134807,4873268.0,4780769.0,0.0
1586175134852,4935337.0,4818102.0,0.0
1586175134901,4958592.0,4834872.0,0.0
1586175134958,4969747.0,4836273.0,0.0
1586175135004,5093057.0,4915223.0,0.0
1586175135057,5205039.0,4986469.0,0.0
1586175135103,5184429.0,4975531.0,0.0
1586175135147,5074523.0,4897982.0,0.0
1586175135200,5009447.0,4845956.0,0.0
1586175135241,4997046.0,4853707.0,0.0
1586175135299,5020964.0,4862848.0,0.0
1586175135343,5077577.0,4921719.0,0.0
1586175135394,5114125.0,5000656.0,0.0
1586175135445,5092007.0,5011642.0,0.0
1586175135490,5046658.0,4975216.0,0.0
1586175135540,4985890.0,4959713.0,0.0
1586175135583,4964955.0,4944321.0,0.0
1586175135639,4951625.0,4940166.0,0.0
1586175135681,4912843.0,4946952.0,0.0
1586175135731,4865479.0,4925980.0,0.0
1586175135784,4848468.0,4906977.0,0.0
1586175135832,4844530.0,4898041.0,0.0
1586175135875,4852221.0,4888951.0,0.0
1586175135923,4865394.0,4892162.0,0.0
1586175135973,4902883.0,4901688.0,0.0
1586175136024,4952289.0,4930605.0,0.0
1586175136078,4982534.0,4965365.0,0.0
1586175136126,4994499.0,4985938.0,0.0
1586175136174,5009240.0,4998157.0,0.0
1586175136223,5035960.0,5023548.0,0.0
1586175136271,5044955.0,5019335.0,0.0
1586175136321,5034135.0,4997831.0,0.0
1586175136363,5013104.0,4971305.0,0.0
1586175136418,5003832.0,4969652.0,0.0
1586175136458,4997831.0,4976219.0,0.0
1586175136517,4992650.0,4979551.0,0.0
1586175136557,4985866.0,4977813.0,0.0
1586175136605,4986493.0,4982944.0,0.0
1586175136662,4995200.0,4997336.0,0.0
1586175136703,5002840.0,5012356.0,0.0
1586175136756,5024091.0,5028824.0,0.0
1586175136806,5014781.0,5026833.0,0.0
1586175136852,4968962.0,4986469.0,0.0
1586175136900,4938272.0,4968576.0,0.0
1586175136948,4937632.0,4965243.0,0.0
1586175137002,4947037.0,4975205.0,0.0
1586175137051,4966404.0,4984428.0,0.0
1586175137099,4968178.0,4992481.0,0.0
1586175137146,4966597.0,4991312.0,0.0
1586175137197,4972730.0,5004954.0,0.0
1586175137248,4986615.0,5017825.0,0.0
1586175137293,5019613.0,5051921.0,0.0
1586175137343,5029753.0,5074644.0,0.0
1586175137385,4971582.0,5037444.0,0.0
1586175137441,4927368.0,5014117.0,0.0
1586175137488,4923602.0,5004869.0,0.0
1586175137538,4907133.0,4996588.0,0.0
1586175137587,4895457.0,4994089.0,0.0
1586175137635,4884870.0,4990733.0,0.0
1586175137678,4875428.0,4987882.0,0.0
1586175137726,4872157.0,4987424.0,0.0
1586175137781,4873738.0,4995054.0,0.0
1586175137826,4888467.0,5004773.0,0.0
1586175137872,4890509.0,5016979.0,0.0
1586175137929,4851002.0,4982376.0,0.0
1586175137976,4801308.0,4933610.0,0.0
1586175138030,4778851.0,4920717.0,0.0
1586175138072,4770013.0,4919558.0,0.0
1586175138123,4774117.0,4921248.0,0.0
1586175138165,4773755.0,4929058.0,0.0
1586175138220,4779055.0,4932017.0,0.0
1586175138262,4782147.0,4937957.0,0.0
1586175138312,4789367.0,4947677.0,0.0
1586175138367,4797806.0,4962889.0,0.0
1586175138407,4812331.0,4976279.0,0.0
1586175138463,4792760.0,4960342.0,0.0
1586175138507,4743571.0,4919315.0,0.0
1586175138561,4704501.0,4897620.0,0.0
1586175138608,4693634.0,4888914.0,0.0
1586175138657,4691219.0,4901482.0,0.0
1586175138708,4697172.0,4910201.0,0.0
1586175138750,4699780.0,4915948.0,0.0
1586175138797,4702303.0,4919870.0,0.0
1586175138848,4711768.0,4927659.0,0.0
1586175138893,4725460.0,4937027.0,0.0
1586175138945,4731847.0,4949005.0,0.0
1586175138992,4720861.0,4948087.0,0.0
1586175139042,4675573.0,4914052.0,0.0
1586175139091,4636476.0,4888165.0,0.0
1586175139139,4621457.0,4882165.0,0.0
1586175139189,4627471.0,4888697.0,0.0
1586175139245,4638893.0,4903089.0,0.0
1586175139289,4650253.0,4909646.0,0.0
1586175139341,4655325.0,4917649.0,0.0
1586175139389,4665938.0,4928082.0,0.0
1586175139439,4679701.0,4937088.0,0.0
1586175139485,4690349.0,4954582.0,0.0
1586175139530,4706481.0,4966682.0,0.0
1586175139581,4715741.0,4979297.0,0.0
1586175139628,4683298.0,4951250.0,0.0
1586175139676,4650096.0,4921875.0,0.0
1586175139728,4645146.0,4915282.0,0.0
1586175139781,4640607.0,4912674.0,0.0
1586175139822,4648816.0,4927477.0,0.0
1586175139872,4651146.0,4924760.0,0.0
1586175139927,4652270.0,4926887.0,0.0
1586175139975,4656748.0,4932295.0,0.0
1586175140027,4666131.0,4942871.0,0.0
1586175140069,4678107.0,4956478.0,0.0
1586175140121,4697931.0,4974674.0,0.0
1586175140171,4706262.0,4980408.0,0.0
1586175140213,4666830.0,4948740.0,0.0
1586175140268,4636875.0,4923650.0,0.0
1586175140309,4623752.0,4920680.0,0.0
1586175140365,4628896.0,4920233.0,0.0
1586175140410,4638142.0,4931124.0,0.0
1586175140461,4642392.0,4939611.0,0.0
1586175140512,4645460.0,4943559.0,0.0
1586175140552,4656026.0,4953231.0,0.0
1586175140608,4670863.0,4969723.0,0.0
1586175140651,4687754.0,4985153.0,0.0
1586175140706,4703136.0,5003385.0,0.0
1586175140753,4727864.0,5023294.0,0.0
1586175140977,4727031.0,5023004.0,0.0
1586175140977,4686257.0,4992095.0,0.0
1586175140977,4656110.0,4970133.0,0.0
1586175140977,4649975.0,4963421.0,0.0
1586175141061,4645508.0,4962408.0,0.0
1586175141061,4659321.0,4968938.0,0.0
1586175141090,4666348.0,4979236.0,0.0
1586175141138,4674219.0,4981217.0,0.0
1586175141194,4684893.0,4992711.0,0.0
1586175141235,4700528.0,5004097.0,0.0
1586175141292,4719097.0,5024284.0,0.0
1586175141334,4736859.0,5039496.0,0.0
1586175141389,4755475.0,5051908.0,0.0
1586175141431,4776315.0,5069487.0,0.0
1586175141479,4792903.0,5089481.0,0.0
1586175141532,4813344.0,5103572.0,0.0
1586175141582,4802260.0,5095061.0,0.0
1586175141628,4762804.0,5065348.0,0.0
1586175141674,4745153.0,5055375.0,0.0
1586175141731,4748170.0,5055145.0,0.0
1586175141770,4749572.0,5054142.0,0.0
1586175141827,4759968.0,5063161.0,0.0
1586175141871,4769132.0,5066747.0,0.0
1586175141923,4769807.0,5072457.0,0.0
1586175141972,4785056.0,5088590.0,0.0
1586175142018,4798325.0,5096207.0,0.0
1586175142072,4816520.0,5112929.0,0.0
1586175142112,4829585.0,5130786.0,0.0
1586175142161,4847307.0,5145020.0,0.0
1586175142210,4866566.0,5161404.0,0.0
1586175142265,4883482.0,5177704.0,0.0
1586175142313,4898839.0,5191276.0,0.0
1586175142359,4917723.0,5211873.0,0.0
1586175142411,4935204.0,5228728.0,0.0
1586175142453,4949898.0,5240126.0,0.0
1586175142509,4934866.0,5229609.0,0.0
1586175142550,4894045.0,5201429.0,0.0
1586175142607,4879848.0,5193979.0,0.0
1586175142649,4883675.0,5194849.0,0.0
1586175142702,4888129.0,5204640.0,0.0
1586175142749,4891752.0,5208287.0,0.0
1586175142799,4888853.0,5210400.0,0.0
1586175142850,4895338.0,5217718.0,0.0
1586175142891,4901640.0,5228329.0,0.0
1586175142948,4918699.0,5239907.0,0.0
1586175142990,4929650.0,5251740.0,0.0
1586175143044,4947121.0,5267473.0,0.0
1586175143087,4960282.0,5280971.0,0.0
1586175143135,4977076.0,5296872.0,0.0
1586175143190,4991976.0,5316601.0,0.0
1586175143233,5006114.0,5327310.0,0.0
1586175143289,5023524.0,5345481.0,0.0
1586175143329,5039412.0,5363579.0,0.0
1586175143385,5056099.0,5381172.0,0.0
1586175143428,5039292.0,5363156.0,0.0
1586175143476,5003808.0,5341713.0,0.0
1586175143526,4985927.0,5331790.0,0.0
1586175143577,4989029.0,5327865.0,0.0
1586175143630,4996165.0,5328410.0,0.0
1586175143672,5000910.0,5332840.0,0.0
1586175143975,4994330.0,5333080.0,0.0
1586175143975,4991854.0,5330703.0,0.0
1586175143975,4996575.0,5340337.0,0.0
1586175143975,5012234.0,5352278.0,0.0
1586175143975,5027822.0,5363217.0,0.0
1586175143975,5041887.0,5374674.0,0.0
1586175144029,5052018.0,5385372.0,0.0
1586175144104,5064163.0,5395744.0,0.0
1586175144119,5079751.0,5412393.0,0.0
1586175144164,5095313.0,5426724.0,0.0
1586175144210,5114125.0,5446465.0,0.0
1586175144258,5141616.0,5461087.0,0.0
1586175144311,5165873.0,5478714.0,0.0
1586175144352,5175109.0,5485837.0,0.0
1586175144409,5158339.0,5458961.0,0.0
1586175144458,5145359.0,5443640.0,0.0
1586175144505,5176992.0,5462113.0,0.0
1586175144553,5207200.0,5478593.0,0.0
1586175144600,5230466.0,5468476.0,0.0
1586175144648,5252514.0,5455327.0,0.0
1586175144695,5294132.0,5452984.0,0.0
1586175144743,5334916.0,5471396.0,0.0
1586175144794,5354947.0,5505965.0,0.0
1586175144846,5397252.0,5524571.0,0.0
1586175144894,5417500.0,5530932.0,0.0
1586175144939,5434971.0,5539505.0,0.0
1586175144989,5462222.0,5544697.0,0.0
1586175145037,5486526.0,5545300.0,0.0
1586175145084,5506798.0,5532177.0,0.0
1586175145138,5477193.0,5501303.0,0.0
1586175145187,5436975.0,5473896.0,0.0
1586175145232,5385782.0,5436758.0,0.0
1586175145278,5344913.0,5416293.0,0.0
1586175145327,5330497.0,5404533.0,0.0
1586175145379,5325498.0,5401803.0,0.0
1586175145431,5349488.0,5399693.0,0.0
1586175145475,5358533.0,5403290.0,0.0
1586175145527,5367623.0,5402420.0,0.0
1586175145575,5395889.0,5414397.0,0.0
1586175145626,5444605.0,5464951.0,0.0
1586175145673,5466712.0,5488410.0,0.0
1586175145721,5428850.0,5476445.0,0.0
1586175145769,5336209.0,5426881.0,0.0
1586175145813,5255905.0,5376922.0,0.0
1586175145864,5191361.0,5345444.0,0.0
1586175145916,5147979.0,5328180.0,0.0
1586175145965,5111723.0,5322311.0,0.0
1586175146015,5083700.0,5311891.0,0.0
1586175146063,5044785.0,5292780.0,0.0
1586175146109,5027304.0,5283325.0,0.0
1586175146161,5012512.0,5279088.0,0.0
1586175146205,5004303.0,5283373.0,0.0
1586175146259,4996490.0,5286332.0,0.0
1586175146306,4975483.0,5285245.0,0.0
1586175146355,4929264.0,5243422.0,0.0
1586175146404,4882889.0,5189621.0,0.0
1586175146451,4859153.0,5166572.0,0.0
1586175146495,4835766.0,5153280.0,0.0
1586175146549,4815566.0,5141169.0,0.0
1586175146600,4798457.0,5129035.0,0.0
1586175146649,4778090.0,5116177.0,0.0
1586175146697,4767670.0,5105479.0,0.0
1586175146746,4758120.0,5100457.0,0.0
1586175146790,4759942.0,5102763.0,0.0
1586175146836,4757940.0,5105336.0,0.0
1586175146889,4755536.0,5105698.0,0.0
1586175146937,4730072.0,5076829.0,0.0
1586175146989,4698706.0,5026614.0,0.0
1586175147040,4680680.0,4996527.0,0.0
1586175147083,4666287.0,4977028.0,0.0
1586175147136,4651969.0,4971958.0,0.0
1586175147186,4636780.0,4959774.0,0.0
1586175147234,4626069.0,4955368.0,0.0
1586175147275,4610531.0,4947121.0,0.0
1586175147328,4604290.0,4948835.0,0.0
1586175147375,4615734.0,4956177.0,0.0
1586175147424,4620238.0,4962818.0,0.0
1586175147473,4619008.0,4966597.0,0.0
1586175147520,4619151.0,4975748.0,0.0
1586175147576,4595451.0,4952458.0,0.0
1586175147615,4546807.0,4905866.0,0.0
1586175147669,4522200.0,4883542.0,0.0
1586175147714,4511937.0,4877312.0,0.0
1586175147770,4511381.0,4881646.0,0.0
1586175147819,4506094.0,4883759.0,0.0
1586175147865,4493960.0,4880498.0,0.0
1586175147917,4489541.0,4885521.0,0.0
1586175147957,4491739.0,4900638.0,0.0
1586175148012,4503352.0,4918844.0,0.0
1586175148060,4518107.0,4932827.0,0.0
1586175148104,4534091.0,4945249.0,0.0
1586175148155,4544609.0,4960885.0,0.0
1586175148202,4551491.0,4972368.0,0.0
1586175148251,4512203.0,4932499.0,0.0
1586175148299,4472710.0,4905901.0,0.0
1586175148348,4463245.0,4895036.0,0.0
1586175148400,4455395.0,4893333.0,0.0
1586175148446,4457545.0,4895060.0,0.0
1586175148502,4454419.0,4892958.0,0.0
1586175148544,4442851.0,4872892.0,0.0
1586175148597,4421530.0,4865347.0,0.0
1586175148644,4421566.0,4871697.0,0.0
1586175148695,4429426.0,4893092.0,0.0
1586175148737,4446038.0,4919230.0,0.0
1586175148791,4466503.0,4940179.0,0.0
1586175148839,4482416.0,4963675.0,0.0
1586175148890,4480956.0,4975301.0,0.0
1586175148935,4447982.0,4948872.0,0.0
1586175148978,4422736.0,4933501.0,0.0
1586175149028,4419755.0,4935857.0,0.0
1586175149078,4425211.0,4943197.0,0.0
1586175149129,4429824.0,4951287.0,0.0
1586175149177,4437901.0,4944598.0,0.0
1586175149226,4427144.0,4934770.0,0.0
1586175149271,4414709.0,4946458.0,0.0
1586175149322,4417920.0,4966777.0,0.0
1586175149373,4454562.0,4996636.0,0.0
1586175149418,4486944.0,5026481.0,0.0
1586175149475,4503727.0,5047200.0,0.0
1586175149519,4513024.0,5058440.0,0.0
1586175149569,4524047.0,5074149.0,0.0
1586175149621,4548992.0,5090497.0,0.0
1586175149660,4558759.0,5093636.0,0.0
1586175149712,4531835.0,5061556.0,0.0
1586175149759,4513809.0,5042466.0,0.0
1586175149811,4513410.0,5043095.0,0.0
1586175149858,4513846.0,5046465.0,0.0
1586175149910,4523431.0,5053756.0,0.0
1586175149961,4529540.0,5060855.0,0.0
1586175150008,4537474.0,5062992.0,0.0
1586175150060,4546262.0,5071323.0,0.0
1586175150100,4550729.0,5083216.0,0.0
1586175150149,4556452.0,5096871.0,0.0
1586175150198,4568163.0,5118845.0,0.0
1586175150251,4583209.0,5135822.0,0.0
1586175150305,4601970.0,5155115.0,0.0
1586175150349,4610169.0,5179925.0,0.0
1586175150400,4621301.0,5209869.0,0.0
1586175150441,4629534.0,5207128.0,0.0
1586175150491,4603407.0,5160983.0,0.0
1586175150540,4582376.0,5139974.0,0.0
1586175150594,4590405.0,5146059.0,0.0
1586175150641,4607392.0,5163964.0,0.0
1586175150689,4633205.0,5180324.0,0.0
1586175150739,4679109.0,5186338.0,0.0
1586175150788,4715838.0,5197095.0,0.0
1586175150838,4753277.0,5218152.0,0.0
1586175150878,4798264.0,5236273.0,0.0
1586175150935,4832880.0,5252369.0,0.0
1586175150981,4860481.0,5249544.0,0.0
1586175151033,4846596.0,5241780.0,0.0
1586175151080,4829548.0,5246839.0,0.0
1586175151129,4822400.0,5263318.0,0.0
1586175151180,4799895.0,5267256.0,0.0
1586175151219,4761029.0,5250666.0,0.0
1586175151270,4749440.0,5255918.0,0.0
1586175151322,4773755.0,5266011.0,0.0
1586175151373,4788401.0,5257330.0,0.0
1586175151600,4774757.0,5233039.0,0.0
1586175151600,4754232.0,5227665.0,0.0
1586175151600,4742460.0,5228136.0,0.0
1586175151600,4739273.0,5242613.0,0.0
1586175151718,4744333.0,5275370.0,0.0
1586175151719,4754414.0,5289001.0,0.0
1586175151762,4765123.0,5298646.0,0.0
1586175151812,4774768.0,5313522.0,0.0
1586175151860,4787145.0,5326815.0,0.0
1586175151905,4765800.0,5301243.0,0.0
1586175151957,4736002.0,5271493.0,0.0
1586175152000,4728116.0,5263863.0,0.0
1586175152056,4728152.0,5254794.0,0.0
1586175152103,4730472.0,5260168.0,0.0
1586175152147,4736605.0,5261943.0,0.0
1586175152201,4740323.0,5257124.0,0.0
1586175152242,4741712.0,5259661.0,0.0
1586175152291,4750453.0,5269176.0,0.0
1586175152339,4765377.0,5280054.0,0.0
1586175152390,4782435.0,5292296.0,0.0
1586175152442,4795802.0,5301786.0,0.0
1586175152487,4816798.0,5316239.0,0.0
1586175152542,4821556.0,5327310.0,0.0
1586175152589,4840717.0,5340073.0,0.0
1586175152639,4856074.0,5352448.0,0.0
1586175152680,4835972.0,5330679.0,0.0
1586175152736,4808842.0,5299516.0,0.0
1586175152782,4798785.0,5291619.0,0.0
1586175152836,4800173.0,5285608.0,0.0
1586175152882,4808576.0,5291185.0,0.0
1586175152929,4811702.0,5295472.0,0.0
1586175152979,4814322.0,5291897.0,0.0
1586175153020,4817811.0,5295544.0,0.0
1586175153078,4822606.0,5303525.0,0.0
1586175153121,4834280.0,5317106.0,0.0
1586175153167,4847175.0,5336571.0,0.0
1586175153214,4852523.0,5349549.0,0.0
1586175153264,4855120.0,5365922.0,0.0
1586175153311,4863993.0,5383356.0,0.0
1586175153361,4863681.0,5383949.0,0.0
1586175153409,4832976.0,5347473.0,0.0
1586175153462,4820022.0,5323953.0,0.0
1586175153509,4820286.0,5315924.0,0.0
1586175153563,4823016.0,5315054.0,0.0
1586175153607,4831986.0,5315599.0,0.0
1586175153658,4828739.0,5309079.0,0.0
1586175153707,4830188.0,5304973.0,0.0
1586175153759,4833097.0,5308342.0,0.0
1586175153802,4847707.0,5316588.0,0.0
1586175153854,4856085.0,5328167.0,0.0
1586175153904,4870731.0,5335604.0,0.0
1586175153954,4881707.0,5350334.0,0.0
1586175154002,4896062.0,5359245.0,0.0
1586175154044,4897173.0,5352894.0,0.0
1586175154099,4865720.0,5317773.0,0.0
1586175154142,4843240.0,5293817.0,0.0
1586175154198,4831939.0,5282421.0,0.0
1586175154243,4825623.0,5277843.0,0.0
1586175154289,4828340.0,5276782.0,0.0
1586175154343,4827363.0,5274148.0,0.0
1586175154391,4830550.0,5282505.0,0.0
1586175154441,4842938.0,5291138.0,0.0
1586175154483,4853948.0,5297427.0,0.0
1586175154539,4860843.0,5301786.0,0.0
1586175154584,4867738.0,5313184.0,0.0
1586175154637,4876865.0,5325003.0,0.0
1586175154678,4887417.0,5334096.0,0.0
1586175154731,4894928.0,5339491.0,0.0
1586175154776,4867894.0,5305879.0,0.0
1586175154822,4840608.0,5281043.0,0.0
1586175154872,4834414.0,5267883.0,0.0
1586175154922,4824610.0,5254167.0,0.0
1586175154972,4824393.0,5254831.0,0.0
1586175155020,4822304.0,5257005.0,0.0
1586175155071,4824283.0,5254614.0,0.0
1586175155117,4825721.0,5258092.0,0.0
1586175155169,4832820.0,5262160.0,0.0
1586175155220,4840439.0,5275598.0,0.0
1586175155263,4852163.0,5284473.0,0.0
1586175155318,4863800.0,5295809.0,0.0
1586175155366,4878349.0,5309066.0,0.0
1586175155410,4888599.0,5322856.0,0.0
1586175155465,4902508.0,5336027.0,0.0
1586175155512,4916466.0,5352218.0,0.0
1586175155562,4937040.0,5367274.0,0.0
1586175155604,4922708.0,5353027.0,0.0
1586175155660,4884484.0,5315104.0,0.0
1586175155705,4869018.0,5304684.0,0.0
1586175155757,4864707.0,5296618.0,0.0
1586175155805,4859478.0,5292175.0,0.0
1586175155853,4856884.0,5289773.0,0.0
1586175155902,4857185.0,5290328.0,0.0
1586175155945,4854334.0,5292780.0,0.0
1586175155996,4858320.0,5299503.0,0.0
1586175156049,4865154.0,5306639.0,0.0
1586175156096,4877468.0,5319413.0,0.0
1586175156139,4890929.0,5329060.0,0.0
1586175156195,4901881.0,5341134.0,0.0
1586175156237,4917976.0,5356806.0,0.0
1586175156285,4928661.0,5369641.0,0.0
1586175156341,4943173.0,5383864.0,0.0
1586175156386,4955984.0,5397217.0,0.0
1586175156439,4970255.0,5412477.0,0.0
1586175156488,4990865.0,5429128.0,0.0
1586175156537,5012488.0,5441236.0,0.0
1586175156578,5017016.0,5460929.0,0.0
1586175156630,5030406.0,5474837.0,0.0
1586175156675,5025757.0,5468294.0,0.0
1586175156726,4992820.0,5437930.0,0.0
1586175156776,4969723.0,5421739.0,0.0
1586175156829,4968517.0,5423646.0,0.0
1586175156876,4964532.0,5419372.0,0.0
1586175156923,4963759.0,5426182.0,0.0
1586175156969,4964545.0,5420470.0,0.0
1586175157023,4961405.0,5423887.0,0.0
1586175157067,4961683.0,5426603.0,0.0
1586175157120,4968769.0,5437531.0,0.0
1586175157167,4976242.0,5450389.0,0.0
1586175157217,4984478.0,5459963.0,0.0
1586175157267,4987170.0,5472568.0,0.0
1586175157533,4995091.0,5484860.0,0.0
1586175157533,4999122.0,5498261.0,0.0
1586175157533,5009566.0,5515465.0,0.0
1586175157533,5015953.0,5529376.0,0.0
1586175157533,5025915.0,5540749.0,0.0
1586175157582,5018428.0,5545747.0,0.0
1586175157655,4974698.0,5530450.0,0.0
1586175157669,4943064.0,5515756.0,0.0
1586175157703,4955259.0,5525909.0,0.0
1586175157748,4965714.0,5535967.0,0.0
1586175157804,4979625.0,5545493.0,0.0
1586175157847,4983161.0,5549502.0,0.0
1586175157900,4979503.0,5548754.0,0.0
1586175157948,4997046.0,5557508.0,0.0
1586175157996,5018997.0,5571972.0,0.0
1586175158048,5037518.0,5579361.0,0.0
1586175158088,5048938.0,5586917.0,0.0
1586175158142,5071976.0,5597954.0,0.0
1586175158190,5094070.0,5608916.0,0.0
1586175158241,5104768.0,5628706.0,0.0
1586175158290,5095254.0,5599644.0,0.0
1586175158338,5069669.0,5580639.0,0.0
1586175158389,5060046.0,5577452.0,0.0
1586175158430,5066747.0,5584021.0,0.0
1586175158477,5072423.0,5586399.0,0.0
1586175158528,5065866.0,5594029.0,0.0
1586175158576,5061423.0,5592098.0,0.0
1586175158632,5060289.0,5594608.0,0.0
1586175158673,5062232.0,5602577.0,0.0
1586175158729,5063597.0,5613288.0,0.0
1586175158772,5065565.0,5631832.0,0.0
1586175158826,5070381.0,5645270.0,0.0
1586175158873,5076818.0,5650861.0,0.0
1586175158921,5052416.0,5631145.0,0.0
1586175158973,5017172.0,5609352.0,0.0
1586175159013,4997106.0,5593101.0,0.0
1586175159072,4992711.0,5589599.0,0.0
1586175159111,4987496.0,5583249.0,0.0
1586175159167,4985118.0,5581231.0,0.0
1586175159211,4982280.0,5576873.0,0.0
1586175159265,4979032.0,5575220.0,0.0
1586175159317,4980432.0,5577645.0,0.0
1586175159356,4986784.0,5586581.0,0.0
1586175159567,4997614.0,5589525.0,0.0
1586175159568,5010110.0,5599668.0,0.0
1586175159568,5024744.0,5608385.0,0.0
1586175159568,5006633.0,5591252.0,0.0
1586175159711,4946638.0,5549296.0,0.0
1586175159711,4935638.0,5540989.0,0.0
1586175159748,4929047.0,5537681.0,0.0
1586175159797,4920148.0,5537115.0,0.0
1586175159848,4911529.0,5536570.0,0.0
1586175159891,4905359.0,5537345.0,0.0
1586175159945,4910019.0,5546821.0,0.0
1586175159992,4919243.0,5551965.0,0.0
1586175160038,4926826.0,5558859.0,0.0
1586175160089,4939129.0,5566984.0,0.0
1586175160135,4951951.0,5571959.0,0.0
1586175160185,4966354.0,5580266.0,0.0
1586175160233,4955537.0,5565995.0,0.0
1586175160287,4919135.0,5529532.0,0.0
1586175160330,4894685.0,5507269.0,0.0
1586175160382,4887901.0,5496450.0,0.0
1586175160432,4878314.0,5488904.0,0.0
1586175160475,4876515.0,5480743.0,0.0
1586175160530,4878555.0,5473486.0,0.0
1586175160573,4876732.0,5465202.0,0.0
1586175160627,4882974.0,5467207.0,0.0
1586175160668,4886391.0,5472761.0,0.0
1586175160725,4896726.0,5479946.0,0.0
1586175160770,4909162.0,5487648.0,0.0
1586175160816,4918217.0,5496981.0,0.0
1586175160869,4932621.0,5504841.0,0.0
1586175160918,4942461.0,5512109.0,0.0
1586175160969,4954656.0,5523169.0,0.0
1586175161012,4960295.0,5523206.0,0.0
1586175161069,4922563.0,5490364.0,0.0
1586175161110,4892596.0,5464406.0,0.0
1586175161162,4881453.0,5452478.0,0.0
1586175161209,4872096.0,5442397.0,0.0
1586175161259,4869716.0,5436058.0,0.0
1586175161303,4863173.0,5431324.0,0.0
1586175161352,4863704.0,5427195.0,0.0
1586175161408,4867965.0,5426653.0,0.0
1586175161449,4874582.0,5428150.0,0.0
1586175161498,4880668.0,5437459.0,0.0
1586175161550,4888419.0,5445861.0,0.0
1586175161600,4899816.0,5460373.0,0.0
1586175161648,4911455.0,5470106.0,0.0
1586175161699,4926270.0,5477482.0,0.0
1586175161749,4937764.0,5487333.0,0.0
1586175161792,4953472.0,5499975.0,0.0
1586175161840,4962202.0,5511252.0,0.0
1586175161894,4962648.0,5506074.0,0.0
1586175161944,4924036.0,5467667.0,0.0
1586175161989,4905007.0,5449133.0,0.0
1586175162039,4896930.0,5439908.0,0.0
1586175162091,4899019.0,5439474.0,0.0
1586175162131,4900093.0,5436288.0,0.0
1586175162187,4896340.0,5432278.0,0.0
1586175162233,4892622.0,5431204.0,0.0
1586175162285,4897438.0,5433643.0,0.0
1586175162330,4902968.0,5436142.0,0.0
1586175162380,4913037.0,5444111.0,0.0
1586175162432,4924567.0,5451730.0,0.0
1586175162479,4934094.0,5463936.0,0.0
1586175162529,4948523.0,5475588.0,0.0
1586175162573,4960935.0,5482083.0,0.0
1586175162625,4972849.0,5494723.0,0.0
1586175162673,4982957.0,5510239.0,0.0
1586175162722,4980347.0,5494844.0,0.0
1586175162767,4947857.0,5469489.0,0.0
1586175162813,4932017.0,5451511.0,0.0
1586175162869,4932766.0,5448300.0,0.0
1586175162910,4933707.0,5448337.0,0.0
1586175162966,4937111.0,5453359.0,0.0
1586175163009,4932657.0,5446562.0,0.0
1586175163062,4934866.0,5449979.0,0.0
1586175163109,4936834.0,5453372.0,0.0
1586175163158,4944863.0,5463150.0,0.0
1586175163202,4957010.0,5471095.0,0.0
1586175163251,4965280.0,5481166.0,0.0
1586175163308,4976666.0,5488180.0,0.0
1586175163354,4986626.0,5502910.0,0.0
1586175163404,5003784.0,5513680.0,0.0
1586175163455,5012102.0,5526068.0,0.0
1586175163495,4998193.0,5505603.0,0.0
1586175163548,4965195.0,5477506.0,0.0
1586175163596,4950128.0,5460555.0,0.0
1586175163648,4947471.0,5456620.0,0.0
1586175163692,4944971.0,5453203.0,0.0
1586175163745,4944887.0,5451984.0,0.0
1586175163793,4946844.0,5449712.0,0.0
1586175163843,4945262.0,5448408.0,0.0
1586175163888,4949946.0,5451537.0,0.0
1586175163938,4958954.0,5460204.0,0.0
1586175163992,4969869.0,5469201.0,0.0
1586175164036,4980458.0,5478823.0,0.0
1586175164088,4993496.0,5488613.0,0.0
1586175164133,5007767.0,5499372.0,0.0
1586175164185,5017040.0,5505542.0,0.0
1586175164229,5030840.0,5519993.0,0.0
1586175164279,5045124.0,5527710.0,0.0
1586175164332,5058369.0,5544094.0,0.0
1586175164374,5036418.0,5522408.0,0.0
1586175164428,5009674.0,5490800.0,0.0
1586175164477,5000523.0,5478508.0,0.0
1586175164525,4996538.0,5474004.0,0.0
1586175164573,4992180.0,5469852.0,0.0
1586175164618,4995054.0,5470190.0,0.0
1586175164669,4996067.0,5466218.0,0.0
1586175164715,4993568.0,5465107.0,0.0
1586175164765,4996358.0,5470830.0,0.0
1586175164815,5005509.0,5474102.0,0.0
1586175164866,5019031.0,5481298.0,0.0
1586175164911,5030213.0,5491620.0,0.0
1586175164963,5041115.0,5503913.0,0.0
1586175165010,5054782.0,5514452.0,0.0
1586175165053,5066808.0,5523978.0,0.0
1586175165111,5082589.0,5534819.0,0.0
1586175165154,5093310.0,5546157.0,0.0
1586175165201,5109475.0,5557193.0,0.0
1586175165257,5118012.0,5569134.0,0.0
1586175165302,5102171.0,5548307.0,0.0
1586175165351,5077963.0,5520768.0,0.0
1586175165396,5067424.0,5511929.0,0.0
1586175165450,5070780.0,5512738.0,0.0
1586175165494,5072772.0,5510130.0,0.0
1586175165542,5073544.0,5511771.0,0.0
1586175165590,5076345.0,5502559.0,0.0
1586175165641,5074076.0,5503514.0,0.0
1586175165691,5076250.0,5504817.0,0.0
1586175165736,5086887.0,5512048.0,0.0
1586175165791,5095664.0,5520538.0,0.0
1586175165836,5108655.0,5530836.0,0.0
1586175165890,5117554.0,5536136.0,0.0
1586175165931,5128493.0,5549140.0,0.0
1586175165985,5145626.0,5560983.0,0.0
1586175166036,5157289.0,5569195.0,0.0
1586175166078,5163012.0,5578901.0,0.0
1586175166126,5146482.0,5554234.0,0.0
1586175166175,5125087.0,5531825.0,0.0
1586175166230,5115682.0,5520101.0,0.0
1586175166279,5116769.0,5518086.0,0.0
1586175166325,5116539.0,5517229.0,0.0
1586175166370,5122588.0,5517157.0,0.0
1586175166417,5122831.0,5515224.0,0.0
1586175166468,5124278.0,5515357.0,0.0
1586175166515,5131572.0,5521019.0,0.0
1586175166571,5138575.0,5524764.0,0.0
1586175166618,5152000.0,5533203.0,0.0
1586175166668,5160042.0,5542089.0,0.0
1586175166719,5173514.0,5554356.0,0.0
1586175166758,5186230.0,5564088.0,0.0
1586175166815,5195719.0,5577973.0,0.0
1586175166864,5212368.0,5588610.0,0.0
1586175166911,5217959.0,5589501.0,0.0
1586175166958,5199015.0,5567058.0,0.0
1586175167009,5178211.0,5545639.0,0.0
1586175167051,5164990.0,5536475.0,0.0
1586175167107,5166548.0,5529532.0,0.0
1586175167150,5165752.0,5529580.0,0.0
1586175167202,5162866.0,5526623.0,0.0
1586175167255,5166609.0,5523725.0,0.0
1586175167296,5166210.0,5522119.0,0.0
1586175167352,5167429.0,5525488.0,0.0
1586175167400,5176667.0,5534724.0,0.0
1586175167448,5184104.0,5537765.0,0.0
1586175167499,5194608.0,5549249.0,0.0
1586175167544,5205330.0,5558812.0,0.0
1586175167597,5216642.0,5569883.0,0.0
1586175167638,5225022.0,5576378.0,0.0
1586175167691,5237408.0,5586883.0,0.0
1586175167738,5248264.0,5599633.0,0.0
1586175167789,5251427.0,5593968.0,0.0
1586175167839,5225419.0,5566357.0,0.0
1586175167882,5203941.0,5550661.0,0.0
1586175167938,5197698.0,5541992.0,0.0
1586175167979,5193921.0,5536245.0,0.0
1586175168035,5189512.0,5535533.0,0.0
1586175168082,5187423.0,5530064.0,0.0
1586175168131,5182956.0,5526285.0,0.0
1586175168181,5183077.0,5524883.0,0.0
1586175168229,5187785.0,5528988.0,0.0
1586175168277,5192567.0,5533251.0,0.0
1586175168317,5199485.0,5543055.0,0.0
1586175168376,5208348.0,5546519.0,0.0
1586175168418,5216279.0,5554996.0,0.0
1586175168470,5225081.0,5561660.0,0.0
1586175168517,5237796.0,5573070.0,0.0
1586175168567,5245691.0,5584360.0,0.0
1586175168618,5256317.0,5592677.0,0.0
1586175168663,5248915.0,5584600.0,0.0
1586175168716,5220529.0,5557362.0,0.0
1586175168758,5201080.0,5538442.0,0.0
1586175168813,5194971.0,5534761.0,0.0
1586175168854,5195695.0,5528821.0,0.0
1586175168906,5193931.0,5527070.0,0.0
1586175168959,5186759.0,5523145.0,0.0
1586175169004,5181194.0,5518858.0,0.0
1586175169049,5182644.0,5522034.0,0.0
1586175169106,5187521.0,5522577.0,0.0
1586175169149,5191988.0,5531042.0,0.0
1586175169202,5197131.0,5536208.0,0.0
1586175169245,5210231.0,5543007.0,0.0
1586175169299,5215229.0,5548862.0,0.0
1586175169344,5220844.0,5558026.0,0.0
1586175169397,5228945.0,5567299.0,0.0
1586175169439,5240198.0,5577066.0,0.0
1586175169497,5250074.0,5583249.0,0.0
1586175169540,5233920.0,5565355.0,0.0
1586175169588,5205668.0,5538937.0,0.0
1586175169640,5188534.0,5524135.0,0.0
1586175169683,5180144.0,5515684.0,0.0
1586175169737,5169373.0,5512302.0,0.0
1586175169778,5165824.0,5504587.0,0.0
1586175169835,5156466.0,5499179.0,0.0
1586175169881,5152023.0,5497767.0,0.0
1586175169932,5147810.0,5493950.0,0.0
1586175169975,5153303.0,5498055.0,0.0
1586175170032,5158603.0,5505034.0,0.0
1586175170082,5164520.0,5513328.0,0.0
1586175170119,5171512.0,5521249.0,0.0
1586175170182,5177825.0,5528977.0,0.0
1586175170265,5187497.0,5536559.0,0.0
1586175170281,5191144.0,5548307.0,0.0
1586175170322,5200041.0,5559909.0,0.0
1586175170373,5213444.0,5566852.0,0.0
1586175170421,5221918.0,5578502.0,0.0
1586175170470,5235030.0,5591191.0,0.0
1586175170511,5224309.0,5573625.0,0.0
1586175170560,5192265.0,5549455.0,0.0
1586175170615,5171245.0,5543454.0,0.0
1586175170661,5167455.0,5535401.0,0.0
1586175170713,5155152.0,5530849.0,0.0
1586175170758,5157807.0,5529942.0,0.0
1586175170809,5154898.0,5526454.0,0.0
1586175170858,5148619.0,5527406.0,0.0
1586175170900,5148728.0,5529654.0,0.0
1586175170957,5156395.0,5533589.0,0.0
1586175171003,5161539.0,5544261.0,0.0
1586175171052,5165233.0,5546919.0,0.0
1586175171102,5179118.0,5554562.0,0.0
1586175171146,5186640.0,5566103.0,0.0
1586175171192,5199498.0,5580557.0,0.0
1586175171240,5204944.0,5585204.0,0.0
1586175171298,5216943.0,5593825.0,0.0
1586175171343,5227689.0,5609654.0,0.0
1586175171396,5240391.0,5619746.0,0.0
1586175171443,5256148.0,5631036.0,0.0
1586175171492,5250267.0,5627064.0,0.0
1586175171540,5228233.0,5605645.0,0.0
1586175171585,5216160.0,5600321.0,0.0
1586175171639,5211487.0,5595467.0,0.0
1586175171681,5210932.0,5602831.0,0.0
1586175171736,5211595.0,5604811.0,0.0
1586175171782,5210328.0,5602288.0,0.0
1586175171833,5208504.0,5606610.0,0.0
1586175171882,5212791.0,5610270.0,0.0
1586175171930,5220143.0,5614893.0,0.0
1586175171978,5231383.0,5620423.0,0.0
1586175172021,5241018.0,5635429.0,0.0
1586175172079,5254567.0,5638291.0,0.0
1586175172123,5266928.0,5652514.0,0.0
1586175172174,5272749.0,5664926.0,0.0
1586175172223,5281225.0,5674719.0,0.0
1586175172269,5291656.0,5688458.0,0.0
1586175172320,5307329.0,5696258.0,0.0
1586175172362,5320103.0,5710468.0,0.0
1586175172418,5330690.0,5723109.0,0.0
1586175172463,5341364.0,5731512.0,0.0
1586175172509,5325945.0,5708101.0,0.0
1586175172565,5303282.0,5698347.0,0.0
1586175172614,5298792.0,5697731.0,0.0
1586175172662,5294227.0,5696078.0,0.0
1586175172709,5295459.0,5698334.0,0.0
1586175172759,5290678.0,5694084.0,0.0
1586175172804,5292405.0,5697067.0,0.0
1586175172858,5291392.0,5699928.0,0.0
1586175172899,5298189.0,5701195.0,0.0
1586175172951,5305166.0,5708632.0,0.0
1586175173002,5316913.0,5715503.0,0.0
1586175173049,5323676.0,5723303.0,0.0
1586175173097,5335834.0,5736148.0,0.0
1586175173143,5343223.0,5743635.0,0.0
1586175173197,5354259.0,5749720.0,0.0
1586175173246,5365245.0,5762169.0,0.0
1586175173296,5380675.0,5772949.0,0.0
1586175173344,5390262.0,5785723.0,0.0
1586175173385,5403760.0,5799766.0,0.0
1586175173444,5419771.0,5807373.0,0.0
1586175173485,5428874.0,5815341.0,0.0
1586175173538,5409084.0,5792256.0,0.0
1586175173584,5388717.0,5783309.0,0.0
1586175173637,5382113.0,5781365.0,0.0
1586175173678,5379553.0,5777188.0,0.0
1586175173732,5372767.0,5778056.0,0.0
1586175173782,5372780.0,5773277.0,0.0
1586175173830,5367369.0,5768651.0,0.0
1586175173879,5365655.0,5769255.0,0.0
1586175173925,5363928.0,5771912.0,0.0
1586175173978,5370955.0,5772309.0,0.0
1586175174025,5375991.0,5781039.0,0.0
1586175174073,5383332.0,5783552.0,0.0
1586175174124,5385456.0,5783985.0,0.0
1586175174165,5395829.0,5791737.0,0.0
1586175174220,5406416.0,5797074.0,0.0
1586175174265,5414469.0,5805886.0,0.0
1586175174312,5421292.0,5806865.0,0.0
1586175174366,5429332.0,5815124.0,0.0
1586175174414,5440284.0,5824783.0,0.0
1586175174464,5430311.0,5812347.0,0.0
1586175174508,5406561.0,5787910.0,0.0
1586175174561,5390733.0,5776004.0,0.0
1586175174604,5392219.0,5775763.0,0.0
1586175174659,5386472.0,5765645.0,0.0
1586175174708,5385565.0,5766890.0,0.0
1586175174756,5383115.0,5763026.0,0.0
1586175174805,5380506.0,5752135.0,0.0
1586175174852,5379191.0,5751712.0,0.0
1586175174902,5383682.0,5751881.0,0.0
1586175174945,5389743.0,5753088.0,0.0
1586175175000,5393726.0,5753040.0,0.0
1586175175045,5402226.0,5761841.0,0.0
1586175175090,5411523.0,5766237.0,0.0
1586175175147,5415834.0,5770016.0,0.0
1586175175195,5423548.0,5775245.0,0.0
1586175175244,5429599.0,5780291.0,0.0
1586175175289,5439765.0,5788320.0,0.0
1586175175335,5448144.0,5790058.0,0.0
1586175175387,5427835.0,5763690.0,0.0
1586175175432,5394850.0,5735992.0,0.0
1586175175484,5384576.0,5722469.0,0.0
1586175175536,5371897.0,5709322.0,0.0
1586175175584,5363373.0,5697900.0,0.0
1586175175626,5351675.0,5685005.0,0.0
1586175175675,5345167.0,5678811.0,0.0
1586175175726,5338272.0,5668864.0,0.0
1586175175780,5337452.0,5665336.0,0.0
1586175175829,5339914.0,5661268.0,0.0
1586175175875,5343900.0,5661837.0,0.0
1586175175925,5346820.0,5663344.0,0.0
1586175175967,5351252.0,5666423.0,0.0
1586175176022,5355261.0,5668247.0,0.0
1586175176067,5359305.0,5671313.0,0.0
1586175176117,5363978.0,5670723.0,0.0
1586175176169,5370738.0,5677689.0,0.0
1586175176212,5380844.0,5683412.0,0.0
1586175176268,5388487.0,5691272.0,0.0
1586175176308,5397916.0,5700182.0,0.0
1586175176364,5407479.0,5706908.0,0.0
1586175176406,5413963.0,5713596.0,0.0
1586175176460,5402758.0,5692912.0,0.0
1586175176511,5373069.0,5660943.0,0.0
1586175176557,5348571.0,5641684.0,0.0
1586175176607,5338357.0,5635043.0,0.0
1586175176651,5328034.0,5624009.0,0.0
1586175176700,5322311.0,5613021.0,0.0
1586175176747,5310394.0,5605404.0,0.0
1586175176802,5300627.0,5593764.0,0.0
1586175176848,5298635.0,5588621.0,0.0
1586175176892,5294759.0,5588197.0,0.0
1586175176949,5296824.0,5589744.0,0.0
1586175176989,5298056.0,5588983.0,0.0
1586175177046,5300471.0,5591458.0,0.0
1586175177089,5298091.0,5597229.0,0.0
1586175177142,5304044.0,5597832.0,0.0
1586175177189,5311711.0,5604510.0,0.0
1586175177236,5315284.0,5613298.0,0.0
1586175177290,5319365.0,5618902.0,0.0
1586175177331,5303803.0,5602577.0,0.0
1586175177386,5277531.0,5575183.0,0.0
1586175177430,5254300.0,5557566.0,0.0
1586175177483,5246839.0,5552666.0,0.0
1586175177532,5240825.0,5547593.0,0.0
1586175177579,5231542.0,5541957.0,0.0
1586175177630,5223875.0,5532188.0,0.0
1586175177673,5216980.0,5531439.0,0.0
1586175177729,5209966.0,5526441.0,0.0
1586175177770,5211016.0,5524968.0,0.0
1586175177819,5208578.0,5527962.0,0.0
1586175177871,5214602.0,5538382.0,0.0
1586175177920,5213479.0,5543211.0,0.0
1586175177969,5221471.0,5545615.0,0.0
1586175178019,5220844.0,5546919.0,0.0
1586175178069,5224769.0,5555429.0,0.0
1586175178111,5222111.0,5546665.0,0.0
1586175178167,5190128.0,5516711.0,0.0
1586175178210,5168807.0,5496608.0,0.0
1586175178262,5156117.0,5488108.0,0.0
1586175178312,5146652.0,5478183.0,0.0
1586175178360,5136110.0,5470841.0,0.0
1586175178410,5130545.0,5466181.0,0.0
1586175178451,5126790.0,5455761.0,0.0
1586175178507,5124738.0,5456692.0,0.0
1586175178550,5121284.0,5456509.0,0.0
1586175178598,5122492.0,5461219.0,0.0
1586175178650,5133624.0,5468029.0,0.0
1586175178701,5136123.0,5470177.0,0.0
1586175178749,5144020.0,5476371.0,0.0
1586175178793,5147895.0,5487793.0,0.0
1586175178849,5157736.0,5494228.0,0.0
1586175178890,5169447.0,5502717.0,0.0
1586175178946,5167370.0,5499721.0,0.0
1586175178991,5139950.0,5473208.0,0.0
1586175179041,5122527.0,5459045.0,0.0
1586175179086,5110914.0,5450003.0,0.0
1586175179135,5106844.0,5440741.0,0.0
1586175179189,5100650.0,5438266.0,0.0
1586175179230,5093284.0,5440525.0,0.0
1586175179280,5084628.0,5437446.0,0.0
1586175179329,5077096.0,5445705.0,0.0
1586175179384,5079389.0,5451849.0,0.0
1586175179432,5082443.0,5463007.0,0.0
1586175179479,5095905.0,5465445.0,0.0
1586175179530,5100060.0,5477373.0,0.0
1586175179575,5112845.0,5477796.0,0.0
1586175179628,5123301.0,5491753.0,0.0
1586175179669,5136195.0,5500435.0,0.0
1586175179724,5146409.0,5507002.0,0.0
1586175179773,5143296.0,5507896.0,0.0
1586175179819,5124291.0,5487576.0,0.0
1586175179870,5112085.0,5474705.0,0.0
1586175179916,5108269.0,5473438.0,0.0
1586175179966,5107145.0,5473366.0,0.0
1586175180017,5104587.0,5474054.0,0.0
1586175180058,5104696.0,5474863.0,0.0
1586175180110,5108679.0,5476842.0,0.0
1586175180161,5112411.0,5476022.0,0.0
1586175180208,5117396.0,5483472.0,0.0
1586175180259,5125944.0,5495135.0,0.0
1586175180310,5135145.0,5506314.0,0.0
1586175180358,5144272.0,5513968.0,0.0
1586175180408,5153798.0,5523568.0,0.0
1586175180452,5161042.0,5533468.0,0.0
1586175180505,5175339.0,5549598.0,0.0
1586175180549,5190514.0,5558256.0,0.0
1586175180602,5176704.0,5549587.0,0.0
1586175180650,5156104.0,5537694.0,0.0
1586175180692,5149236.0,5528337.0,0.0
1586175180749,5141833.0,5525100.0,0.0
1586175180793,5139672.0,5526224.0,0.0
1586175180846,5142473.0,5528374.0,0.0
1586175180893,5140807.0,5524788.0,0.0
1586175180943,5142872.0,5528482.0,0.0
1586175180988,5145806.0,5534880.0,0.0
1586175181039,5156213.0,5535895.0,0.0
1586175181084,5165197.0,5550926.0,0.0
1586175181131,5174324.0,5559716.0,0.0
1586175181186,5189729.0,5573770.0,0.0
1586175181236,5196782.0,5584648.0,0.0
1586175181284,5209990.0,5596674.0,0.0
1586175181332,5221159.0,5608434.0,0.0
1586175181379,5236503.0,5620701.0,0.0
1586175181432,5250848.0,5638653.0,0.0
1586175181478,5262969.0,5647854.0,0.0
1586175181521,5279184.0,5663696.0,0.0
1586175181573,5294494.0,5680019.0,0.0
1586175181626,5303899.0,5693179.0,0.0
1586175181673,5322396.0,5709767.0,0.0
1586175181722,5339179.0,5721129.0,0.0
1586175181768,5352701.0,5737790.0,0.0
1586175181814,5364002.0,5750506.0,0.0
1586175181869,5368940.0,5745277.0,0.0
1586175181913,5349211.0,5733493.0,0.0
1586175181966,5338840.0,5729303.0,0.0
1586175182013,5335133.0,5734773.0,0.0
1586175182063,5333551.0,5732514.0,0.0
1586175182114,5337645.0,5736560.0,0.0
1586175182159,5327926.0,5741607.0,0.0
1586175182204,5328468.0,5740327.0,0.0
1586175182252,5336050.0,5740533.0,0.0
1586175182299,5338140.0,5750927.0,0.0
1586175182351,5340893.0,5754055.0,0.0
1586175182400,5351432.0,5765150.0,0.0
1586175182449,5360017.0,5774012.0,0.0
1586175182497,5369688.0,5783393.0,0.0
1586175182548,5378067.0,5790552.0,0.0
1586175182596,5389513.0,5804064.0,0.0
1586175182642,5397966.0,5811163.0,0.0
1586175182698,5409761.0,5821450.0,0.0
1586175182745,5420216.0,5831894.0,0.0
1586175182793,5430250.0,5844716.0,0.0
1586175182843,5445983.0,5856548.0,0.0
1586175182889,5456813.0,5868886.0,0.0
1586175182935,5445848.0,5856247.0,0.0
1586175182990,5427557.0,5849170.0,0.0
1586175183035,5417476.0,5856366.0,0.0
1586175183079,5411644.0,5859651.0,0.0
1586175183136,5409906.0,5862258.0,0.0
1586175183184,5411935.0,5866654.0,0.0
1586175183229,5412260.0,5865905.0,0.0
1586175183277,5414675.0,5862367.0,0.0
1586175183330,5414675.0,5871798.0,0.0
1586175183380,5419745.0,5877122.0,0.0
1586175183428,5429224.0,5880261.0,0.0
1586175183476,5436674.0,5891477.0,0.0
1586175183518,5446959.0,5898613.0,0.0
1586175183572,5453975.0,5907293.0,0.0
1586175183621,5462426.0,5914997.0,0.0
1586175183668,5477133.0,5923087.0,0.0
1586175183714,5485474.0,5931574.0,0.0
1586175183768,5493794.0,5937284.0,0.0
1586175183810,5508801.0,5950941.0,0.0
1586175183863,5505915.0,5943285.0,0.0
1586175183916,5489253.0,5929786.0,0.0
1586175183961,5474416.0,5927953.0,0.0
1586175184009,5462258.0,5924729.0,0.0
1586175184054,5463356.0,5925332.0,0.0
1586175184113,5456813.0,5924824.0,0.0
1586175184152,5457403.0,5923751.0,0.0
1586175184207,5451378.0,5918401.0,0.0
1586175184256,5451500.0,5919609.0,0.0
1586175184305,5451428.0,5920442.0,0.0
1586175184347,5455858.0,5918921.0,0.0
1586175184396,5459831.0,5928458.0,0.0
1586175184451,5462656.0,5925705.0,0.0
1586175184497,5474282.0,5932901.0,0.0
1586175184548,5478799.0,5932782.0,0.0
1586175184597,5484834.0,5941330.0,0.0
1586175184638,5491390.0,5947643.0,0.0
1586175184691,5495664.0,5949418.0,0.0
1586175184740,5475948.0,5933446.0,0.0
1586175184790,5454565.0,5921794.0,0.0
1586175184837,5445957.0,5916977.0,0.0
1586175184883,5438811.0,5913994.0,0.0
1586175184939,5436769.0,5914296.0,0.0
1586175185213,5447684.0,5918678.0,0.0
1586175185213,5480899.0,5931645.0,0.0
1586175185213,5481393.0,5926757.0,0.0
1586175185213,5479124.0,5927361.0,0.0
1586175185213,5473390.0,5924475.0,0.0
1586175185263,5463174.0,5927842.0,0.0
1586175185330,5452151.0,5932841.0,0.0
1586175185340,5450318.0,5936887.0,0.0
1586175185375,5453817.0,5937924.0,0.0
1586175185416,5468947.0,5947873.0,0.0
1586175185475,5469418.0,5938818.0,0.0
1586175185516,5457295.0,5919657.0,0.0
1586175185566,5449458.0,5904807.0,0.0
1586175185620,5447552.0,5892141.0,0.0
1586175185662,5444931.0,5882591.0,0.0
1586175185718,5449025.0,5874961.0,0.0
1586175185760,5449265.0,5869056.0,0.0
1586175185816,5442421.0,5859085.0,0.0
1586175185857,5441056.0,5845658.0,0.0
1586175185908,5448615.0,5843087.0,0.0
1586175185959,5464118.0,5842978.0,0.0
1586175186011,5471034.0,5846478.0,0.0
1586175186057,5487479.0,5843087.0,0.0
1586175186100,5505167.0,5844618.0,0.0
1586175186149,5511384.0,5842494.0,0.0
1586175186197,5495690.0,5827644.0,0.0
1586175186251,5473956.0,5810596.0,0.0
1586175186300,5467654.0,5802845.0,0.0
1586175186345,5455702.0,5786630.0,0.0
1586175186399,5447044.0,5782692.0,0.0
1586175186446,5435431.0,5778141.0,0.0
1586175186498,5422850.0,5772539.0,0.0
1586175186545,5410690.0,5764028.0,0.0
1586175186595,5401938.0,5765028.0,0.0
1586175186638,5400634.0,5768797.0,0.0
1586175186685,5392581.0,5763473.0,0.0
1586175186740,5392943.0,5768495.0,0.0
1586175186787,5393763.0,5775195.0,0.0
1586175186838,5394813.0,5778998.0,0.0
1586175186880,5379469.0,5768157.0,0.0
1586175186928,5354246.0,5749697.0,0.0
1586175186979,5342522.0,5742670.0,0.0
1586175187030,5328590.0,5732588.0,0.0
1586175187082,5329700.0,5733228.0,0.0
1586175187129,5322081.0,5730813.0,0.0
1586175187180,5325498.0,5729097.0,0.0
1586175187219,5322721.0,5731705.0,0.0
1586175187277,5320573.0,5731427.0,0.0
1586175187318,5323953.0,5733953.0,0.0
1586175187366,5332827.0,5739795.0,0.0
1586175187416,5338177.0,5741594.0,0.0
1586175187466,5349018.0,5748898.0,0.0
1586175187511,5354101.0,5754671.0,0.0
1586175187563,5370630.0,5757411.0,0.0
1586175187610,5362902.0,5752617.0,0.0
1586175187658,5406188.0,5789079.0,0.0
1586175187715,5436613.0,5822453.0,0.0
1586175187761,5423355.0,5814966.0,0.0
1586175187813,5420483.0,5804498.0,0.0
1586175187857,5415907.0,5802059.0,0.0
1586175187907,5403966.0,5794212.0,0.0
1586175187953,5396141.0,5761540.0,0.0
1586175187998,5406151.0,5750371.0,0.0
1586175188055,5406466.0,5763531.0,0.0
1586175188101,5403025.0,5799053.0,0.0
1586175188146,5411777.0,5826798.0,0.0
1586175188202,5427243.0,5837387.0,0.0
1586175188243,5416450.0,5825603.0,0.0
1586175188300,5395056.0,5804474.0,0.0
1586175188340,5359245.0,5782621.0,0.0
1586175188397,5347581.0,5771936.0,0.0
1586175188440,5334157.0,5764365.0,0.0
1586175188494,5323747.0,5764414.0,0.0
1586175188540,5322023.0,5755129.0,0.0
1586175188590,5314102.0,5750517.0,0.0
1586175188641,5311663.0,5753934.0,0.0
1586175188683,5310720.0,5753341.0,0.0
1586175188738,5308439.0,5753897.0,0.0
1586175188783,5310576.0,5756433.0,0.0
1586175188837,5314644.0,5764414.0,0.0
1586175188883,5321803.0,5770112.0,0.0
1586175188932,5324689.0,5771405.0,0.0
1586175188981,5321827.0,5770765.0,0.0
1586175189032,5296123.0,5749165.0,0.0
1586175189078,5279872.0,5737465.0,0.0
1586175189124,5265614.0,5725077.0,0.0
1586175189175,5257114.0,5717820.0,0.0
1586175189222,5247672.0,5716820.0,0.0
1586175189273,5245583.0,5712002.0,0.0
1586175189322,5242287.0,5711978.0,0.0
1586175189454,5243385.0,5710904.0,0.0
1586175189454,5249024.0,5715744.0,0.0
1586175189692,5250896.0,5717677.0,0.0
1586175189692,5256474.0,5723797.0,0.0
1586175189692,5262064.0,5727553.0,0.0
1586175189692,5272858.0,5737814.0,0.0
1586175189698,5280271.0,5745193.0,0.0
1586175189734,5277819.0,5741147.0,0.0
1586175189828,5255291.0,5718341.0,0.0
1586175189828,5242650.0,5708212.0,0.0
1586175189857,5232772.0,5702391.0,0.0
1586175189902,5226276.0,5696427.0,0.0
1586175189958,5228257.0,5699325.0,0.0
1586175190004,5228765.0,5697381.0,0.0
1586175190048,5227654.0,5699048.0,0.0
1586175190099,5228474.0,5697598.0,0.0
1586175190145,5237313.0,5706617.0,0.0
1586175190199,5244834.0,5712774.0,0.0
1586175190241,5258309.0,5721202.0,0.0
1586175190296,5259457.0,5723882.0,0.0
1586175190342,5275574.0,5737333.0,0.0
1586175190394,5282564.0,5745204.0,0.0
1586175190442,5297234.0,5756446.0,0.0
1586175190484,5308487.0,5763219.0,0.0
1586175190533,5296980.0,5748742.0,0.0
1586175190583,5282505.0,5740472.0,0.0
1586175190637,5281201.0,5734593.0,0.0
1586175190681,5275949.0,5732805.0,0.0
1586175190728,5277771.0,5730486.0,0.0
1586175190780,5281828.0,5733953.0,0.0
1586175190831,5285148.0,5730909.0,0.0
1586175190880,5288879.0,5735738.0,0.0
1586175190922,5292682.0,5742210.0,0.0
1586175190972,5305528.0,5747800.0,0.0
1586175191023,5322046.0,5758908.0,0.0
1586175191076,5330690.0,5762288.0,0.0
1586175191128,5347581.0,5779325.0,0.0
1586175191175,5363918.0,5788452.0,0.0
1586175191221,5381339.0,5800248.0,0.0
1586175191263,5394390.0,5812286.0,0.0
1586175191319,5391952.0,5803956.0,0.0
1586175191362,5393920.0,5811948.0,0.0
1586175191636,5401647.0,5825132.0,0.0
1586175191637,5411536.0,5840828.0,0.0
1586175191637,5418804.0,5859627.0,0.0
1586175191637,5429152.0,5864832.0,0.0
1586175191637,5428438.0,5861256.0,0.0
1586175191680,5429078.0,5867149.0,0.0
1586175191781,5433437.0,5875625.0,0.0
1586175191782,5438086.0,5885381.0,0.0
1586175191812,5444365.0,5903804.0,0.0
1586175191853,5445041.0,5924547.0,0.0
1586175191897,5448964.0,5952739.0,0.0
1586175191946,5459035.0,5989575.0,0.0
1586175192001,5459228.0,6010571.0,0.0
1586175192042,5454615.0,6028405.0,0.0
1586175192098,5449834.0,6039211.0,0.0
1586175192147,5467932.0,6053120.0,0.0
1586175192195,5481877.0,6052842.0,0.0
1586175192243,5493141.0,6036434.0,0.0
1586175192290,5499250.0,6028598.0,0.0
1586175192342,5505119.0,6014012.0,0.0
1586175192383,5501834.0,5988948.0,0.0
1586175192440,5495847.0,5975172.0,0.0
1586175192486,5481636.0,5961372.0,0.0
1586175192531,5471589.0,5950518.0,0.0
1586175192585,5467389.0,5959222.0,0.0
1586175192630,5464176.0,5958076.0,0.0
1586175192675,5459709.0,5950976.0,0.0
1586175192724,5441056.0,5928543.0,0.0
1586175192780,5430070.0,5920357.0,0.0
1586175192826,5421665.0,5907777.0,0.0
1586175192872,5411319.0,5896960.0,0.0
1586175192926,5409314.0,5895293.0,0.0
1586175192974,5405802.0,5882337.0,0.0
1586175193023,5406416.0,5879222.0,0.0
1586175193067,5406066.0,5875202.0,0.0
1586175193120,5407093.0,5875226.0,0.0
1586175193165,5416582.0,5875588.0,0.0
1586175193218,5419819.0,5872655.0,0.0
1586175193267,5427304.0,5879029.0,0.0
1586175193315,5432048.0,5882012.0,0.0
1586175193358,5432604.0,5873427.0,0.0
1586175193407,5411644.0,5849474.0,0.0
1586175193461,5399293.0,5832135.0,0.0
1586175193507,5392388.0,5822693.0,0.0
1586175193558,5387522.0,5812768.0,0.0
1586175193609,5385059.0,5808182.0,0.0
1586175193654,5381291.0,5801263.0,0.0
1586175193705,5381605.0,5796831.0,0.0
1586175193746,5379685.0,5790349.0,0.0
1586175193977,5378998.0,5789129.0,0.0
1586175193977,5385673.0,5792581.0,0.0
1586175193977,5390902.0,5795032.0,0.0
1586175194075,5404533.0,5802072.0,0.0
1586175194213,5388053.0,5764028.0,0.0
1586175194242,5375568.0,5748634.0,0.0
1586175194288,5369652.0,5737864.0,0.0
1586175194337,5358448.0,5719922.0,0.0
1586175194387,5357155.0,5714284.0,0.0
1586175194429,5353074.0,5711132.0,0.0
1586175194484,5351868.0,5697863.0,0.0
1586175194527,5350274.0,5696681.0,0.0
1586175194581,5351096.0,5695581.0,0.0
1586175194629,5357205.0,5699469.0,0.0
1586175194674,5357179.0,5697778.0,0.0
1586175194728,5363965.0,5706376.0,0.0
1586175194769,5375869.0,5709878.0,0.0
1586175194825,5379915.0,5713173.0,0.0
1586175194867,5394366.0,5725016.0,0.0
1586175194921,5418200.0,5729666.0,0.0
1586175194972,5428573.0,5720261.0,0.0
1586175195273,5420483.0,5694772.0,0.0
1586175195274,5407262.0,5671421.0,0.0
1586175195274,5388342.0,5660615.0,0.0
1586175195274,5368649.0,5648433.0,0.0
1586175195275,5359824.0,5639632.0,0.0
1586175195275,5349176.0,5630457.0,0.0
1586175195397,5343127.0,5625289.0,0.0
1586175195397,5335037.0,5619336.0,0.0
1586175195409,5330076.0,5618395.0,0.0
1586175195450,5336304.0,5622235.0,0.0
1586175195507,5339034.0,5622885.0,0.0
1586175195553,5341628.0,5624552.0,0.0
1586175195604,5348293.0,5631954.0,0.0
1586175195650,5352651.0,5635406.0,0.0
1586175195694,5362299.0,5638039.0,0.0
1586175195750,5367853.0,5641721.0,0.0
1586175195791,5377536.0,5653167.0,0.0
1586175195846,5381979.0,5654313.0,0.0
1586175195891,5370051.0,5634826.0,0.0
1586175195938,5357735.0,5614687.0,0.0
1586175195992,5351458.0,5610582.0,0.0
1586175196039,5345034.0,5606478.0,0.0
1586175196092,5336233.0,5600525.0,0.0
1586175196133,5333189.0,5592630.0,0.0
1586175196185,5328167.0,5590081.0,0.0
1586175196231,5326960.0,5582548.0,0.0
1586175196278,5326815.0,5581810.0,0.0
1586175196332,5324919.0,5579311.0,0.0
1586175196380,5330655.0,5582524.0,0.0
1586175196428,5335122.0,5588536.0,0.0
1586175196474,5339129.0,5592413.0,0.0
1586175196528,5341967.0,5599826.0,0.0
1586175196570,5348933.0,5604655.0,0.0
1586175196625,5352858.0,5612188.0,0.0
1586175196667,5356721.0,5619831.0,0.0
1586175196723,5352736.0,5615158.0,0.0
1586175196768,5337960.0,5593426.0,0.0
1586175196812,5320380.0,5585227.0,0.0
1586175196871,5316540.0,5581522.0,0.0
1586175196910,5317276.0,5582633.0,0.0
1586175196968,5314753.0,5583392.0,0.0
1586175197210,5312967.0,5578177.0,0.0
1586175197212,5310045.0,5580157.0,0.0
1586175197212,5310322.0,5580591.0,0.0
1586175197212,5312242.0,5584360.0,0.0
1586175197212,5321660.0,5589901.0,0.0
1586175197365,5322856.0,5597832.0,0.0
1586175197365,5330727.0,5605692.0,0.0
1586175197365,5335556.0,5613335.0,0.0
1586175197416,5334831.0,5620701.0,0.0
1586175197453,5346447.0,5627739.0,0.0
1586175197502,5351252.0,5635358.0,0.0
1586175197548,5340530.0,5621629.0,0.0
1586175197597,5323023.0,5604304.0,0.0
1586175197649,5309151.0,5599704.0,0.0
1586175197698,5307678.0,5597205.0,0.0
1586175197747,5302849.0,5595997.0,0.0
1586175197793,5300024.0,5593691.0,0.0
1586175197843,5296787.0,5593101.0,0.0
1586175197889,5290992.0,5589551.0,0.0
1586175197939,5292984.0,5592085.0,0.0
1586175197991,5294565.0,5599136.0,0.0
1586175198033,5295991.0,5602336.0,0.0
1586175198086,5308196.0,5609352.0,0.0
1586175198129,5309947.0,5617247.0,0.0
1586175198184,5317011.0,5622825.0,0.0
1586175198233,5324170.0,5632906.0,0.0
1586175198281,5323205.0,5631097.0,0.0
1586175198330,5308789.0,5613795.0,0.0
1586175198371,5287636.0,5595370.0,0.0
1586175198429,5280874.0,5588247.0,0.0
1586175198472,5273003.0,5584987.0,0.0
1586175198525,5261157.0,5572974.0,0.0
1586175198572,5260168.0,5574699.0,0.0
1586175198622,5254543.0,5570364.0,0.0
1586175198668,5251076.0,5568880.0,0.0
1586175198714,5249362.0,5565789.0,0.0
1586175198769,5251655.0,5572575.0,0.0
1586175198815,5254879.0,5576801.0,0.0
1586175198866,5258454.0,5579470.0,0.0
1586175198916,5266494.0,5589044.0,0.0
1586175198964,5265034.0,5591942.0,0.0
1586175199008,5274452.0,5599041.0,0.0
1586175199054,5281260.0,5600212.0,0.0
1586175199109,5263596.0,5590517.0,0.0
1586175199151,5241634.0,5565101.0,0.0
1586175199208,5230756.0,5556516.0,0.0
1586175199256,5224539.0,5551869.0,0.0
1586175199297,5220916.0,5545699.0,0.0
1586175199349,5216292.0,5541545.0,0.0
1586175199399,5209688.0,5534036.0,0.0
1586175199451,5206875.0,5533915.0,0.0
1586175199495,5202685.0,5532201.0,0.0
1586175199541,5203881.0,5538612.0,0.0
1586175199591,5211016.0,5537718.0,0.0
1586175199645,5216208.0,5544094.0,0.0
1586175199691,5218176.0,5548452.0,0.0
1586175199738,5224068.0,5554488.0,0.0
1586175199789,5230516.0,5560610.0,0.0
1586175199838,5236818.0,5567757.0,0.0
1586175199889,5237989.0,5567685.0,0.0
1586175199935,5216655.0,5544419.0,0.0
1586175199984,5197541.0,5525933.0,0.0
1586175200033,5187134.0,5517060.0,0.0
1586175200083,5183982.0,5511133.0,0.0
1586175200128,5177378.0,5505191.0,0.0
1586175200181,5173128.0,5504357.0,0.0
1586175200229,5168613.0,5493154.0,0.0
1586175200273,5163771.0,5489917.0,0.0
1586175200326,5165800.0,5489943.0,0.0
1586175200372,5170412.0,5494059.0,0.0
1586175200423,5173202.0,5495363.0,0.0
1586175200496,5174831.0,5499155.0,0.0
1586175200517,5182221.0,5505542.0,0.0
1586175200570,5190237.0,5509393.0,0.0
1586175200614,5197724.0,5516745.0,0.0
1586175200667,5204751.0,5518726.0,0.0
1586175200714,5188256.0,5502789.0,0.0
1586175200764,5164617.0,5476299.0,0.0
1586175200809,5153967.0,5461111.0,0.0
1586175200856,5139879.0,5463959.0,0.0
1586175200910,5139744.0,5446827.0,0.0
1586175200955,5134772.0,5441104.0,0.0
1586175201008,5130762.0,5433511.0,0.0
1586175201056,5129675.0,5427497.0,0.0
1586175201104,5128311.0,5423212.0,0.0
1586175201147,5131873.0,5424455.0,0.0
1586175201195,5136655.0,5429599.0,0.0
1586175201249,5140542.0,5428343.0,0.0
1586175201293,5143742.0,5435164.0,0.0
1586175201349,5148329.0,5439438.0,0.0
1586175201393,5159727.0,5446671.0,0.0
1586175201446,5160790.0,5451428.0,0.0
1586175201488,5152266.0,5434489.0,0.0
1586175201537,5128385.0,5407733.0,0.0
1586175201590,5114812.0,5392134.0,0.0
1586175201633,5113122.0,5387305.0,0.0
1586175201682,5111612.0,5382063.0,0.0
1586175201734,5109838.0,5380868.0,0.0
1586175201787,5102583.0,5366658.0,0.0
1586175201836,5100457.0,5364629.0,0.0
1586175201880,5096860.0,5362759.0,0.0
1586175201929,5101459.0,5363627.0,0.0
1586175201978,5103210.0,5370968.0,0.0
1586175202031,5109319.0,5373092.0,0.0
1586175202075,5115574.0,5381135.0,0.0
1586175202128,5118991.0,5382957.0,0.0
1586175202177,5121381.0,5388246.0,0.0
1586175202224,5099478.0,5360199.0,0.0
1586175202273,5075054.0,5334990.0,0.0
1586175202316,5066506.0,5321105.0,0.0
1586175202368,5065142.0,5319111.0,0.0
1586175202417,5060072.0,5321322.0,0.0
1586175202468,5057390.0,5312917.0,0.0
1586175202518,5046245.0,5299191.0,0.0
1586175202565,5046909.0,5296776.0,0.0
1586175202615,5046499.0,5297332.0,0.0
1586175202655,5045280.0,5301050.0,0.0
1586175202710,5049832.0,5306242.0,0.0
1586175202756,5056412.0,5313835.0,0.0
1586175202810,5061508.0,5320669.0,0.0
1586175202859,5067533.0,5324604.0,0.0
1586175202904,5043553.0,5296702.0,0.0
1586175202957,5016207.0,5268814.0,0.0
1586175202997,4996406.0,5253914.0,0.0
1586175203051,4981979.0,5234970.0,0.0
1586175203099,4973949.0,5226821.0,0.0
1586175203143,4965822.0,5221328.0,0.0
1586175203197,4959665.0,5217982.0,0.0
1586175203242,4955103.0,5212611.0,0.0
1586175203291,4955283.0,5214132.0,0.0
1586175203339,4957118.0,5215882.0,0.0
1586175203389,4957058.0,5221497.0,0.0
1586175203437,4959739.0,5228088.0,0.0
1586175203486,4968178.0,5231928.0,0.0
1586175203536,4972222.0,5244001.0,0.0
1586175203583,4976316.0,5245776.0,0.0
1586175203634,4946891.0,5215446.0,0.0
1586175203679,4915488.0,5189755.0,0.0
1586175203728,4901146.0,5174371.0,0.0
1586175203777,4886174.0,5159280.0,0.0
1586175203827,4875344.0,5150442.0,0.0
1586175203876,4877952.0,5150346.0,0.0
1586175203924,4867846.0,5140952.0,0.0
1586175203972,4862702.0,5140228.0,0.0
1586175204021,4863631.0,5141460.0,0.0
1586175204070,4864694.0,5145504.0,0.0
1586175204115,4872953.0,5156069.0,0.0
1586175204171,4879292.0,5163917.0,0.0
1586175204219,4886100.0,5170920.0,0.0
1586175204270,4889675.0,5181617.0,0.0
1586175204320,4902063.0,5190708.0,0.0
1586175204369,4906615.0,5200173.0,0.0
1586175204417,4914123.0,5210702.0,0.0
1586175204457,4886269.0,5182691.0,0.0
1586175204512,4852187.0,5154813.0,0.0
1586175204558,4839508.0,5143851.0,0.0
1586175204605,4823476.0,5130472.0,0.0
1586175204660,4814045.0,5120125.0,0.0
1586175204709,4808697.0,5117372.0,0.0
1586175204757,4801501.0,5111311.0,0.0
1586175204799,4803421.0,5111975.0,0.0
1586175204849,4800462.0,5113339.0,0.0
1586175204899,4808962.0,5123241.0,0.0
1586175204950,4809361.0,5131329.0,0.0
1586175205001,4819876.0,5139093.0,0.0
1586175205047,4828038.0,5144973.0,0.0
1586175205091,4831770.0,5156213.0,0.0
1586175205140,4843023.0,5171631.0,0.0
1586175205196,4853634.0,5178333.0,0.0
1586175205237,4861784.0,5194450.0,0.0
1586175205290,4870261.0,5207768.0,0.0
1586175205340,4880813.0,5219974.0,0.0
1586175205384,4898186.0,5235803.0,0.0
1586175205440,4908715.0,5249954.0,0.0
1586175205484,4922914.0,5267436.0,0.0
1586175205536,4936194.0,5280186.0,0.0
1586175205577,4948497.0,5297475.0,0.0
1586175205634,4964545.0,5308439.0,0.0
1586175205680,4976472.0,5324268.0,0.0
1586175205731,4988183.0,5339589.0,0.0
1586175205779,4971376.0,5320801.0,0.0
1586175205827,4938621.0,5291656.0,0.0
1586175205877,4921973.0,5280887.0,0.0
1586175205918,4914594.0,5276177.0,0.0
1586175205976,4910116.0,5268523.0,0.0
1586175206019,4904513.0,5266095.0,0.0
1586175206071,4896967.0,5259782.0,0.0
1586175206120,4890109.0,5255688.0,0.0
1586175206165,4893828.0,5258489.0,0.0
1586175206217,4895145.0,5264950.0,0.0
1586175206258,4899406.0,5273281.0,0.0
1586175206308,4905118.0,5280596.0,0.0
1586175206360,4910043.0,5289482.0,0.0
1586175206408,4921174.0,5296909.0,0.0
1586175206461,4927140.0,5310069.0,0.0
1586175206509,4934879.0,5320766.0,0.0
1586175206551,4943077.0,5330364.0,0.0
1586175206599,4952469.0,5342437.0,0.0
1586175206656,4961162.0,5353304.0,0.0
1586175206699,4974095.0,5366176.0,0.0
1586175206754,4977028.0,5368818.0,0.0
1586175206801,4951601.0,5343887.0,0.0
1586175206853,4927973.0,5327249.0,0.0
1586175206898,4921055.0,5322938.0,0.0
1586175206939,4915332.0,5323266.0,0.0
1586175206994,4915935.0,5322830.0,0.0
1586175207039,4914800.0,5324025.0,0.0
1586175207088,4905589.0,5319148.0,0.0
1586175207146,4905129.0,5315646.0,0.0
1586175207192,4913954.0,5322240.0,0.0
1586175207241,4917445.0,5329060.0,0.0
1586175207289,4928781.0,5340917.0,0.0
1586175207330,4934625.0,5352133.0,0.0
1586175207379,4941808.0,5360416.0,0.0
1586175207430,4949885.0,5365282.0,0.0
1586175207482,4965558.0,5381304.0,0.0
1586175207533,4977377.0,5390166.0,0.0
1586175207582,4985322.0,5403676.0,0.0
1586175207632,4979334.0,5401586.0,0.0
1586175207679,4950200.0,5372513.0,0.0
1586175207719,4926427.0,5353823.0,0.0
1586175207777,4917033.0,5351784.0,0.0
1586175207821,4914232.0,5346024.0,0.0
1586175207873,4908752.0,5337851.0,0.0
1586175207919,4904465.0,5338103.0,0.0
1586175207972,4895639.0,5331306.0,0.0
1586175208019,4892886.0,5330063.0,0.0
1586175208062,4898562.0,5334892.0,0.0
1586175208118,4906229.0,5343440.0,0.0
1586175208161,4911576.0,5348258.0,0.0
1586175208209,4918217.0,5357928.0,0.0
1586175208257,4924652.0,5364315.0,0.0
1586175208306,4933527.0,5373902.0,0.0
1586175208355,4941012.0,5383996.0,0.0
1586175208403,4953268.0,5398497.0,0.0
1586175208452,4946312.0,5390503.0,0.0
1586175208505,4917336.0,5358811.0,0.0
1586175208549,4890786.0,5341834.0,0.0
1586175208604,4880583.0,5330388.0,0.0
1586175208653,4871046.0,5326936.0,0.0
1586175208698,4867846.0,5317881.0,0.0
1586175208750,4860782.0,5310902.0,0.0
1586175208798,4860264.0,5302666.0,0.0
1586175208840,4850846.0,5298260.0,0.0
1586175208896,4860613.0,5304684.0,0.0
1586175208943,4860166.0,5309743.0,0.0
1586175208994,4870779.0,5316263.0,0.0
1586175209045,4877975.0,5323192.0,0.0
1586175209086,4888250.0,5327973.0,0.0
1586175209139,4896520.0,5340361.0,0.0
1586175209182,4904766.0,5348946.0,0.0
1586175209237,4916273.0,5359607.0,0.0
1586175209284,4913351.0,5356613.0,0.0
1586175209335,4883143.0,5322528.0,0.0
1586175209383,4857135.0,5297149.0,0.0
1586175209429,4845268.0,5289313.0,0.0
1586175209473,4835946.0,5277771.0,0.0
1586175209522,4833060.0,5269308.0,0.0
1586175209577,4827604.0,5263429.0,0.0
1586175209624,4822920.0,5254397.0,0.0
1586175209669,4820831.0,5254699.0,0.0
1586175209724,4824695.0,5251210.0,0.0
1586175209769,4826142.0,5252996.0,0.0
1586175209818,4839315.0,5262377.0,0.0
1586175209862,4848164.0,5270261.0,0.0
1586175209918,4855204.0,5277650.0,0.0
1586175209964,4865611.0,5281696.0,0.0
1586175210017,4871081.0,5288927.0,0.0
1586175210064,4884241.0,5301833.0,0.0
1586175210113,4892429.0,5308439.0,0.0
1586175210163,4873170.0,5289506.0,0.0
1586175210207,4844639.0,5255543.0,0.0
1586175210259,4825925.0,5238786.0,0.0
1586175210304,4823426.0,5230926.0,0.0
1586175210357,4822183.0,5225686.0,0.0
1586175210399,4812741.0,5220772.0,0.0
1586175210449,4807200.0,5208940.0,0.0
1586175210503,4805920.0,5202770.0,0.0
1586175210546,4811038.0,5201152.0,0.0
1586175210600,4813056.0,5207684.0,0.0
1586175210643,4820638.0,5209821.0,0.0
1586175210697,4826808.0,5211582.0,0.0
1586175210747,4841198.0,5223113.0,0.0
1586175210794,4845014.0,5228125.0,0.0
1586175210843,4861181.0,5239825.0,0.0
1586175210889,4867362.0,5246392.0,0.0
1586175210941,4853104.0,5232663.0,0.0
1586175210983,4821180.0,5195018.0,0.0
1586175211038,4803058.0,5169857.0,0.0
1586175211084,4794630.0,5161526.0,0.0
1586175211136,4787761.0,5151071.0,0.0
1586175211186,4786349.0,5144684.0,0.0
1586175211229,4781097.0,5138599.0,0.0
1586175211276,4781531.0,5128673.0,0.0
1586175211325,4779394.0,5129242.0,0.0
1586175211380,4784030.0,5126862.0,0.0
1586175211425,4795016.0,5132923.0,0.0
1586175211477,4802781.0,5141846.0,0.0
1586175211526,4814589.0,5150720.0,0.0
1586175211576,4827036.0,5157577.0,0.0
1586175211623,4839061.0,5167177.0,0.0
1586175211665,4850967.0,5171994.0,0.0
1586175211713,4857365.0,5186458.0,0.0
1586175211766,4873424.0,5196756.0,0.0
1586175211816,4877589.0,5199038.0,0.0
1586175211867,4849965.0,5163567.0,0.0
1586175211914,4820506.0,5135084.0,0.0
1586175211964,4813780.0,5122540.0,0.0
1586175212007,4808599.0,5112157.0,0.0
1586175212061,4806814.0,5108594.0,0.0
1586175212107,4804325.0,5103064.0,0.0
1586175212154,4800535.0,5089024.0,0.0
1586175212208,4798470.0,5090449.0,0.0
1586175212252,4807706.0,5094892.0,0.0
1586175212304,4809361.0,5100337.0,0.0
1586175212346,4823063.0,5106891.0,0.0
1586175212395,4834473.0,5116359.0,0.0
1586175212446,4850579.0,5127332.0,0.0
1586175212499,4856641.0,5134867.0,0.0
1586175212542,4874125.0,5144526.0,0.0
1586175212591,4884085.0,5156890.0,0.0
1586175212645,4892066.0,5159328.0,0.0
1586175212691,4862134.0,5128155.0,0.0
1586175212743,4835972.0,5101351.0,0.0
1586175212787,4826650.0,5087019.0,0.0
1586175212838,4817811.0,5074644.0,0.0
1586175212891,4822616.0,5064356.0,0.0
1586175212930,4814251.0,5059829.0,0.0
1586175212986,4815772.0,5055205.0,0.0
1586175213028,4815735.0,5052381.0,0.0
1586175213083,4819345.0,5056618.0,0.0
1586175213128,4830127.0,5065975.0,0.0
1586175213174,4838664.0,5068680.0,0.0
1586175213232,4848516.0,5081647.0,0.0
1586175213278,4861687.0,5094977.0,0.0
1586175213327,4877383.0,5104646.0,0.0
1586175213368,4892379.0,5115164.0,0.0
1586175213424,4917916.0,5130400.0,0.0
1586175213471,4937836.0,5135375.0,0.0
1586175213778,4948497.0,5143777.0,0.0
1586175213778,4923782.0,5118205.0,0.0
1586175213778,4892294.0,5087490.0,0.0
1586175213778,4873580.0,5075115.0,0.0
1586175213778,4870187.0,5073219.0,0.0
1586175213778,4866408.0,5070479.0,0.0
1586175213822,4865648.0,5069294.0,0.0
1586175213885,4862001.0,5068932.0,0.0
1586175213912,4865104.0,5068426.0,0.0
1586175213954,4868219.0,5069598.0,0.0
1586175214009,4872458.0,5077482.0,0.0
1586175214050,4892233.0,5093406.0,0.0
1586175214107,4906094.0,5102461.0,0.0
1586175214148,4925570.0,5113278.0,0.0
1586175214204,4943234.0,5123651.0,0.0
1586175214251,4964762.0,5135060.0,0.0
1586175214295,4964712.0,5132296.0,0.0
1586175214350,4937788.0,5107074.0,0.0
1586175214392,4927635.0,5099346.0,0.0
1586175214448,4922213.0,5098912.0,0.0
1586175214489,4924567.0,5107954.0,0.0
1586175214544,4922007.0,5115669.0,0.0
1586175214594,4916768.0,5110840.0,0.0
1586175214643,4903753.0,5109803.0,0.0
1586175214689,4916043.0,5117481.0,0.0
1586175214734,4925824.0,5125378.0,0.0
1586175214788,4934818.0,5139273.0,0.0
1586175214830,4951842.0,5149778.0,0.0
1586175214887,4981302.0,5160222.0,0.0
1586175214931,5006897.0,5159050.0,0.0
1586175214977,5010243.0,5129035.0,0.0
1586175215029,5025974.0,5094035.0,0.0
1586175215072,5050218.0,5087841.0,0.0
1586175215125,5071722.0,5078157.0,0.0
1586175215173,5088455.0,5062606.0,0.0
1586175215228,5089217.0,5056750.0,0.0
1586175215270,5088963.0,5043807.0,0.0
1586175215325,5082528.0,5037010.0,0.0
1586175215371,5077987.0,5034836.0,0.0
1586175215419,5079860.0,5039642.0,0.0
1586175215469,5083253.0,5053322.0,0.0
1586175215518,5085800.0,5066374.0,0.0
1586175215563,5106674.0,5087514.0,0.0
1586175215615,5092610.0,5074123.0,0.0
1586175215659,5060929.0,5043336.0,0.0
1586175215709,5048443.0,5035500.0,0.0
1586175215763,5042299.0,5031975.0,0.0
1586175215809,5044206.0,5026228.0,0.0
1586175215859,5054576.0,5027883.0,0.0
1586175215907,5072542.0,5036092.0,0.0
1586175215953,5078011.0,5035246.0,0.0
1586175216008,5083700.0,5043180.0,0.0
1586175216049,5093284.0,5052270.0,0.0
1586175216104,5098973.0,5062460.0,0.0
1586175216146,5085678.0,5073303.0,0.0
1586175216195,5072809.0,5081428.0,0.0
1586175216252,5042432.0,5086910.0,0.0
1586175216294,4998736.0,5069259.0,0.0
1586175216348,4954185.0,5042408.0,0.0
1586175216391,4942279.0,5033183.0,0.0
1586175216444,4931160.0,5026698.0,0.0
1586175216495,4921851.0,5029946.0,0.0
1586175216542,4913690.0,5028438.0,0.0
1586175216584,4904309.0,5030213.0,0.0
1586175216638,4902690.0,5030501.0,0.0
1586175216681,4914136.0,5036793.0,0.0
1586175216730,4928201.0,5049469.0,0.0
1586175216787,4954172.0,5064393.0,0.0
1586175216836,4982460.0,5081248.0,0.0
1586175216884,5011716.0,5091232.0,0.0
1586175216926,5030998.0,5097886.0,0.0
1586175216979,5019092.0,5082068.0,0.0
1586175217029,4995006.0,5051741.0,0.0
1586175217072,4993870.0,5040427.0,0.0
1586175217128,5003940.0,5038869.0,0.0
1586175217175,5018550.0,5051908.0,0.0
1586175217226,5008746.0,5052585.0,0.0
1586175217275,4996141.0,5051270.0,0.0
1586175217322,4986591.0,5039800.0,0.0
1586175217369,4976702.0,5035428.0,0.0
1586175217421,4962575.0,5043603.0,0.0
1586175217470,4962564.0,5054613.0,0.0
1586175217512,4977160.0,5061423.0,0.0
1586175217561,5000740.0,5072132.0,0.0
1586175217617,5025831.0,5079847.0,0.0
1586175217660,5013924.0,5075850.0,0.0
1586175217713,4976544.0,5048250.0,0.0
1586175217762,4947436.0,5043627.0,0.0
1586175217804,4940010.0,5047792.0,0.0
1586175217856,4923832.0,5055229.0,0.0
1586175217910,4902859.0,5057874.0,0.0
1586175217956,4882249.0,5061616.0,0.0
1586175218006,4871443.0,5074234.0,0.0
1586175218052,4882514.0,5088939.0,0.0
1586175218103,4906396.0,5116756.0,0.0
1586175218147,4929674.0,5140106.0,0.0
1586175218197,4946204.0,5154729.0,0.0
1586175218249,4958459.0,5172816.0,0.0
1586175218293,4963601.0,5195259.0,0.0
1586175218347,4946180.0,5185867.0,0.0
1586175218398,4911709.0,5167984.0,0.0
1586175218445,4901362.0,5164435.0,0.0
1586175218493,4889445.0,5171004.0,0.0
1586175218540,4883204.0,5173842.0,0.0
1586175218588,4888467.0,5183982.0,0.0
1586175218634,4889723.0,5192387.0,0.0
1586175218681,4891691.0,5200464.0,0.0
1586175218737,4898549.0,5213878.0,0.0
1586175218785,4912893.0,5233026.0,0.0
1586175218832,4932597.0,5247757.0,0.0
1586175218875,4954172.0,5264889.0,0.0
1586175218929,4983137.0,5290461.0,0.0
1586175218974,5002539.0,5307665.0,0.0
1586175219029,5024334.0,5325088.0,0.0
1586175219075,5007368.0,5313486.0,0.0
1586175219126,4981532.0,5296002.0,0.0
1586175219169,4977245.0,5300011.0,0.0
1586175219223,4975989.0,5300362.0,0.0
1586175219268,4974976.0,5303174.0,0.0
1586175219318,4981386.0,5310587.0,0.0
1586175219371,4988763.0,5318823.0,0.0
1586175219412,4991698.0,5328880.0,0.0
1586175219467,5001079.0,5339118.0,0.0
1586175219516,5008807.0,5353968.0,0.0
1586175219558,5013393.0,5365232.0,0.0
1586175219611,5021652.0,5381280.0,0.0
1586175219660,5021665.0,5392303.0,0.0
1586175219709,5028727.0,5404641.0,0.0
1586175219758,5036261.0,5420097.0,0.0
1586175219808,5039800.0,5427002.0,0.0
1586175219858,5008479.0,5408796.0,0.0
1586175219903,4993232.0,5407841.0,0.0
1586175219953,4991902.0,5411549.0,0.0
1586175219995,4990526.0,5415302.0,0.0
1586175220045,4993653.0,5424878.0,0.0
1586175220096,5001404.0,5433111.0,0.0
1586175220142,5004591.0,5438123.0,0.0
1586175220201,5016122.0,5451947.0,0.0
1586175220240,5028885.0,5466689.0,0.0
1586175220294,5037179.0,5478497.0,0.0
1586175220340,5061833.0,5496523.0,0.0
1586175220388,5088807.0,5512183.0,0.0
1586175220435,5120488.0,5528205.0,0.0
1586175220491,5151288.0,5545832.0,0.0
1586175220535,5171570.0,5551108.0,0.0
1586175220580,5170967.0,5537948.0,0.0
1586175220630,5166355.0,5528808.0,0.0
1586175220678,5171377.0,5533251.0,0.0
1586175220728,5169145.0,5533986.0,0.0
1586175220778,5160682.0,5536837.0,0.0
1586175220826,5166368.0,5541159.0,0.0
1586175220876,5178320.0,5546363.0,0.0
1586175220921,5198592.0,5552798.0,0.0
1586175220977,5221135.0,5559740.0,0.0
1586175221019,5253768.0,5570872.0,0.0
1586175221075,5301423.0,5587631.0,0.0
1586175221118,5336630.0,5603291.0,0.0
1586175221168,5368107.0,5611862.0,0.0
1586175221217,5391650.0,5614856.0,0.0
1586175221269,5390552.0,5598255.0,0.0
1586175221318,5398968.0,5591133.0,0.0
1586175221362,5422366.0,5592109.0,0.0
1586175221409,5449448.0,5595745.0,0.0
1586175221456,5478883.0,5611439.0,0.0
1586175221507,5495267.0,5605475.0,0.0
1586175221559,5512001.0,5607215.0,0.0
1586175221610,5527805.0,5608276.0,0.0
1586175221659,5541317.0,5609871.0,0.0
1586175221708,5556831.0,5617030.0,0.0
1586175221755,5570510.0,5622462.0,0.0
1586175221796,5582355.0,5628355.0,0.0
1586175221853,5594719.0,5638762.0,0.0
1586175221895,5585386.0,5623877.0,0.0
1586175221950,5561311.0,5604208.0,0.0
1586175221999,5551676.0,5594441.0,0.0
1586175222045,5545107.0,5589660.0,0.0
1586175222097,5550058.0,5587859.0,0.0
1586175222138,5546255.0,5588137.0,0.0
1586175222195,5549056.0,5588391.0,0.0
1586175222237,5549743.0,5586399.0,0.0
1586175222286,5549767.0,5585867.0,0.0
1586175222341,5555117.0,5594368.0,0.0
1586175222389,5547437.0,5593450.0,0.0
1586175222437,5544623.0,5600199.0,0.0
1586175222479,5552737.0,5610389.0,0.0
1586175222535,5547172.0,5604076.0,0.0
1586175222578,5518340.0,5579734.0,0.0
1586175222629,5497415.0,5560719.0,0.0
1586175222679,5486056.0,5552340.0,0.0
1586175222728,5480899.0,5551362.0,0.0
1586175222778,5480779.0,5548669.0,0.0
1586175222821,5475176.0,5543901.0,0.0
1586175222875,5454724.0,5533613.0,0.0
1586175222917,5452513.0,5531320.0,0.0
1586175222971,5454602.0,5536234.0,0.0
1586175223018,5460857.0,5534036.0,0.0
1586175223071,5463174.0,5544094.0,0.0
1586175223120,5479378.0,5551314.0,0.0
1586175223167,5492744.0,5559076.0,0.0
1586175223216,5471819.0,5536065.0,0.0
1586175223257,5437192.0,5513667.0,0.0
1586175223315,5422908.0,5502657.0,0.0
1586175223359,5415847.0,5499227.0,0.0
1586175223405,5414482.0,5502247.0,0.0
1586175223459,5415688.0,5498140.0,0.0
1586175223502,5411150.0,5495183.0,0.0
1586175223557,5409870.0,5490076.0,0.0
1586175223596,5404932.0,5496257.0,0.0
1586175223654,5409470.0,5501800.0,0.0
1586175223700,5415749.0,5505687.0,0.0
1586175223750,5422004.0,5515068.0,0.0
1586175223799,5432797.0,5522577.0,0.0
1586175223848,5418949.0,5506182.0,0.0
1586175223894,5393655.0,5488640.0,0.0
1586175223938,5377839.0,5477217.0,0.0
1586175223995,5363592.0,5469103.0,0.0
1586175224042,5360091.0,5471589.0,0.0
1586175224090,5344141.0,5471071.0,0.0
1586175224132,5338756.0,5466736.0,0.0
1586175224186,5337717.0,5472097.0,0.0
1586175224229,5336740.0,5474210.0,0.0
1586175224281,5343464.0,5479450.0,0.0
1586175224330,5357893.0,5496970.0,0.0
1586175224379,5341303.0,5530220.0,0.0
1586175224428,5349985.0,5561528.0,0.0
1586175224480,5332768.0,5566526.0,0.0
1586175224531,5317336.0,5562300.0,0.0
1586175224571,5315406.0,5577367.0,0.0
1586175224620,5314390.0,5580724.0,0.0
1586175224675,5300336.0,5576862.0,0.0
1586175224719,5308331.0,5589514.0,0.0
1586175224774,5297609.0,5590662.0,0.0
1586175224817,5275912.0,5622343.0,0.0
1586175224873,5255061.0,5682989.0,0.0
1586175224919,5240573.0,5740713.0,0.0
1586175224961,5279848.0,5775025.0,0.0
1586175225010,5308439.0,5747197.0,0.0
1586175225058,5289326.0,5715818.0,0.0
1586175225114,5269380.0,5705337.0,0.0
1586175225161,5254760.0,5695980.0,0.0
1586175225208,5248203.0,5691767.0,0.0
1586175225251,5240005.0,5690246.0,0.0
1586175225303,5238653.0,5691598.0,0.0
1586175225351,5230370.0,5683544.0,0.0
1586175225400,5231227.0,5668404.0,0.0
1586175225454,5228800.0,5647952.0,0.0
1586175225502,5206055.0,5614108.0,0.0
1586175225552,5164580.0,5593981.0,0.0
1586175225600,5157614.0,5604087.0,0.0
1586175225643,5157482.0,5608144.0,0.0
1586175225699,5120802.0,5597604.0,0.0
1586175225742,5084133.0,5583501.0,0.0
1586175225790,5055409.0,5574302.0,0.0
1586175225848,5037941.0,5561721.0,0.0
1586175225896,5021991.0,5552134.0,0.0
1586175225941,5023982.0,5543996.0,0.0
1586175225988,5028414.0,5532127.0,0.0
1586175226039,5037819.0,5526248.0,0.0
1586175226080,5045039.0,5518388.0,0.0
1586175226130,5057716.0,5522323.0,0.0
1586175226186,5072023.0,5529085.0,0.0
1586175226228,5092573.0,5543489.0,0.0
1586175226282,5098875.0,5527890.0,0.0
1586175226330,5077601.0,5506182.0,0.0
1586175226380,5059879.0,5489253.0,0.0
1586175226421,5053285.0,5484847.0,0.0
1586175226478,5053201.0,5480103.0,0.0
1586175226523,5049964.0,5474308.0,0.0
1586175226569,5048165.0,5481563.0,0.0
1586175226620,5050339.0,5477809.0,0.0
1586175226667,5059757.0,5475755.0,0.0
1586175226721,5071516.0,5480526.0,0.0
1586175226761,5102474.0,5487986.0,0.0
1586175226818,5142209.0,5516517.0,0.0
1586175226861,5169978.0,5529701.0,0.0
1586175226916,5176450.0,5525234.0,0.0
1586175226964,5152290.0,5496994.0,0.0
1586175227011,5139178.0,5477336.0,0.0
1586175227061,5144949.0,5478629.0,0.0
1586175227111,5146554.0,5473147.0,0.0
1586175227152,5147025.0,5473956.0,0.0
1586175227203,5145311.0,5472930.0,0.0
1586175227257,5142510.0,5470142.0,0.0
1586175227305,5140493.0,5468754.0,0.0
1586175227352,5143777.0,5472436.0,0.0
1586175227403,5145602.0,5474657.0,0.0
1586175227448,5164133.0,5482010.0,0.0
1586175227493,5175918.0,5489243.0,0.0
1586175227542,5183054.0,5487492.0,0.0
1586175227597,5165027.0,5463634.0,0.0
1586175227641,5146530.0,5449628.0,0.0
1586175227693,5143801.0,5439765.0,0.0
1586175227743,5142981.0,5435261.0,0.0
1586175227784,5146856.0,5438340.0,0.0
1586175227839,5152253.0,5436129.0,0.0
1586175227883,5157035.0,5432363.0,0.0
1586175227937,5154766.0,5435936.0,0.0
1586175227985,5165800.0,5438641.0,0.0
1586175228035,5180941.0,5439885.0,0.0
1586175228084,5193003.0,5450051.0,0.0
1586175228127,5206851.0,5454639.0,0.0
1586175228179,5219408.0,5464792.0,0.0
1586175228222,5228329.0,5465155.0,0.0
1586175228279,5210255.0,5440017.0,0.0
1586175228326,5190491.0,5425746.0,0.0
1586175228376,5192881.0,5427074.0,0.0
1586175228425,5197385.0,5423477.0,0.0
1586175228472,5205727.0,5427666.0,0.0
1586175228521,5210715.0,5425928.0,0.0
1586175228564,5209519.0,5426267.0,0.0
1586175228619,5208602.0,5427510.0,0.0
1586175228665,5217644.0,5431131.0,0.0
1586175228716,5221159.0,5435418.0,0.0
1586175228766,5222439.0,5442119.0,0.0
1586175228813,5232748.0,5449519.0,0.0
1586175228864,5249579.0,5462619.0,0.0
1586175228905,5264008.0,5467400.0,0.0
1586175228959,5255194.0,5451741.0,0.0
1586175229006,5240825.0,5444642.0,0.0
1586175229059,5239402.0,5441865.0,0.0
1586175229107,5233605.0,5452888.0,0.0
1586175229149,5234475.0,5458950.0,0.0
1586175229197,5227871.0,5455448.0,0.0
1586175229250,5213552.0,5457379.0,0.0
1586175229301,5210461.0,5465396.0,0.0
1586175229344,5201165.0,5471301.0,0.0
1586175229398,5202408.0,5485088.0,0.0
1586175229447,5209760.0,5494337.0,0.0
1586175229494,5226578.0,5503730.0,0.0
1586175229544,5232470.0,5501654.0,0.0
1586175229593,5220132.0,5484570.0,0.0
1586175229641,5226567.0,5477204.0,0.0
1586175229686,5239714.0,5480224.0,0.0
1586175229737,5287781.0,5492358.0,0.0
1586175229789,5334482.0,5508245.0,0.0
1586175229834,5379371.0,5516613.0,0.0
1586175229885,5435489.0,5549296.0,0.0
1586175229926,5484654.0,5583466.0,0.0
1586175229983,5502270.0,5601117.0,0.0
1586175230026,5512823.0,5618805.0,0.0
1586175230080,5510551.0,5635733.0,0.0
1586175230127,5510890.0,5647830.0,0.0
1586175230176,5491813.0,5633705.0,0.0
1586175230227,5478907.0,5632956.0,0.0
1586175230268,5481443.0,5645270.0,0.0
1586175230324,5497452.0,5658322.0,0.0
1586175230366,5519752.0,5640647.0,0.0
1586175230420,5538093.0,5630383.0,0.0
1586175230464,5509189.0,5606803.0,0.0
1586175230516,5475429.0,5596988.0,0.0
1586175230567,5465202.0,5597856.0,0.0
1586175230609,5463779.0,5599911.0,0.0
1586175230664,5476686.0,5611741.0,0.0
1586175230706,5483073.0,5606213.0,0.0
1586175230761,5449701.0,5579250.0,0.0
1586175230808,5412779.0,5554488.0,0.0
1586175230857,5368916.0,5548392.0,0.0
1586175230908,5335207.0,5526864.0,0.0
1586175230949,5319196.0,5525258.0,0.0
1586175231005,5299503.0,5518774.0,0.0
1586175231047,5283132.0,5515272.0,0.0
1586175231101,5264429.0,5510697.0,0.0
1586175231148,5261652.0,5510781.0,0.0
1586175231191,5260277.0,5509827.0,0.0
1586175231244,5265431.0,5509853.0,0.0
1586175231293,5269428.0,5509321.0,0.0
1586175231345,5236998.0,5480814.0,0.0
1586175231388,5188692.0,5444690.0,0.0
1586175231441,5161140.0,5422958.0,0.0
1586175231488,5144441.0,5413141.0,0.0
1586175231534,5131789.0,5400827.0,0.0
1586175231587,5129385.0,5392145.0,0.0
1586175231630,5114053.0,5386326.0,0.0
1586175231679,5106664.0,5379757.0,0.0
1586175231729,5098272.0,5373505.0,0.0
1586175231783,5099298.0,5373238.0,0.0
1586175231831,5100904.0,5380000.0,0.0
1586175231878,5103644.0,5384539.0,0.0
1586175231930,5087527.0,5371862.0,0.0
1586175231971,5050665.0,5337330.0,0.0
1586175232026,5024961.0,5320113.0,0.0
1586175232070,5012295.0,5310214.0,0.0
1586175232124,5008190.0,5305639.0,0.0
1586175232171,5003710.0,5305348.0,0.0
1586175232213,5000330.0,5307715.0,0.0
1586175232269,4992843.0,5299252.0,0.0
1586175232312,4992433.0,5304502.0,0.0
1586175232368,4999063.0,5308765.0,0.0
1586175232409,5003396.0,5316480.0,0.0
1586175232465,5011028.0,5326852.0,0.0
1586175232510,5013382.0,5332139.0,0.0
1586175232562,4980553.0,5305046.0,0.0
1586175232612,4950332.0,5286295.0,0.0
1586175232658,4941229.0,5279123.0,0.0
1586175232709,4934998.0,5278303.0,0.0
1586175232750,4936448.0,5282492.0,0.0
1586175232802,4938754.0,5282130.0,0.0
1586175232850,4935543.0,5282360.0,0.0
1586175232904,4937027.0,5286235.0,0.0
1586175232952,4944887.0,5292695.0,0.0
1586175232994,4957298.0,5303983.0,0.0
1586175233049,4967031.0,5319801.0,0.0
1586175233091,4968033.0,5326706.0,0.0
1586175233141,4942496.0,5306591.0,0.0
1586175233193,4918193.0,5294518.0,0.0
1586175233244,4907411.0,5295472.0,0.0
1586175233292,4906832.0,5296028.0,0.0
1586175233338,4913713.0,5299009.0,0.0
1586175233388,4911323.0,5307207.0,0.0
1586175233433,4910175.0,5308402.0,0.0
1586175233488,4916816.0,5321224.0,0.0
1586175233532,4921743.0,5329520.0,0.0
1586175233578,4934686.0,5345915.0,0.0
1586175233630,4944839.0,5361141.0,0.0
1586175233676,4951263.0,5368480.0,0.0
1586175233722,4929325.0,5360778.0,0.0
1586175233777,4908485.0,5345674.0,0.0
1586175233829,4897824.0,5342318.0,0.0
1586175233872,4897342.0,5343175.0,0.0
1586175233926,4901373.0,5353064.0,0.0
1586175233971,4904983.0,5361841.0,0.0
1586175234023,4906964.0,5367768.0,0.0
1586175234068,4916683.0,5372032.0,0.0
1586175234113,4920717.0,5385589.0,0.0
1586175234169,4930907.0,5396577.0,0.0
1586175234211,4945527.0,5409060.0,0.0
1586175234267,4959316.0,5425963.0,0.0
1586175234308,4939986.0,5410245.0,0.0
1586175234363,4923530.0,5406247.0,0.0
1586175234413,4920643.0,5407333.0,0.0
1586175234461,4923433.0,5412623.0,0.0
1586175234507,4927188.0,5419155.0,0.0
1586175234553,4939695.0,5425770.0,0.0
1586175234609,4943305.0,5432773.0,0.0
1586175234650,4949211.0,5440887.0,0.0
1586175234705,4961152.0,5454748.0,0.0
1586175234755,4978707.0,5465493.0,0.0
1586175234802,4990672.0,5479280.0,0.0
1586175234848,5003348.0,5491729.0,0.0
1586175234893,4993605.0,5482094.0,0.0
1586175234948,4982172.0,5481732.0,0.0
1586175234990,4976340.0,5489110.0,0.0
1586175235233,4984743.0,5497489.0,0.0
1586175235233,4997794.0,5508597.0,0.0
1586175235233,5013345.0,5510601.0,0.0
1586175235233,5020758.0,5515611.0,0.0
1586175235379,5044230.0,5528591.0,0.0
1586175235383,5057572.0,5535956.0,0.0
1586175235411,5072071.0,5549344.0,0.0
1586175235432,5088143.0,5561285.0,0.0
1586175235485,5096014.0,5565064.0,0.0
1586175235529,5081840.0,5549659.0,0.0
1586175235574,5074427.0,5545554.0,0.0
1586175235628,5074293.0,5553922.0,0.0
1586175235671,5080005.0,5557966.0,0.0
1586175235728,5090930.0,5567082.0,0.0
1586175235772,5096196.0,5574749.0,0.0
1586175235823,5098344.0,5572152.0,0.0
1586175235872,5106579.0,5580882.0,0.0
1586175235921,5114608.0,5589091.0,0.0
1586175235968,5127719.0,5599498.0,0.0
1586175236017,5141291.0,5612912.0,0.0
1586175236068,5154874.0,5621992.0,0.0
1586175236112,5149826.0,5614832.0,0.0
1586175236158,5135097.0,5604232.0,0.0
1586175236476,5127779.0,5600815.0,0.0
1586175236476,5132103.0,5606525.0,0.0
1586175236476,5145710.0,5613843.0,0.0
1586175236477,5149246.0,5618588.0,0.0
1586175236486,5149971.0,5622488.0,0.0
1586175236486,5156093.0,5625506.0,0.0
1586175236539,5166717.0,5631978.0,0.0
1586175236611,5174347.0,5640875.0,0.0
1586175236613,5186772.0,5646997.0,0.0
1586175236653,5194849.0,5657103.0,0.0
1586175236700,5207309.0,5665735.0,0.0
1586175236751,5189694.0,5650438.0,0.0
1586175236796,5179951.0,5642663.0,0.0
1586175236848,5180301.0,5648481.0,0.0
1586175236894,5184453.0,5656753.0,0.0
1586175237122,5193606.0,5664661.0,0.0
1586175237122,5200525.0,5664323.0,0.0
1586175237122,5205825.0,5667221.0,0.0
1586175237122,5210823.0,5667946.0,0.0
1586175237146,5222994.0,5678763.0,0.0
1586175237270,5244194.0,5688628.0,0.0
1586175237270,5257174.0,5699156.0,0.0
1586175237293,5272845.0,5712002.0,0.0
1586175237335,5285330.0,5719740.0,0.0
1586175237382,5275175.0,5707511.0,0.0
1586175237429,5256521.0,5689424.0,0.0
1586175237473,5256402.0,5685404.0,0.0
1586175237528,5260795.0,5689025.0,0.0
1586175237574,5268764.0,5692418.0,0.0
1586175237627,5271482.0,5695049.0,0.0
1586175237666,5276891.0,5694422.0,0.0
1586175237722,5278811.0,5698104.0,0.0
1586175237771,5284230.0,5701764.0,0.0
1586175237817,5293587.0,5709357.0,0.0
1586175237869,5301291.0,5718582.0,0.0
1586175237915,5310552.0,5725440.0,0.0
1586175237966,5322300.0,5729266.0,0.0
1586175238016,5330050.0,5739927.0,0.0
1586175238063,5318606.0,5724075.0,0.0
1586175238110,5299831.0,5707365.0,0.0
1586175238155,5289363.0,5702428.0,0.0
1586175238215,5292865.0,5709177.0,0.0
1586175238255,5298731.0,5712629.0,0.0
1586175238308,5299275.0,5721660.0,0.0
1586175238355,5297911.0,5715902.0,0.0
1586175238404,5299215.0,5716699.0,0.0
1586175238450,5300844.0,5723400.0,0.0
1586175238496,5306749.0,5731705.0,0.0
1586175238545,5319413.0,5745169.0,0.0
1586175238597,5331705.0,5753873.0,0.0
1586175238648,5339999.0,5768495.0,0.0
1586175238697,5354138.0,5776826.0,0.0
1586175238746,5364703.0,5787016.0,0.0
1586175238796,5351699.0,5772914.0,0.0
1586175238836,5335024.0,5750892.0,0.0
1586175238892,5325945.0,5741763.0,0.0
1586175238937,5328746.0,5739229.0,0.0
1586175238990,5336558.0,5741038.0,0.0
1586175239036,5340530.0,5741570.0,0.0
1586175239080,5336545.0,5737573.0,0.0
1586175239135,5330655.0,5740617.0,0.0
1586175239183,5335230.0,5746774.0,0.0
1586175239232,5344056.0,5756010.0,0.0
1586175239274,5342982.0,5760646.0,0.0
1586175239331,5350443.0,5771198.0,0.0
1586175239378,5361418.0,5778865.0,0.0
1586175239421,5368059.0,5787995.0,0.0
1586175239477,5380675.0,5798907.0,0.0
1586175239519,5390648.0,5808579.0,0.0
1586175239573,5372743.0,5787112.0,0.0
1586175239614,5356698.0,5765610.0,0.0
1586175239669,5352001.0,5759633.0,0.0
1586175239715,5355875.0,5751109.0,0.0
1586175239768,5356021.0,5753378.0,0.0
1586175239817,5360006.0,5754042.0,0.0
1586175239860,5356129.0,5749345.0,0.0
1586175239914,5354235.0,5746677.0,0.0
1586175239955,5360041.0,5752907.0,0.0
1586175240004,5362312.0,5760334.0,0.0
1586175240057,5358568.0,5764425.0,0.0
1586175240101,5367805.0,5764256.0,0.0
1586175240152,5372478.0,5769749.0,0.0
1586175240200,5377718.0,5779217.0,0.0
1586175240253,5381230.0,5793197.0,0.0
1586175240298,5384745.0,5800719.0,0.0
1586175240354,5359485.0,5779807.0,0.0
1586175240425,5331729.0,5763581.0,0.0
1586175240444,5325826.0,5762505.0,0.0
1586175240497,5332501.0,5758763.0,0.0
1586175240548,5333794.0,5765573.0,0.0
1586175240589,5335640.0,5762228.0,0.0
1586175240645,5328021.0,5752484.0,0.0
1586175240689,5328071.0,5752291.0,0.0
1586175240736,5326887.0,5757652.0,0.0
1586175240785,5335569.0,5765258.0,0.0
1586175240840,5337730.0,5770341.0,0.0
1586175240889,5348306.0,5777030.0,0.0
1586175240938,5354947.0,5777477.0,0.0
1586175240982,5359932.0,5782608.0,0.0
1586175241036,5358290.0,5786799.0,0.0
1586175241076,5358327.0,5789780.0,0.0
1586175241134,5336027.0,5762555.0,0.0
1586175241178,5313726.0,5738081.0,0.0
1586175241223,5309223.0,5731176.0,0.0
1586175241279,5305361.0,5726902.0,0.0
1586175241320,5305806.0,5721383.0,0.0
1586175241376,5305626.0,5719354.0,0.0
1586175241416,5296316.0,5721287.0,0.0
1586175241470,5287684.0,5719246.0,0.0
1586175241518,5293769.0,5729859.0,0.0
1586175241568,5302100.0,5736621.0,0.0
1586175241619,5311722.0,5744201.0,0.0
1586175241662,5317228.0,5747740.0,0.0
1586175241711,5325403.0,5752799.0,0.0
1586175241756,5333879.0,5754561.0,0.0
1586175241815,5343765.0,5758208.0,0.0
1586175241859,5349393.0,5759670.0,0.0
1586175241910,5329000.0,5724376.0,0.0
1586175241959,5304647.0,5692407.0,0.0
1586175242002,5297898.0,5671410.0,0.0
1586175242050,5287152.0,5675841.0,0.0
1586175242098,5286367.0,5680804.0,0.0
1586175242149,5288541.0,5680948.0,0.0
1586175242198,5287792.0,5680490.0,0.0
1586175242251,5285354.0,5678099.0,0.0
1586175242300,5284642.0,5682772.0,0.0
1586175242349,5283590.0,5683521.0,0.0
1586175242398,5288033.0,5692357.0,0.0
1586175242440,5295314.0,5694168.0,0.0
1586175242494,5299154.0,5697538.0,0.0
1586175242538,5298538.0,5705361.0,0.0
1586175242587,5310106.0,5709381.0,0.0
1586175242639,5316903.0,5713125.0,0.0
1586175242687,5307146.0,5685113.0,0.0
1586175242739,5284920.0,5648735.0,0.0
1586175242779,5267171.0,5621618.0,0.0
1586175242837,5268788.0,5609580.0,0.0
1586175242879,5275042.0,5603243.0,0.0
1586175242935,5275272.0,5593196.0,0.0
1586175242981,5270842.0,5579554.0,0.0
1586175243030,5261170.0,5569013.0,0.0
1586175243078,5257547.0,5573009.0,0.0
1586175243122,5255725.0,5576439.0,0.0
1586175243177,5257899.0,5583151.0,0.0
1586175243221,5264744.0,5583889.0,0.0
1586175243268,5271154.0,5585637.0,0.0
1586175243320,5278459.0,5589477.0,0.0
1586175243372,5284870.0,5593582.0,0.0
1586175243420,5290315.0,5591241.0,0.0
1586175243469,5275864.0,5573686.0,0.0
1586175243517,5252271.0,5527094.0,0.0
1586175243564,5233750.0,5502958.0,0.0
1586175243616,5233943.0,5496196.0,0.0
1586175243661,5228776.0,5490933.0,0.0
1586175243707,5227569.0,5489097.0,0.0
1586175243754,5220772.0,5473570.0,0.0
1586175243806,5213804.0,5466435.0,0.0
1586175243860,5214711.0,5458648.0,0.0
1586175243900,5215496.0,5455327.0,0.0
1586175243957,5216449.0,5458816.0,0.0
1586175244001,5221749.0,5457657.0,0.0
1586175244054,5218599.0,5462245.0,0.0
1586175244101,5230696.0,5466519.0,0.0
1586175244145,5234451.0,5472642.0,0.0
1586175244199,5242383.0,5479812.0,0.0
1586175244240,5239269.0,5472229.0,0.0
1586175244296,5217078.0,5439245.0,0.0
1586175244343,5191866.0,5404823.0,0.0
1586175244394,5179227.0,5392724.0,0.0
1586175244442,5178248.0,5389140.0,0.0
1586175244491,5176474.0,5392459.0,0.0
1586175244538,5175096.0,5391928.0,0.0
1586175244580,5168010.0,5384298.0,0.0
1586175244638,5156117.0,5387498.0,0.0
1586175244681,5157675.0,5395924.0,0.0
1586175244736,5163168.0,5409121.0,0.0
1586175244779,5174397.0,5422631.0,0.0
1586175244830,5173684.0,5433764.0,0.0
1586175244880,5181761.0,5447697.0,0.0
1586175244922,5188679.0,5461256.0,0.0
1586175244975,5196359.0,5473787.0,0.0
1586175245020,5205872.0,5488481.0,0.0
1586175245066,5216110.0,5490510.0,0.0
1586175245124,5196672.0,5461786.0,0.0
1586175245167,5171343.0,5431916.0,0.0
1586175245224,5160320.0,5417296.0,0.0
1586175245265,5155406.0,5420760.0,0.0
1586175245319,5156128.0,5426193.0,0.0
1586175245361,5161465.0,5430781.0,0.0
1586175245409,5162866.0,5422715.0,0.0
1586175245459,5161320.0,5420591.0,0.0
1586175245513,5161623.0,5422583.0,0.0
1586175245562,5164593.0,5426338.0,0.0
1586175245608,5171933.0,5433643.0,0.0
1586175245660,5172610.0,5439210.0,0.0
1586175245702,5178814.0,5446755.0,0.0
1586175245757,5188896.0,5454470.0,0.0
1586175245806,5199848.0,5465144.0,0.0
1586175245854,5209302.0,5467316.0,0.0
1586175245903,5214010.0,5479076.0,0.0
1586175245944,5202251.0,5468392.0,0.0
1586175245993,5169904.0,5443121.0,0.0
1586175246042,5158905.0,5434198.0,0.0
1586175246097,5154970.0,5433088.0,0.0
1586175246143,5160838.0,5428269.0,0.0
1586175246197,5158894.0,5431350.0,0.0
1586175246246,5159063.0,5420422.0,0.0
1586175246290,5149175.0,5413046.0,0.0
1586175246341,5148945.0,5411573.0,0.0
1586175246387,5156503.0,5411367.0,0.0
1586175246438,5157215.0,5417801.0,0.0
1586175246483,5160246.0,5421218.0,0.0
1586175246536,5168902.0,5430347.0,0.0
1586175246579,5168095.0,5433751.0,0.0
1586175246632,5181737.0,5444727.0,0.0
1586175246677,5186796.0,5448784.0,0.0
1586175246723,5169568.0,5436118.0,0.0
1586175246779,5140675.0,5398593.0,0.0
1586175246824,5126222.0,5384406.0,0.0
1586175246870,5115645.0,5375205.0,0.0
1586175246925,5110961.0,5374589.0,0.0
1586175246973,5109417.0,5369048.0,0.0
1586175247021,5104781.0,5367081.0,0.0
1586175247065,5096183.0,5359620.0,0.0
1586175247113,5092163.0,5356504.0,0.0
1586175247165,5094903.0,5356674.0,0.0
1586175247217,5099261.0,5362384.0,0.0
1586175247266,5102075.0,5370172.0,0.0
1586175247313,5108028.0,5376390.0,0.0
1586175247362,5115029.0,5379432.0,0.0
1586175247411,5123349.0,5388222.0,0.0
1586175247453,5133938.0,5400489.0,0.0
1586175247504,5134396.0,5396781.0,0.0
1586175247556,5099081.0,5357457.0,0.0
1586175247604,5071928.0,5330208.0,0.0
1586175247652,5065660.0,5319378.0,0.0
1586175247704,5054711.0,5316601.0,0.0
1586175247745,5055036.0,5310153.0,0.0
1586175247800,5050159.0,5309079.0,0.0
1586175247844,5044217.0,5295520.0,0.0
1586175247898,5035222.0,5293394.0,0.0
1586175247947,5039232.0,5288421.0,0.0
1586175247994,5039522.0,5294819.0,0.0
1586175248044,5041802.0,5299032.0,0.0
1586175248090,5052706.0,5308921.0,0.0
1586175248142,5059842.0,5318170.0,0.0
1586175248185,5066626.0,5319957.0,0.0
1586175248232,5078567.0,5329592.0,0.0
1586175248285,5088069.0,5340483.0,0.0
1586175248335,5090507.0,5340930.0,0.0
1586175248380,5060976.0,5309669.0,0.0
1586175248426,5034849.0,5279088.0,0.0
1586175248481,5022184.0,5267677.0,0.0
1586175248526,5020264.0,5263778.0,0.0
1586175248578,5024490.0,5257500.0,0.0
1586175248630,5017040.0,5254313.0,0.0
1586175248671,5012705.0,5243073.0,0.0
1586175248726,5008672.0,5239040.0,0.0
1586175248770,5008069.0,5237180.0,0.0
1586175248824,5010727.0,5239463.0,0.0
1586175248865,5016304.0,5241272.0,0.0
1586175248914,5013477.0,5249434.0,0.0
1586175248966,5025577.0,5254300.0,0.0
1586175249019,5031239.0,5262776.0,0.0
1586175249070,5044907.0,5272048.0,0.0
1586175249110,5026505.0,5255773.0,0.0
1586175249164,4991600.0,5217440.0,0.0
1586175249444,4971535.0,5198049.0,0.0
1586175249445,4965788.0,5190551.0,0.0
1586175249446,4960715.0,5188197.0,0.0
1586175249450,4960366.0,5185008.0,0.0
1586175249451,4951335.0,5178973.0,0.0
1586175249511,4949065.0,5174276.0,0.0
1586175249511,4944104.0,5171536.0,0.0
1586175249599,4946698.0,5175241.0,0.0
1586175249600,4958821.0,5181448.0,0.0
1586175249651,4958798.0,5189163.0,0.0
1586175249693,4962950.0,5195283.0,0.0
1586175249748,4973587.0,5202408.0,0.0
1586175249789,4984018.0,5214663.0,0.0
1586175249846,4995477.0,5221206.0,0.0
1586175249889,4971474.0,5196468.0,0.0
1586175249943,4931063.0,5152193.0,0.0
1586175249991,4907279.0,5128274.0,0.0
1586175250037,4894600.0,5114958.0,0.0
1586175250090,4890255.0,5106531.0,0.0
1586175250130,4884736.0,5103620.0,0.0
1586175250186,4879655.0,5110684.0,0.0
1586175250230,4866735.0,5112749.0,0.0
1586175250284,4855445.0,5117904.0,0.0
1586175250331,4854649.0,5127732.0,0.0
1586175250378,4856664.0,5137969.0,0.0
1586175250427,4867701.0,5154946.0,0.0
1586175250479,4874849.0,5167659.0,0.0
1586175250527,4884532.0,5183681.0,0.0
1586175250569,4899866.0,5200101.0,0.0
1586175250622,4901712.0,5209035.0,0.0
1586175250671,4879581.0,5189840.0,0.0
1586175250720,4846149.0,5151928.0,0.0
1586175250771,4823693.0,5135978.0,0.0
1586175250816,4820553.0,5134203.0,0.0
1586175250869,4816653.0,5131450.0,0.0
1586175250910,4815010.0,5129350.0,0.0
1586175250959,4809252.0,5115248.0,0.0
1586175251010,4806764.0,5111361.0,0.0
1586175251062,4812222.0,5104961.0,0.0
1586175251110,4814058.0,5108608.0,0.0
1586175251155,4820866.0,5104839.0,0.0
1586175251210,4830405.0,5107653.0,0.0
1586175251252,4839376.0,5116600.0,0.0
1586175251306,4848889.0,5123421.0,0.0
1586175251350,4860131.0,5135798.0,0.0
1586175251397,4851679.0,5116888.0,0.0
1586175251452,4800112.0,5067580.0,0.0
1586175251498,4777908.0,5040705.0,0.0
1586175251546,4770701.0,5028148.0,0.0
1586175251592,4759061.0,5023366.0,0.0
1586175251648,4755885.0,5018537.0,0.0
1586175251693,4751661.0,5011184.0,0.0
1586175251744,4746179.0,5004652.0,0.0
1586175251793,4748448.0,5003480.0,0.0
1586175251840,4751757.0,5007865.0,0.0
1586175251887,4762430.0,5014781.0,0.0
1586175251935,4766051.0,5024091.0,0.0
1586175251988,4777957.0,5033955.0,0.0
1586175252029,4788473.0,5040898.0,0.0
1586175252078,4803323.0,5056412.0,0.0
1586175252134,4815978.0,5068329.0,0.0
1586175252182,4798314.0,5046258.0,0.0
1586175252225,4753700.0,5000306.0,0.0
1586175252278,4730906.0,4981870.0,0.0
1586175252329,4718615.0,4979744.0,0.0
1586175252372,4707748.0,4982436.0,0.0
1586175252427,4707230.0,4989101.0,0.0
1586175252468,4707518.0,4993980.0,0.0
1586175252523,4702459.0,4999315.0,0.0
1586175252572,4708859.0,5006754.0,0.0
1586175252621,4721972.0,5013382.0,0.0
1586175252668,4734058.0,5021496.0,0.0
1586175252717,4745237.0,5034450.0,0.0
1586175252767,4755885.0,5050834.0,0.0
1586175252809,4768188.0,5067797.0,0.0
1586175252864,4783197.0,5085257.0,0.0
1586175252912,4796780.0,5100700.0,0.0
1586175252962,4809856.0,5118737.0,0.0
1586175253008,4814082.0,5120138.0,0.0
1586175253058,4777823.0,5083517.0,0.0
1586175253109,4752891.0,5060844.0,0.0
1586175253149,4746385.0,5056388.0,0.0
1586175253205,4747676.0,5055772.0,0.0
1586175253256,4749210.0,5056774.0,0.0
1586175253303,4746988.0,5050509.0,0.0
1586175253348,4744126.0,5040995.0,0.0
1586175253399,4740781.0,5034294.0,0.0
1586175253451,4754642.0,5046801.0,0.0
1586175253492,4766027.0,5052839.0,0.0
1586175253546,4779936.0,5064925.0,0.0
1586175253596,4794027.0,5073243.0,0.0
1586175253644,4809832.0,5086138.0,0.0
1586175253690,4819453.0,5099044.0,0.0
1586175253734,4836043.0,5114487.0,0.0
1586175253787,4847019.0,5128697.0,0.0
1586175253836,4815169.0,5100034.0,0.0
1586175253887,4781808.0,5076202.0,0.0
1586175254142,4772909.0,5063669.0,0.0
1586175254142,4766559.0,5058284.0,0.0
1586175254142,4763179.0,5064116.0,0.0
1586175254142,4763988.0,5074293.0,0.0
1586175254142,4756067.0,5080753.0,0.0
1586175254282,4756067.0,5092924.0,0.0
1586175254282,4766342.0,5107243.0,0.0
1586175254282,4776955.0,5123627.0,0.0
1586175254342,4792615.0,5147858.0,0.0
1586175254372,4810072.0,5162637.0,0.0
1586175254422,4827326.0,5173213.0,0.0
1586175254467,4839968.0,5189610.0,0.0
1586175254518,4858187.0,5206343.0,0.0
1586175254570,4870851.0,5221315.0,0.0
1586175254613,4877034.0,5235429.0,0.0
1586175254666,4840860.0,5205256.0,0.0
1586175254712,4813719.0,5180277.0,0.0
1586175254764,4802937.0,5176148.0,0.0
1586175254813,4794376.0,5168650.0,0.0
1586175254859,4790369.0,5169579.0,0.0
1586175254907,4785418.0,5172755.0,0.0
1586175254952,4785442.0,5178719.0,0.0
1586175255009,4782038.0,5178695.0,0.0
1586175255053,4788401.0,5188341.0,0.0
1586175255105,4797817.0,5201334.0,0.0
1586175255147,4807356.0,5210062.0,0.0
1586175255203,4819961.0,5231819.0,0.0
1586175255249,4839860.0,5260433.0,0.0
1586175255560,4862895.0,5282045.0,0.0
1586175255560,4889988.0,5298720.0,0.0
1586175255560,4916720.0,5315972.0,0.0
1586175255560,4943826.0,5321769.0,0.0
1586175255564,4921476.0,5295858.0,0.0
1586175255564,4901820.0,5274680.0,0.0
1586175255651,4894698.0,5268306.0,0.0
1586175255651,4888877.0,5262739.0,0.0
1586175255743,4886571.0,5263947.0,0.0
1586175255788,4882418.0,5265624.0,0.0
1586175255834,4886282.0,5268571.0,0.0
1586175255882,4886729.0,5275441.0,0.0
1586175255931,4897123.0,5288892.0,0.0
1586175255980,4910418.0,5298321.0,0.0
1586175256027,4922697.0,5314935.0,0.0
1586175256073,4934347.0,5329470.0,0.0
1586175256129,4955392.0,5344273.0,0.0
1586175256176,4973515.0,5354428.0,0.0
1586175256226,4999037.0,5365015.0,0.0
1586175256272,5025648.0,5370315.0,0.0
1586175256506,5029221.0,5363458.0,0.0
1586175256506,4992700.0,5330811.0,0.0
1586175256506,4961236.0,5312483.0,0.0
1586175256506,4949499.0,5319063.0,0.0
1586175256530,4947314.0,5320994.0,0.0
1586175256670,4945008.0,5324062.0,0.0
1586175256670,4938211.0,5323326.0,0.0
1586175256670,4932113.0,5318508.0,0.0
1586175256734,4926789.0,5327757.0,0.0
1586175256752,4933261.0,5337378.0,0.0
1586175256810,4940131.0,5345167.0,0.0
1586175256856,4953159.0,5350541.0,0.0
1586175256904,4963397.0,5351458.0,0.0
1586175256955,4971969.0,5359099.0,0.0
1586175257001,4986361.0,5364182.0,0.0
1586175257052,4994692.0,5371016.0,0.0
1586175257099,4997807.0,5369532.0,0.0
1586175257145,4968044.0,5344334.0,0.0
1586175257195,4943342.0,5318278.0,0.0
1586175257247,4935736.0,5314173.0,0.0
1586175257297,4937944.0,5315247.0,0.0
1586175257339,4943728.0,5319558.0,0.0
1586175257388,4940999.0,5318677.0,0.0
1586175257434,4934577.0,5310939.0,0.0
1586175257490,4937680.0,5312049.0,0.0
1586175257536,4942401.0,5314729.0,0.0
1586175257589,4950467.0,5324448.0,0.0
1586175257637,4961236.0,5333250.0,0.0
1586175257679,4971789.0,5341858.0,0.0
1586175257733,4979358.0,5348161.0,0.0
1586175257775,4991481.0,5360271.0,0.0
1586175257830,5008950.0,5373661.0,0.0
1586175257877,5013816.0,5383549.0,0.0
1586175257929,4993351.0,5360318.0,0.0
1586175257978,4954992.0,5330377.0,0.0
1586175258024,4936413.0,5316408.0,0.0
1586175258076,4927273.0,5309646.0,0.0
1586175258116,4927392.0,5300458.0,0.0
1586175258171,4926040.0,5300373.0,0.0
1586175258217,4917226.0,5291765.0,0.0
1586175258263,4916575.0,5293116.0,0.0
1586175258317,4914776.0,5295364.0,0.0
1586175258365,4921140.0,5296945.0,0.0
1586175258417,4932874.0,5307109.0,0.0
1586175258456,4940964.0,5317783.0,0.0
1586175258513,4952469.0,5327587.0,0.0
1586175258555,4961876.0,5336656.0,0.0
1586175258605,4971572.0,5348161.0,0.0
1586175258656,4983970.0,5360440.0,0.0
1586175258709,4986398.0,5361683.0,0.0
1586175258757,4949753.0,5334675.0,0.0
1586175258802,4922853.0,5311373.0,0.0
1586175258855,4916260.0,5310431.0,0.0
1586175258895,4920476.0,5306808.0,0.0
1586175258950,4918458.0,5312785.0,0.0
1586175258998,4917770.0,5312013.0,0.0
1586175259047,4912856.0,5306229.0,0.0
1586175259091,4913399.0,5309453.0,0.0
1586175259140,4916538.0,5313353.0,0.0
1586175259197,4923687.0,5321986.0,0.0
1586175259238,4934226.0,5333818.0,0.0
1586175259293,4940904.0,5341327.0,0.0
1586175259339,4949801.0,5358834.0,0.0
1586175259390,4964434.0,5366369.0,0.0
1586175259438,4972862.0,5383597.0,0.0
1586175259481,4951721.0,5364267.0,0.0
1586175259534,4920717.0,5338116.0,0.0
1586175259577,4906469.0,5333686.0,0.0
1586175259632,4910296.0,5339129.0,0.0
1586175259678,4911939.0,5342704.0,0.0
1586175259725,4909910.0,5341123.0,0.0
1586175259777,4909982.0,5343453.0,0.0
1586175259825,4909114.0,5346097.0,0.0
1586175259877,4916273.0,5351337.0,0.0
1586175259919,4923613.0,5361852.0,0.0
1586175259975,4932837.0,5374602.0,0.0
1586175260018,4945926.0,5385626.0,0.0
1586175260070,4957203.0,5394379.0,0.0
1586175260119,4967272.0,5412430.0,0.0
1586175260169,4980614.0,5421207.0,0.0
1586175260216,4994221.0,5436830.0,0.0
1586175260258,4981809.0,5426362.0,0.0
1586175260314,4947108.0,5401261.0,0.0
1586175260362,4925220.0,5389333.0,0.0
1586175260410,4926403.0,5390552.0,0.0
1586175260457,4924954.0,5389682.0,0.0
1586175260507,4922745.0,5390140.0,0.0
1586175260550,4922697.0,5392544.0,0.0
1586175260597,4919799.0,5396527.0,0.0
1586175260655,4922938.0,5401176.0,0.0
1586175260699,4927501.0,5413805.0,0.0
1586175260753,4936968.0,5428740.0,0.0
1586175260801,4944635.0,5443169.0,0.0
1586175260850,4955188.0,5464515.0,0.0
1586175260899,4971619.0,5480851.0,0.0
1586175260941,4989561.0,5497163.0,0.0
1586175260997,5006850.0,5513714.0,0.0
1586175261037,5010399.0,5517930.0,0.0
1586175261086,4987834.0,5498298.0,0.0
1586175261141,4972355.0,5484593.0,0.0
1586175261187,4971268.0,5483882.0,0.0
1586175261241,4977681.0,5483953.0,0.0
1586175261281,4976292.0,5484340.0,0.0
1586175261335,4976327.0,5490776.0,0.0
1586175261379,4971244.0,5494157.0,0.0
1586175261434,4974142.0,5502850.0,0.0
1586175261483,4983814.0,5508234.0,0.0
1586175261531,4988969.0,5524304.0,0.0
1586175261578,4996527.0,5540230.0,0.0
1586175261628,5013829.0,5549611.0,0.0
1586175261675,5030358.0,5564173.0,0.0
1586175261719,5044833.0,5569726.0,0.0
1586175261775,5056629.0,5580943.0,0.0
1586175261823,5038459.0,5565223.0,0.0
1586175261870,5015170.0,5548632.0,0.0
1586175261920,5006173.0,5539651.0,0.0
1586175261967,5009857.0,5534494.0,0.0
1586175262017,5011113.0,5534314.0,0.0
1586175262058,5014408.0,5530487.0,0.0
1586175262114,5019105.0,5529701.0,0.0
1586175262162,5018621.0,5524581.0,0.0
1586175262213,5025611.0,5529315.0,0.0
1586175262262,5035415.0,5538418.0,0.0
1586175262311,5044653.0,5542764.0,0.0
1586175262358,5056713.0,5549706.0,0.0
1586175262399,5067025.0,5557241.0,0.0
1586175262457,5080306.0,5562216.0,0.0
1586175262501,5090171.0,5572273.0,0.0
1586175262554,5074306.0,5557881.0,0.0
1586175262601,5046621.0,5533685.0,0.0
1586175262648,5033001.0,5532997.0,0.0
1586175262700,5027677.0,5536221.0,0.0
1586175262741,5023234.0,5530196.0,0.0
1586175262797,5020494.0,5537538.0,0.0
1586175262841,5016667.0,5543549.0,0.0
1586175262895,5016159.0,5553184.0,0.0
1586175262943,5026108.0,5559619.0,0.0
1586175262989,5035634.0,5568420.0,0.0
1586175263039,5049059.0,5574350.0,0.0
1586175263080,5057739.0,5581424.0,0.0
1586175263137,5072626.0,5591591.0,0.0
1586175263182,5084533.0,5602468.0,0.0
1586175263235,5081936.0,5601479.0,0.0
1586175263283,5060794.0,5578031.0,0.0
1586175263331,5051040.0,5568663.0,0.0
1586175263379,5042902.0,5566960.0,0.0
1586175263420,5046052.0,5566828.0,0.0
1586175263471,5052489.0,5559415.0,0.0
1586175263523,5054468.0,5559174.0,0.0
1586175263575,5053346.0,5557519.0,0.0
1586175263622,5057427.0,5558992.0,0.0
1586175263666,5067109.0,5565850.0,0.0
1586175263721,5077844.0,5576246.0,0.0
1586175263769,5091787.0,5581255.0,0.0
1586175263818,5097645.0,5588597.0,0.0
1586175263862,5105553.0,5595877.0,0.0
1586175263914,5098417.0,5585844.0,0.0
1586175263963,5074861.0,5567069.0,0.0
1586175264012,5066229.0,5558762.0,0.0
1586175264062,5061315.0,5562094.0,0.0
1586175264109,5064044.0,5567540.0,0.0
1586175264152,5068873.0,5567709.0,0.0
1586175264199,5075369.0,5558762.0,0.0
1586175264255,5077625.0,5554369.0,0.0
1586175264305,5084374.0,5552013.0,0.0
1586175264352,5084520.0,5554802.0,0.0
1586175264402,5092755.0,5564207.0,0.0
1586175264449,5098997.0,5571319.0,0.0
1586175264495,5117880.0,5578528.0,0.0
1586175264541,5125872.0,5586616.0,0.0
1586175264597,5121030.0,5578044.0,0.0
1586175264646,5094228.0,5548873.0,0.0
1586175264692,5085461.0,5533264.0,0.0
1586175264743,5080150.0,5525668.0,0.0
1586175264784,5078410.0,5529194.0,0.0
1586175264839,5072423.0,5529072.0,0.0
1586175264882,5066602.0,5536861.0,0.0
1586175264930,5069403.0,5534941.0,0.0
1586175265214,5071383.0,5540410.0,0.0
1586175265215,5081272.0,5549876.0,0.0
1586175265215,5095918.0,5561986.0,0.0
1586175265215,5117264.0,5571054.0,0.0
1586175265220,5143862.0,5564691.0,0.0
1586175265292,5152989.0,5557326.0,0.0
1586175265292,5175508.0,5557423.0,0.0
1586175265370,5220289.0,5563713.0,0.0
1586175265389,5248492.0,5561396.0,0.0
1586175265423,5250967.0,5535340.0,0.0
1586175265467,5243398.0,5519210.0,0.0
1586175265521,5235538.0,5520501.0,0.0
1586175265564,5239196.0,5525391.0,0.0
1586175265611,5275634.0,5516034.0,0.0
1586175265665,5306760.0,5516433.0,0.0
1586175265714,5314766.0,5507968.0,0.0
1586175265756,5315744.0,5501207.0,0.0
1586175265806,5316974.0,5498129.0,0.0
1586175265861,5320428.0,5493794.0,0.0
1586175265905,5334215.0,5497090.0,0.0
1586175265958,5343090.0,5493842.0,0.0
1586175266007,5352181.0,5495230.0,0.0
1586175266055,5364460.0,5494567.0,0.0
1586175266105,5370196.0,5499335.0,0.0
1586175266148,5379082.0,5504889.0,0.0
1586175266202,5380989.0,5513944.0,0.0
1586175266248,5368046.0,5499795.0,0.0
1586175266293,5338901.0,5471952.0,0.0
1586175266348,5317868.0,5452852.0,0.0
1586175266395,5301352.0,5446875.0,0.0
1586175266445,5297813.0,5445293.0,0.0
1586175266488,5288022.0,5447768.0,0.0
1586175266542,5276613.0,5439451.0,0.0
1586175266586,5266301.0,5434741.0,0.0
1586175266640,5264791.0,5433704.0,0.0
1586175266922,5269888.0,5435322.0,0.0
1586175266922,5274402.0,5431794.0,0.0
1586175266923,5279136.0,5439390.0,0.0
1586175266923,5286319.0,5445825.0,0.0
1586175266923,5286851.0,5453867.0,0.0
1586175266992,5286996.0,5457210.0,0.0
1586175266992,5294385.0,5469116.0,0.0
1586175267089,5306808.0,5478629.0,0.0
1586175267089,5301206.0,5464732.0,0.0
1586175267128,5274452.0,5428681.0,0.0
1586175267174,5256461.0,5410655.0,0.0
1586175267222,5248843.0,5398400.0,0.0
1586175267266,5244207.0,5395623.0,0.0
1586175267322,5235271.0,5387569.0,0.0
1586175267367,5230600.0,5380011.0,0.0
1586175267420,5219275.0,5376896.0,0.0
1586175267469,5211728.0,5381376.0,0.0
1586175267513,5213745.0,5390503.0,0.0
1586175267565,5215388.0,5400946.0,0.0
1586175267610,5225009.0,5409460.0,0.0
1586175267661,5235321.0,5422318.0,0.0
1586175267711,5240053.0,5433764.0,0.0
1586175267757,5248674.0,5440236.0,0.0
1586175267808,5265204.0,5451802.0,0.0
1586175267857,5281781.0,5457972.0,0.0
1586175267907,5295182.0,5468656.0,0.0
1586175267949,5285560.0,5445753.0,0.0
1586175268003,5263284.0,5412525.0,0.0
1586175268049,5247540.0,5396527.0,0.0
1586175268098,5245908.0,5384454.0,0.0
1586175268144,5248843.0,5377284.0,0.0
1586175268191,5248939.0,5371693.0,0.0
1586175268250,5253044.0,5365560.0,0.0
1586175268289,5249761.0,5359401.0,0.0
1586175268344,5238714.0,5365282.0,0.0
1586175268391,5242951.0,5378768.0,0.0
1586175268440,5239799.0,5386858.0,0.0
1586175268490,5244654.0,5403337.0,0.0
1586175268533,5252247.0,5416016.0,0.0
1586175268588,5258791.0,5427774.0,0.0
1586175268636,5272181.0,5441889.0,0.0
1586175268685,5278774.0,5451005.0,0.0
1586175268729,5291294.0,5461172.0,0.0
1586175268779,5302137.0,5475985.0,0.0
1586175268831,5303319.0,5480320.0,0.0
1586175268872,5277988.0,5460542.0,0.0
1586175268929,5257452.0,5448868.0,0.0
1586175268969,5249071.0,5444775.0,0.0
1586175269027,5251197.0,5451572.0,0.0
1586175269069,5250883.0,5451487.0,0.0
