time,value
1576668540496,8027834.0
1576668540542,8027933.0
1576668540585,7995179.0
1576668540638,7969082.0
1576668540703,7936509.0
1576668540798,7885655.0
1576668540798,7839662.0
1576668540892,7754827.0
1576668540893,7649725.0
1576668540929,7643473.0
1576668540980,7654824.0
1576668541028,7648477.0
1576668541076,7603048.0
1576668541127,7532317.0
1576668541175,7494464.0
1576668541227,7462344.0
1576668541276,7381216.0
1576668541328,7303426.0
1576668541376,7269655.0
1576668541430,7190859.0
1576668541478,7023860.0
1576668541522,7009696.0
1576668541570,7001390.0
1576668541621,6964413.0
1576668541670,6927758.0
1576668541720,6930656.0
1576668541770,6882525.0
1576668541819,6864215.0
1576668541869,6836724.0
1576668541922,6792494.0
1576668541971,6746580.0
1576668542016,6718135.0
1576668542064,6680881.0
1576668542114,6728901.0
1576668542162,6645620.0
1576668542213,6616965.0
1576668542258,6602117.0
1576668542310,6584020.0
1576668542359,6575648.0
1576668542412,6544241.0
1576668542456,6455488.0
1576668542510,6404119.0
1576668542556,6449661.0
1576668542610,6462417.0
1576668542657,6441387.0
1576668542707,6473832.0
1576668542758,6399473.0
1576668542805,6301460.0
1576668542856,6246478.0
1576668542897,6210408.0
1576668542953,6171505.0
1576668542998,6134801.0
1576668543048,6099688.0
1576668543097,6041664.0
1576668543151,5987944.0
1576668543200,6013428.0
1576668543245,5955016.0
1576668543295,5935572.0
1576668543343,6020893.0
1576668543393,6024794.0
1576668543447,5918606.0
1576668543491,5818050.0
1576668543537,5775569.0
1576668543590,5676066.0
1576668543639,5600672.0
1576668543689,5575252.0
1576668543741,5549140.0
1576668543793,5564567.0
1576668543840,5731613.0
1576668543888,5734786.0
1576668543934,5621605.0
1576668543988,5542097.0
1576668544038,5517050.0
1576668544084,5506478.0
1576668544133,5490693.0
1576668544185,5432509.0
1576668544230,5388293.0
1576668544282,5358944.0
1576668544337,5293585.0
1576668544380,5267924.0
1576668544435,5237390.0
1576668544480,5241745.0
1576668544529,5276279.0
1576668544579,5275435.0
1576668544627,5250568.0
1576668544678,5180209.0
1576668544726,5135717.0
1576668544777,5145207.0
1576668544825,4907608.0
1576668544868,4801677.0
1576668544932,4771723.0
1576668544976,4757069.0
1576668545021,4754123.0
1576668545070,4750413.0
1576668545120,4742466.0
1576668545169,4709404.0
1576668545219,4678700.0
1576668545266,4668393.0
1576668545318,4663322.0
1576668545364,4658593.0
1576668545413,4649125.0
1576668545466,4643107.0
1576668545511,4641313.0
1576668545565,4638230.0
1576668545614,4644665.0
1576668545661,4652146.0
1576668545709,4650758.0
1576668545760,4645894.0
1576668545808,4632176.0
1576668545852,4588771.0
1576668545900,4570251.0
1576668545958,4559982.0
1576668546005,4551607.0
1576668546049,4546398.0
1576668546104,4541707.0
1576668546155,4534682.0
1576668546203,4530493.0
1576668546251,4532532.0
1576668546301,4536697.0
1576668546350,4536904.0
1576668546400,4537359.0
1576668546449,4521860.0
1576668546493,4494556.0
1576668546546,4483208.0
1576668546594,4482877.0
1576668546645,4463190.0
1576668546693,4545134.0
1576668546744,4596852.0
1576668546795,4627067.0
1576668546842,4663335.0
1576668546890,4683341.0
1576668546940,4721048.0
1576668546984,4787049.0
1576668547033,4849613.0
1576668547082,4870086.0
1576668547137,4844738.0
1576668547183,4811060.0
1576668547236,4784580.0
1576668547282,4770273.0
1576668547335,4760902.0
1576668547383,4756358.0
1576668547436,4756676.0
1576668547487,4759759.0
1576668547533,4772299.0
1576668547582,4779398.0
1576668547630,4793657.0
1576668547680,4809586.0
1576668547729,4825922.0
1576668547779,4825012.0
1576668547827,4805104.0
1576668547877,4799258.0
1576668547919,4807216.0
1576668547977,4812621.0
1576668548019,4817127.0
1576668548070,4817017.0
1576668548117,4819155.0
1576668548172,4821698.0
1576668548222,4823183.0
1576668548264,4833893.0
1576668548314,4833463.0
1576668548362,4834913.0
1576668548415,4819449.0
1576668548460,4812632.0
1576668548517,4813420.0
1576668548567,4819522.0
1576668548619,4828416.0
1576668548664,4832997.0
1576668548714,4838338.0
1576668548758,4843619.0
1576668548812,4862583.0
1576668548861,4881472.0
1576668548912,4904011.0
1576668548965,4939738.0
1576668549010,4973784.0
1576668549054,5003001.0
1576668549107,5018440.0
1576668549156,5027959.0
1576668549205,5024335.0
1576668549258,5013638.0
1576668549304,4999293.0
1576668549353,4994601.0
1576668549404,4986385.0
1576668549456,4984125.0
1576668549502,4984997.0
1576668549549,4983977.0
1576668549597,4974004.0
1576668549649,4964879.0
1576668549698,4963945.0
1576668549746,4964780.0
1576668549797,4977725.0
1576668549841,4996038.0
1576668549896,4999525.0
1576668549939,5005371.0
1576668550000,5018341.0
1576668550037,5034590.0
1576668550091,5040953.0
1576668550136,5049107.0
1576668550190,5037084.0
1576668550238,5022825.0
1576668550289,5008467.0
1576668550338,5009880.0
1576668550386,5021879.0
1576668550438,5024999.0
1576668550485,5034222.0
1576668550535,5036237.0
1576668550578,5048187.0
1576668550634,5069164.0
1576668550679,5077111.0
1576668550728,5085413.0
1576668550776,5094232.0
1576668550826,5100987.0
1576668550875,5089430.0
1576668550931,5096982.0
1576668550977,5095938.0
1576668551024,5102631.0
1576668551076,5106882.0
1576668551123,5111181.0
1576668551175,5104659.0
1576668551223,5101870.0
1576668551269,5100175.0
1576668551316,5098996.0
1576668551371,5094784.0
1576668551421,5071830.0
1576668551464,5055997.0
1576668551521,5045459.0
1576668551579,5043016.0
1576668551629,5044305.0
1576668551668,5033485.0
1576668551723,5032317.0
1576668551768,5030501.0
1576668551817,5026103.0
1576668551860,5033584.0
1576668551918,5036667.0
1576668551958,5041494.0
1576668552015,5026350.0
1576668552058,5012864.0
1576668552114,5006415.0
1576668552158,5003124.0
1576668552205,5002621.0
1576668552258,4993127.0
1576668552304,4999035.0
1576668552355,5000962.0
1576668552402,5005715.0
1576668552453,5001602.0
1576668552500,5003628.0
1576668552550,5010063.0
1576668552600,5005678.0
1576668552655,5001836.0
1576668552699,4991384.0
1576668552754,4997020.0
1576668552803,5003590.0
1576668552850,5000741.0
1576668552898,5002339.0
1576668552943,5004623.0
1576668552994,5012753.0
1576668553042,5013993.0
1576668553093,5020566.0
1576668553142,5031017.0
1576668553197,5030095.0
1576668553238,5014265.0
1576668553296,5005974.0
1576668553339,5017628.0
1576668553386,5030622.0
1576668553439,5039086.0
1576668553487,5048308.0
1576668553540,5064644.0
1576668553586,5079578.0
1576668553638,5087660.0
1576668553687,5091270.0
1576668553737,5098542.0
1576668553785,5094377.0
1576668553831,5083939.0
1576668553884,5082171.0
1576668553936,5082120.0
1576668553979,5074273.0
1576668554035,5070084.0
1576668554084,5074420.0
1576668554131,5086185.0
1576668554180,5082882.0
1576668554230,5091222.0
1576668554276,5107409.0
1576668554327,5116866.0
1576668554377,5108232.0
1576668554426,5081838.0
1576668554471,5057313.0
1576668554518,5042721.0
1576668554578,5021376.0
1576668554623,5014841.0
1576668554674,4997929.0
1576668554722,4983547.0
1576668554772,4973647.0
1576668554821,4959437.0
1576668554864,4954734.0
1576668554916,4952695.0
1576668554969,4950594.0
1576668555016,4939504.0
1576668555062,4917225.0
1576668555118,4900190.0
1576668555157,4887465.0
1576668555215,4897648.0
1576668555264,4914228.0
1576668555307,4936359.0
1576668555355,4986237.0
1576668555403,4986127.0
1576668555453,5042290.0
1576668555501,5042094.0
1576668555552,5026829.0
1576668555600,4997486.0
1576668555650,4989651.0
1576668555701,4982024.0
1576668555758,4960198.0
1576668555803,4988484.0
1576668555855,5080562.0
1576668555907,5195113.0
1576668555952,5293504.0
1576668555997,5429980.0
1576668556051,5585260.0
1576668556098,5664933.0
1576668556147,5653179.0
1576668556197,5614344.0
1576668556240,5583468.0
1576668556290,5557786.0
1576668556340,5532669.0
1576668556389,5524009.0
1576668556441,5507085.0
1576668556487,5498045.0
1576668556543,5495296.0
1576668556593,5516875.0
1576668556640,5545246.0
1576668556691,5564872.0
1576668556739,5572793.0
1576668556787,5612685.0
1576668556836,5615276.0
1576668556885,5581918.0
1576668556938,5572352.0
1576668556984,5557318.0
1576668557034,5524539.0
1576668557082,5577449.0
1576668557135,5616701.0
1576668557183,5665275.0
1576668557233,5724610.0
1576668557282,5737789.0
1576668557334,5676994.0
1576668557380,5612660.0
1576668557428,5593355.0
1576668557475,5576637.0
1576668557522,5569196.0
1576668557582,5619981.0
1576668557623,5666566.0
1576668557677,5682668.0
1576668557724,5672633.0
1576668557776,5661382.0
1576668557825,5633920.0
1576668557874,5617132.0
1576668557923,5592776.0
1576668557970,5575053.0
1576668558016,5550859.0
1576668558063,5544251.0
1576668558117,5534254.0
1576668558164,5527585.0
1576668558212,5524685.0
1576668558261,5518521.0
1576668558309,5507025.0
1576668558359,5468188.0
1576668558406,5450725.0
1576668558456,5436343.0
1576668558507,5426529.0
1576668558558,5416445.0
1576668558604,5412049.0
1576668558657,5413978.0
1576668558703,5415450.0
1576668558761,5422881.0
1576668558804,5431503.0
1576668558859,5408770.0
1576668558904,5388614.0
1576668558951,5367011.0
1576668558999,5331456.0
1576668559050,5302594.0
1576668559097,5296834.0
1576668559148,5281480.0
1576668559196,5267822.0
1576668559250,5275228.0
1576668559299,5283334.0
1576668559343,5289452.0
1576668559399,5297520.0
1576668559446,5300224.0
1576668559497,5303159.0
1576668559547,5310563.0
1576668559598,5288739.0
1576668559645,5256057.0
1576668559693,5232538.0
1576668559745,5227060.0
1576668559790,5222393.0
1576668559842,5213389.0
1576668559885,5205923.0
1576668559942,5191823.0
1576668559983,5184613.0
1576668560039,5187992.0
1576668560085,5186800.0
1576668560138,5186886.0
1576668560186,5180733.0
1576668560237,5156599.0
1576668560285,5123414.0
1576668560334,5108528.0
1576668560384,5111401.0
1576668560431,5101256.0
1576668560484,5099954.0
1576668560524,5097842.0
1576668560582,5097057.0
1576668560626,5096564.0
1576668560674,5088631.0
1576668560727,5082034.0
1576668560779,5080721.0
1576668560826,5062029.0
1576668560877,5053369.0
1576668560925,5039454.0
1576668560974,5023156.0
1576668561025,5013700.0
1576668561066,5028683.0
1576668561122,5016143.0
1576668561164,5006772.0
1576668561222,5004464.0
1576668561267,5001110.0
1576668561318,5004413.0
1576668561362,4991518.0
1576668561413,4982883.0
1576668561461,4977357.0
1576668561510,4979100.0
1576668561560,4987747.0
1576668561609,4997033.0
1576668561658,4980268.0
1576668561706,4973980.0
1576668561757,4968759.0
1576668561804,4972396.0
1576668561857,4971610.0
1576668561906,4978180.0
1576668561953,4981042.0
1576668562008,4979027.0
1576668562056,4970873.0
1576668562106,4964621.0
1576668562150,4963122.0
1576668562205,4966009.0
1576668562247,4971941.0
1576668562304,4972788.0
1576668562345,4974115.0
1576668562402,4975059.0
1576668562448,4982576.0
1576668562499,4980833.0
1576668562549,4986237.0
1576668562600,4980281.0
1576668562648,4972506.0
1576668562696,4968896.0
1576668562746,4970712.0
1576668562789,4973340.0
1576668562836,4974408.0
1576668562886,4977984.0
1576668562943,4981779.0
1576668562986,4983843.0
1576668563044,4987968.0
1576668563089,4992587.0
1576668563141,4991271.0
1576668563188,4988521.0
1576668563232,4988694.0
1576668563282,4988914.0
1576668563332,4992648.0
1576668563381,4994626.0
1576668563430,4994760.0
1576668563479,4996431.0
1576668563529,4999390.0
1576668563578,5001664.0
1576668563632,5006980.0
1576668563683,5012398.0
1576668563729,5012705.0
1576668563781,5011378.0
1576668563830,5005078.0
1576668563881,5009597.0
1576668563929,5010248.0
1576668563977,5014461.0
1576668564027,5014324.0
1576668564069,5012987.0
1576668564126,5018758.0
1576668564167,5019520.0
1576668564224,5026950.0
1576668564269,5030057.0
1576668564324,5026350.0
1576668564370,5024066.0
1576668564423,5024286.0
1576668564467,5023291.0
1576668564518,5023560.0
1576668564574,5030280.0
1576668564616,5028696.0
1576668564667,5029812.0
1576668564711,5033977.0
1576668564767,5036592.0
1576668564808,5039540.0
1576668564865,5043581.0
1576668564910,5044943.0
1576668564963,5042317.0
1576668565010,5045239.0
1576668565063,5043667.0
1576668565110,5045976.0
1576668565158,5049745.0
1576668565210,5050668.0
1576668565259,5052755.0
1576668565307,5055371.0
1576668565355,5058798.0
1576668565406,5061819.0
1576668565447,5060713.0
1576668565505,5066070.0
1576668565555,5066498.0
1576668565597,5065602.0
1576668565653,5066904.0
1576668565703,5065847.0
1576668565750,5072233.0
1576668565799,5081262.0
1576668565848,5083632.0
1576668565891,5080697.0
1576668565944,5084098.0
1576668565990,5085044.0
1576668566046,5084517.0
1576668566090,5086051.0
1576668566145,5088851.0
1576668566192,5086863.0
1576668566244,5087366.0
1576668566292,5082575.0
1576668566336,5082502.0
1576668566383,5082833.0
1576668566432,5082540.0
1576668566484,5080893.0
1576668566535,5085510.0
1576668566583,5102534.0
1576668566631,5160540.0
1576668566687,5223940.0
1576668566732,5284870.0
1576668566785,5332082.0
1576668566833,5367011.0
1576668566884,5377487.0
1576668566933,5391132.0
1576668566981,5426308.0
1576668567031,5460636.0
1576668567074,5546376.0
1576668567129,5633024.0
1576668567177,5717020.0
1576668567227,5773971.0
1576668567272,5844702.0
1576668567326,5945721.0
1576668567374,6005153.0
1576668567425,6041372.0
1576668567474,6079704.0
1576668567518,6230119.0
1576668567566,6241566.0
1576668567616,6371826.0
1576668567665,6407174.0
1576668567714,6427526.0
1576668567763,6486086.0
1576668567815,6481787.0
1576668567862,6476738.0
1576668567913,6429711.0
1576668567967,6439426.0
1576668568016,6442891.0
1576668568066,6440494.0
1576668568115,6471653.0
1576668568163,6447066.0
1576668568213,6498771.0
1576668568262,6498822.0
1576668568312,6516961.0
1576668568360,6526358.0
1576668568408,6537805.0
1576668568452,6544165.0
1576668568503,6556817.0
1576668568550,6543675.0
1576668568600,6551278.0
1576668568653,6613583.0
1576668568698,6654973.0
1576668568747,6764921.0
1576668568799,6776820.0
1576668568848,6743501.0
1576668568898,6750170.0
1576668568944,6830850.0
1576668568995,6850169.0
1576668569050,6866564.0
1576668569093,6843217.0
1576668569149,6788488.0
1576668569194,6793242.0
1576668569245,6805093.0
1576668569295,6840258.0
1576668569347,6813826.0
1576668569395,6843169.0
1576668569444,6878834.0
1576668569493,6896386.0
1576668569536,6926611.0
1576668569592,6948718.0
1576668569634,6966452.0
1576668569690,6980663.0
1576668569734,6993792.0
1576668569790,6990625.0
1576668569835,7002120.0
1576668569887,7002317.0
1576668569936,7008297.0
1576668569984,7019831.0
1576668570036,7031843.0
1576668570078,7054466.0
1576668570132,7078784.0
1576668570176,7098754.0
1576668570232,7120198.0
1576668570277,7546012.0
1576668570330,7549549.0
1576668570376,7516976.0
1576668570428,7534693.0
1576668570479,7542426.0
1576668570525,7560192.0
1576668570579,7568176.0
1576668570626,7560858.0
1576668570674,7559077.0
1576668570715,7563144.0
1576668570769,7576410.0
1576668570815,7588373.0
1576668570871,7616213.0
1576668570915,7604741.0
1576668570961,7605173.0
1576668571017,7546938.0
1576668571060,7576560.0
1576668571113,7459528.0
1576668571159,7591994.0
1576668571217,7638994.0
1576668571258,7598330.0
1576668571314,7595066.0
1576668571355,7596565.0
1576668571404,7543064.0
1576668571455,7505829.0
1576668571502,7529989.0
1576668571555,7565608.0
1576668571600,7614952.0
1576668571661,7679034.0
1576668571700,7695181.0
1576668571757,7659221.0
1576668571798,7536120.0
1576668571856,7438690.0
1576668571898,7521264.0
1576668571953,7507714.0
1576668571999,7521722.0
1576668572051,7434640.0
1576668572099,7386704.0
1576668572150,7405610.0
1576668572200,7409632.0
1576668572247,7370544.0
1576668572296,7335370.0
1576668572340,7304976.0
1576668572395,7265680.0
1576668572439,7245824.0
1576668572496,7214613.0
1576668572538,7164154.0
1576668572595,7098098.0
1576668572639,7049112.0
1576668572692,7005464.0
1576668572740,6964325.0
1576668572789,6905082.0
1576668572840,6835392.0
1576668572887,6789058.0
1576668572935,6769840.0
1576668572982,6732680.0
1576668573037,6699362.0
1576668573079,6684226.0
1576668573135,6693797.0
1576668573178,6683928.0
1576668573234,6635741.0
1576668573279,6551312.0
1576668573330,6478312.0
1576668573381,6391658.0
1576668573429,6361605.0
1576668573477,6320320.0
1576668573526,6276258.0
1576668573579,6239482.0
1576668573623,6210810.0
1576668573671,6170904.0
1576668573718,6116394.0
1576668573767,6071472.0
1576668573819,6062896.0
1576668573867,6023568.0
1576668573918,6014128.0
1576668573963,5941144.0
1576668574018,5868066.0
1576668574063,5847349.0
1576668574117,5847173.0
1576668574167,5814613.0
1576668574217,5812045.0
1576668574265,5917888.0
1576668574317,5980277.0
1576668574358,6091434.0
1576668574416,6169672.0
1576668574457,6178370.0
1576668574514,6157504.0
1576668574562,6130821.0
1576668574609,6126725.0
1576668574661,6091997.0
1576668574709,5879034.0
1576668574757,5929477.0
1576668574807,5828696.0
1576668574858,5910021.0
1576668574904,6012258.0
1576668574951,6091552.0
1576668575000,6152072.0
1576668575055,6212904.0
1576668575097,6232226.0
1576668575154,6288368.0
1576668575204,6313818.0
1576668575252,6364160.0
1576668575301,6427053.0
1576668575348,6476768.0
1576668575397,6523042.0
1576668575446,6573634.0
1576668575500,6625442.0
1576668575543,6645402.0
1576668575601,6687890.0
1576668575638,6710152.0
1576668575696,6717586.0
1576668575744,6713298.0
1576668575792,6727989.0
1576668575844,6728658.0
1576668575891,6737725.0
1576668575937,6749005.0
1576668575988,6756098.0
1576668576036,6729386.0
1576668576086,6721773.0
1576668576138,6726016.0
1576668576181,6736834.0
1576668576237,6756410.0
1576668576282,6773106.0
1576668576334,6777365.0
1576668576384,6787560.0
1576668576432,6791730.0
1576668576481,6821026.0
1576668576530,6840154.0
1576668576577,6873634.0
1576668576623,6907904.0
1576668576676,6906077.0
1576668576720,6917357.0
1576668576779,6916954.0
1576668576820,6920621.0
1576668576877,6926853.0
1576668576924,6928072.0
1576668576974,6932597.0
1576668577020,6943877.0
1576668577064,6944277.0
1576668577118,6957589.0
1576668577166,6965706.0
1576668577216,6976021.0
1576668577263,6979984.0
1576668577320,6984642.0
1576668577364,6999914.0
1576668577418,6996442.0
1576668577464,6996722.0
1576668577516,7000776.0
1576668577566,7005389.0
1576668577612,7015320.0
1576668577664,7029357.0
1576668577715,7033098.0
1576668577760,7040725.0
1576668577809,7046024.0
1576668577856,7044421.0
1576668577906,7046349.0
1576668577955,7049482.0
1576668578000,7044792.0
1576668578055,7082338.0
1576668578104,7087592.0
1576668578155,7091541.0
1576668578203,7104096.0
1576668578251,7107376.0
1576668578301,7115402.0
1576668578349,7129501.0
1576668578399,7139312.0
1576668578451,7149493.0
1576668578499,7165045.0
1576668578545,7173104.0
1576668578599,7180970.0
1576668578641,7199328.0
1576668578699,7210621.0
1576668578742,7216216.0
1576668578789,7232229.0
1576668578844,7240226.0
1576668578894,7240672.0
1576668578943,7244458.0
1576668578993,7246890.0
1576668579037,7250912.0
1576668579090,7258066.0
1576668579140,7259090.0
1576668579183,7260648.0
1576668579236,7271794.0
1576668579281,7275725.0
1576668579338,7279941.0
1576668579384,7288549.0
1576668579430,7295285.0
1576668579485,7300213.0
1576668579535,7304338.0
1576668579582,7311002.0
1576668579629,7321984.0
1576668579683,7328261.0
1576668579727,7325976.0
1576668579775,7326050.0
1576668579824,7330429.0
1576668579874,7337240.0
1576668579923,7341157.0
1576668579972,7340208.0
1576668580023,7344024.0
1576668580070,7348445.0
1576668580119,7348994.0
1576668580168,7354410.0
1576668580224,7362456.0
1576668580269,7368880.0
1576668580322,7371981.0
1576668580363,7380130.0
1576668580419,7388485.0
1576668580466,7392048.0
1576668580515,7396856.0
1576668580565,7403520.0
1576668580620,7407034.0
1576668580666,7419250.0
1576668580716,7418568.0
1576668580764,7424146.0
1576668580807,7416770.0
1576668580864,7418122.0
1576668580906,7420213.0
1576668580961,7425853.0
1576668581005,7424858.0
1576668581061,7424042.0
1576668581104,7422618.0
1576668581158,7426002.0
1576668581205,7432338.0
1576668581258,7437013.0
1576668581302,7446112.0
1576668581353,7441570.0
1576668581405,7449434.0
1576668581447,7454821.0
1576668581504,7458058.0
1576668581544,7462925.0
1576668581600,7465093.0
1576668581644,7472898.0
1576668581699,7475525.0
1576668581746,7480704.0
1576668581799,7489816.0
1576668581848,7489504.0
1576668581897,7496213.0
1576668581946,7487264.0
1576668581994,7481848.0
1576668582044,7484000.0
1576668582086,7480794.0
1576668582140,7479280.0
1576668582187,7483525.0
1576668582236,7478373.0
1576668582288,7482976.0
1576668582334,7483272.0
1576668582387,7482664.0
1576668582438,7484400.0
1576668582486,7488005.0
1576668582534,7489653.0
1576668582586,7498008.0
1576668582627,7492458.0
1576668582685,7498365.0
1576668582725,7495352.0
1576668582783,7499152.0
1576668582825,7502120.0
1576668582882,7505101.0
1576668582928,7514554.0
1576668582977,7502194.0
1576668583027,7498274.0
1576668583079,7497370.0
1576668583126,7489608.0
1576668583173,7495618.0
1576668583226,7495485.0
1576668583266,7491122.0
1576668583325,7490901.0
1576668583366,7501037.0
1576668583423,7495752.0
1576668583468,7499194.0
1576668583518,7496168.0
1576668583570,7498069.0
1576668583618,7502773.0
1576668583667,7511349.0
1576668583716,7517584.0
1576668583763,7524706.0
1576668583808,7523400.0
1576668583864,7511394.0
1576668583909,7506349.0
1576668583964,7504064.0
1576668584006,7497074.0
1576668584061,7497000.0
1576668584109,7496362.0
1576668584161,7493973.0
1576668584209,7494298.0
1576668584254,7485424.0
1576668584307,7494432.0
1576668584355,7495381.0
1576668584405,7498661.0
1576668584447,7494922.0
1576668584504,7495485.0
1576668584547,7496554.0
1576668584600,7502045.0
1576668584649,7505370.0
1576668584700,7498602.0
1576668584751,7493066.0
1576668584798,7479146.0
1576668584849,7461826.0
1576668584900,7462837.0
1576668584947,7452640.0
1576668584994,7442416.0
1576668585046,7436450.0
1576668585088,7431330.0
1576668585146,7423597.0
1576668585186,7422589.0
1576668585244,7425290.0
1576668585292,7421208.0
1576668585343,7412570.0
1576668585391,7414514.0
1576668585433,7419946.0
1576668585490,7415376.0
1576668585534,7412853.0
1576668585588,7411370.0
1576668585637,7416994.0
1576668585686,7422677.0
1576668585728,7417245.0
1576668585785,7402138.0
1576668585831,7382874.0
1576668585884,7370453.0
1576668585929,7374237.0
1576668585983,7369741.0
1576668586033,7339496.0
1576668586081,7257458.0
1576668586130,7192277.0
1576668586177,7146866.0
1576668586225,7104704.0
1576668586276,7071061.0
1576668586325,7062512.0
1576668586368,7088290.0
1576668586426,7143466.0
1576668586471,7147266.0
1576668586524,7195008.0
1576668586571,7184797.0
1576668586623,7181413.0
1576668586671,7173149.0
1576668586718,7165149.0
1576668586769,7182261.0
1576668586813,7172213.0
1576668586868,7176205.0
1576668586910,7175389.0
1576668586966,7181845.0
1576668587010,7182840.0
1576668587064,7193642.0
1576668587112,7204922.0
1576668587157,7216882.0
1576668587213,7226293.0
1576668587260,7236221.0
1576668587310,7252768.0
1576668587356,7266986.0
1576668587408,7281765.0
1576668587451,7291872.0
1576668587508,7306416.0
1576668587550,7313242.0
1576668587599,7305258.0
1576668587653,7290389.0
1576668587705,7288208.0
1576668587752,7270472.0
1576668587804,7258496.0
1576668587852,7253317.0
1576668587900,7241637.0
1576668587950,7230106.0
1576668587992,7219392.0
1576668588048,7215682.0
1576668588092,7209610.0
1576668588147,7202874.0
1576668588191,7200410.0
1576668588246,7199669.0
1576668588293,7195544.0
1576668588345,7205381.0
1576668588392,7195765.0
1576668588443,7199104.0
1576668588492,7197962.0
1576668588539,7180984.0
1576668588590,7156824.0
1576668588631,7134072.0
1576668588686,7116101.0
1576668588730,7098989.0
1576668588786,7079416.0
1576668588832,7066282.0
1576668588885,7050149.0
1576668588934,7038098.0
1576668588983,7027845.0
1576668589033,7026005.0
1576668589081,7013954.0
1576668589132,7018880.0
1576668589180,7014458.0
1576668589229,7006949.0
1576668589273,6999632.0
1576668589329,7001325.0
1576668589375,7005285.0
1576668589427,7003698.0
1576668589474,6986616.0
1576668589527,6946917.0
1576668589574,6923976.0
1576668589625,6899192.0
1576668589674,6883461.0
1576668589721,6866557.0
1576668589772,6854952.0
1576668589819,6842930.0
1576668589870,6827378.0
1576668589913,6802504.0
1576668589970,6785645.0
1576668590015,6777957.0
1576668590066,6774114.0
1576668590115,6768682.0
1576668590166,6761693.0
1576668590216,6754541.0
1576668590263,6752685.0
1576668590314,6743040.0
1576668590360,6735618.0
1576668590412,6723730.0
1576668590453,6709960.0
1576668590513,6704674.0
1576668590554,6695666.0
1576668590602,6684389.0
1576668590655,6641128.0
1576668590707,6602602.0
1576668590755,6572224.0
1576668590804,6542957.0
1576668590855,6532466.0
1576668590902,6508066.0
1576668590947,6474290.0
1576668590996,6465669.0
1576668591052,6481578.0
1576668591094,6494578.0
1576668591148,6501538.0
1576668591195,6491565.0
1576668591249,6490778.0
1576668591295,6498480.0
1576668591348,6522789.0
1576668591397,6548626.0
1576668591443,6560589.0
1576668591495,6569344.0
1576668591538,6575445.0
1576668591593,6584496.0
1576668591635,6598965.0
1576668591693,6582136.0
1576668591734,6545229.0
1576668591789,6534765.0
1576668591836,6538120.0
1576668591888,6545154.0
1576668591936,6542706.0
1576668591979,6526810.0
1576668592028,6493792.0
1576668592085,6492248.0
1576668592135,6535922.0
1576668592176,6579733.0
1576668592233,6618408.0
1576668592275,6628914.0
1576668592332,6584216.0
1576668592378,6577328.0
1576668592428,6591309.0
1576668592476,6511437.0
1576668592528,6491224.0
1576668592578,6422912.0
1576668592625,6417096.0
1576668592673,6401570.0
1576668592717,6362466.0
1576668592774,6383821.0
1576668592818,6256253.0
1576668592872,6255421.0
1576668592920,6225562.0
1576668592971,6223085.0
1576668593018,6216941.0
1576668593066,6222669.0
1576668593115,6230786.0
1576668593164,6149445.0
1576668593215,6098928.0
1576668593257,6129632.0
1576668593307,6095768.0
1576668593356,6098408.0
1576668593405,6081016.0
1576668593455,6076725.0
1576668593504,6066738.0
1576668593555,6033184.0
1576668593603,6008178.0
1576668593660,6017320.0
1576668593703,6036746.0
1576668593754,6017986.0
1576668593802,6014469.0
1576668593857,6011205.0
1576668593903,5967173.0
1576668593956,5955389.0
1576668593999,5929568.0
1576668594054,5927325.0
1576668594099,5931720.0
1576668594153,5904725.0
1576668594201,5905704.0
1576668594248,5909904.0
1576668594296,5919045.0
1576668594346,5926821.0
1576668594393,5893461.0
1576668594440,5934493.0
1576668594499,5906682.0
1576668594542,5914770.0
1576668594595,5883101.0
1576668594639,5843968.0
1576668594694,5825669.0
1576668594736,5851890.0
1576668594791,5869432.0
1576668594840,5872536.0
1576668594891,5885861.0
1576668594937,5869773.0
1576668594987,5858509.0
1576668595037,5849962.0
1576668595084,5863184.0
1576668595135,5878930.0
1576668595180,5917338.0
1576668595235,5959485.0
1576668595277,5973197.0
1576668595333,5979848.0
1576668595377,5986480.0
1576668595425,5966312.0
1576668595482,5973168.0
1576668595530,5931586.0
1576668595577,5972946.0
1576668595625,5926301.0
1576668595677,5942122.0
1576668595726,5876690.0
1576668595776,6044194.0
1576668595820,6053306.0
1576668595877,6085837.0
1576668595920,6186384.0
1576668595974,6194842.0
1576668596022,6124037.0
1576668596069,6342149.0
1576668596122,6429592.0
1576668596168,6466381.0
1576668596218,6596962.0
1576668596269,6546906.0
1576668596315,6554221.0
1576668596365,6506168.0
1576668596415,6486296.0
1576668596460,6501789.0
1576668596514,6519554.0
1576668596558,6510352.0
1576668596615,6486728.0
1576668596662,6486490.0
1576668596710,6466693.0
1576668596764,6446152.0
1576668596809,6427840.0
1576668596860,6409096.0
1576668596908,6392221.0
1576668596959,6378168.0
1576668597006,6366117.0
1576668597054,6357925.0
1576668597105,6332904.0
1576668597156,6329240.0
1576668597204,6326256.0
1576668597255,6309680.0
1576668597301,6261357.0
1576668597353,6239112.0
1576668597405,6234690.0
1576668597451,6233680.0
1576668597505,6240032.0
1576668597549,6236024.0
1576668597599,6218840.0
1576668597648,6183741.0
1576668597699,6176202.0
1576668597747,6177584.0
1576668597797,6166320.0
1576668597845,6167210.0
1576668597896,6166986.0
1576668597944,6171290.0
1576668597995,6172640.0
1576668598041,6157858.0
1576668598093,6146061.0
1576668598144,6135925.0
1576668598187,6136994.0
1576668598234,6138210.0
1576668598284,6133077.0
1576668598336,6126829.0
1576668598383,6120506.0
1576668598434,6120312.0
1576668598483,6109597.0
1576668598530,6104760.0
1576668598579,6101258.0
1576668598628,6099210.0
1576668598679,6096568.0
1576668598735,6077378.0
1576668598785,6032621.0
1576668598824,5995266.0
1576668598876,5971357.0
1576668598923,5956576.0
1576668598973,5950090.0
1576668599023,5936528.0
1576668599071,5932045.0
1576668599120,5929848.0
1576668599171,5924594.0
1576668599225,5924744.0
1576668599268,5927178.0
1576668599320,5928157.0
1576668599366,5932682.0
1576668599415,5933173.0
1576668599467,5919565.0
1576668599517,5909442.0
1576668599565,5908850.0
1576668599615,5909858.0
1576668599663,5903656.0
1576668599714,5912352.0
1576668599763,5916090.0
1576668599812,5915853.0
1576668599861,5913346.0
1576668599917,5911061.0
1576668599964,5919045.0
1576668600007,5926168.0
1576668600063,5929360.0
1576668600110,5925605.0
1576668600160,5918037.0
1576668600209,5912826.0
1576668600260,5918213.0
1576668600303,5914770.0
1576668600355,5915274.0
1576668600406,5923008.0
1576668600458,5921093.0
1576668600503,5924106.0
1576668600556,5931170.0
1576668600600,5936453.0
1576668600654,5942240.0
1576668600704,5943501.0
1576668600745,5960525.0
1576668600802,5964176.0
1576668600843,5964917.0
1576668600903,5956130.0
1576668600943,5952437.0
1576668600996,5956696.0
1576668601044,5963760.0
1576668601097,5965525.0
1576668601146,5965824.0
1576668601189,5967618.0
1576668601244,5977605.0
1576668601292,5981168.0
1576668601343,5980648.0
1576668601385,5980560.0
1576668601440,5990117.0
1576668601488,5983853.0
1576668601536,5992802.0
1576668601583,6002552.0
1576668601639,6024309.0
1576668601684,6027485.0
1576668601737,6083730.0
1576668601785,6227714.0
1576668601833,6299512.0
1576668601884,6353933.0
1576668601927,6444744.0
1576668601984,6436906.0
1576668602024,6455770.0
1576668602081,6475464.0
1576668602123,6460920.0
1576668602178,6572474.0
1576668602226,6662602.0
1576668602279,6594869.0
1576668602326,6597304.0
1576668602374,6589112.0
1576668602425,6627741.0
1576668602468,6737504.0
1576668602523,6806050.0
1576668602566,6845482.0
1576668602625,6909194.0
1576668602664,6967888.0
1576668602719,7024400.0
1576668602765,7040429.0
1576668602818,7044538.0
1576668602867,7034834.0
1576668602918,7026717.0
1576668602966,7023480.0
1576668603015,7039389.0
1576668603065,7041720.0
1576668603111,7056797.0
1576668603164,7059589.0
1576668603205,7061533.0
1576668603256,7058978.0
1576668603306,7062216.0
1576668603355,7059290.0
1576668603408,7060493.0
1576668603456,7076328.0
1576668603502,7142533.0
1576668603558,7210546.0
1576668603600,7255898.0
1576668603652,7271437.0
1576668603696,7264730.0
1576668603747,7270917.0
1576668603803,7206672.0
1576668603844,7165832.0
1576668603894,7129458.0
1576668603946,7200456.0
1576668603992,7170656.0
1576668604047,7204552.0
1576668604097,7184485.0
1576668604146,7180954.0
1576668604193,7199490.0
1576668604246,7227184.0
1576668604289,7248242.0
1576668604346,7247826.0
1576668604396,7255469.0
1576668604441,7275637.0
1576668604493,7309312.0
1576668604543,7316538.0
1576668604587,7315840.0
1576668604638,7340282.0
1576668604687,7349261.0
1576668604737,7359248.0
1576668604786,7378794.0
1576668604827,7392285.0
1576668604887,7382728.0
1576668604926,7403208.0
1576668604985,7412720.0
1576668605025,7430840.0
1576668605083,7439714.0
1576668605127,7393754.0
1576668605181,7416237.0
1576668605229,7413789.0
1576668605279,7421536.0
1576668605327,7411088.0
1576668605376,7430989.0
1576668605427,7419933.0
1576668605468,7417157.0
1576668605525,7411933.0
1576668605566,7422440.0
1576668605625,7429861.0
1576668605670,7397418.0
1576668605722,7449109.0
1576668605771,7394746.0
1576668605821,7414410.0
1576668605869,7427397.0
1576668605917,7436493.0
1576668605966,7465344.0
1576668606010,7459424.0
1576668606065,7470213.0
1576668606108,7478405.0
1576668606164,7477989.0
1576668606210,7487546.0
1576668606263,7489669.0
1576668606314,7514184.0
1576668606364,7508501.0
1576668606412,7521293.0
1576668606458,7527229.0
1576668606507,7533106.0
1576668606556,7548288.0
1576668606599,7547738.0
1576668606650,7564360.0
1576668606705,7565013.0
1576668606748,7577896.0
1576668606801,7580240.0
1576668606854,7597128.0
1576668606899,7587333.0
1576668606951,7603138.0
1576668607001,7611688.0
1576668607049,7612354.0
1576668607097,7610322.0
1576668607148,7614061.0
1576668607192,7613645.0
1576668607246,7610634.0
1576668607288,7625728.0
1576668607344,7607842.0
1576668607391,7619968.0
1576668607435,7617432.0
1576668607492,7626824.0
1576668607536,7622136.0
1576668607590,7618901.0
1576668607633,7623381.0
1576668607688,7635594.0
1576668607732,7639573.0
1576668607788,7650304.0
1576668607828,7655600.0
1576668607891,7654176.0
1576668607930,7664936.0
1576668607984,7662768.0
1576668608031,7659682.0
1576668608082,7661152.0
1576668608132,7664920.0
1576668608180,7665173.0
1576668608230,7667770.0
1576668608276,7665781.0
1576668608326,7660706.0
1576668608370,7665989.0
1576668608428,7668882.0
1576668608471,7669402.0
1576668608525,7672162.0
1576668608573,7675546.0
1576668608623,7677298.0
1576668608672,7680237.0
1576668608721,7683442.0
1576668608766,7691173.0
1576668608815,7689645.0
1576668608860,7685045.0
1576668608912,7690416.0
1576668608960,7691456.0
1576668609012,7695298.0
1576668609060,7700181.0
1576668609113,7704618.0
1576668609164,7700730.0
1576668609213,7694928.0
1576668609261,7717752.0
1576668609311,7729181.0
1576668609362,7728261.0
1576668609411,7731466.0
1576668609451,7732178.0
1576668609508,7737178.0
1576668609551,7731258.0
1576668609600,7734714.0
1576668609653,7739317.0
1576668609706,7740637.0
1576668609747,7742760.0
1576668609803,7736274.0
1576668609853,7743621.0
1576668609894,7748458.0
1576668609952,7759618.0
1576668609995,7762082.0
1576668610049,7761770.0
1576668610090,7765776.0
1576668610147,7768984.0
1576668610192,7773658.0
1576668610246,7774621.0
1576668610293,7780485.0
1576668610342,7781552.0
1576668610395,7776581.0
1576668610444,7782533.0
1576668610493,7778882.0
1576668610541,7778778.0
1576668610590,7783912.0
1576668610634,7781226.0
1576668610689,7784178.0
1576668610733,7777442.0
1576668610787,7773626.0
1576668610836,7772024.0
1576668610889,7783704.0
1576668610936,7785472.0
1576668610978,7779936.0
1576668611034,7778570.0
1576668611077,7786392.0
1576668611132,7800994.0
1576668611173,7798352.0
1576668611230,7796704.0
1576668611275,7808384.0
1576668611330,7798040.0
1576668611377,7802626.0
1576668611427,7812912.0
1576668611475,7817482.0
1576668611523,7830794.0
1576668611575,7830258.0
1576668611623,7837992.0
1576668611674,7831149.0
1576668611720,7831210.0
1576668611773,7834237.0
1576668611815,7837085.0
1576668611865,7835765.0
1576668611917,7823952.0
1576668611971,7835616.0
1576668612016,7835261.0
1576668612067,7837917.0
1576668612120,7840677.0
1576668612165,7835677.0
1576668612216,7842280.0
1576668612262,7842949.0
1576668612313,7851050.0
1576668612356,7838957.0
1576668612411,7848173.0
1576668612455,7854538.0
1576668612510,7851066.0
1576668612556,7851362.0
1576668612602,7849018.0
1576668612657,7846584.0
1576668612707,7859229.0
1576668612754,7856186.0
1576668612803,7863458.0
1576668612854,7860520.0
1576668612898,7868757.0
1576668612956,7864274.0
1576668612997,7869469.0
1576668613054,7872925.0
1576668613098,7870032.0
1576668613151,7879472.0
1576668613199,7876813.0
1576668613246,7882824.0
1576668613299,7870032.0
1576668613342,7873698.0
1576668613390,7867525.0
1576668613439,7871754.0
1576668613489,7871176.0
1576668613540,7873194.0
1576668613588,7868488.0
1576668613635,7859912.0
1576668613684,7875106.0
1576668613742,7863160.0
1576668613791,7858722.0
1576668613841,7861008.0
1576668613887,7879160.0
1576668613930,7875954.0
1576668613982,7862642.0
1576668614032,7855962.0
1576668614080,7850338.0
1576668614130,7859600.0
1576668614178,7849418.0
1576668614234,7863250.0
1576668614278,7865269.0
1576668614333,7856928.0
1576668614380,7824738.0
1576668614429,7841701.0
1576668614480,7830600.0
1576668614521,7831773.0
1576668614579,7873669.0
1576668614624,7878552.0
1576668614678,7877482.0
1576668614717,7899016.0
1576668614775,7915429.0
1576668614821,7904493.0
1576668614868,7914688.0
1576668614918,7919034.0
1576668614966,7926264.0
1576668615018,7910605.0
1576668615068,7910800.0
1576668615117,7899802.0
1576668615164,7910770.0
1576668615218,7916616.0
1576668615259,7919600.0
1576668615313,7918517.0
1576668615366,7925386.0
1576668615411,7917877.0
1576668615458,7916378.0
1576668615513,7928282.0
1576668615559,7917981.0
1576668615603,7918664.0
1576668615656,7934440.0
1576668615707,7922538.0
1576668615756,7926234.0
1576668615805,7922864.0
1576668615855,7931501.0
1576668615898,7926826.0
1576668615951,7933832.0
1576668615995,7932482.0
1576668616053,7931117.0
1576668616095,7931221.0
1576668616152,7931221.0
1576668616200,7937944.0
1576668616248,7936517.0
1576668616296,7934976.0
1576668616348,7941978.0
1576668616401,7944696.0
1576668616441,7947232.0
1576668616496,7943064.0
1576668616540,7943405.0
1576668616595,7944946.0
1576668616639,7946402.0
1576668616693,7940688.0
1576668616739,7937320.0
1576668616792,7951285.0
1576668616837,7937157.0
1576668616886,7958125.0
1576668616934,7959106.0
1576668616985,7962221.0
1576668617038,7957205.0
1576668617083,7972952.0
1576668617136,7967994.0
1576668617175,7977789.0
1576668617233,7975088.0
1576668617280,7973264.0
1576668617332,7985357.0
1576668617379,7993549.0
1576668617430,8020605.0
1576668617475,8015010.0
1576668617526,8022058.0
1576668617580,8027994.0
1576668617623,8026778.0
1576668617678,8018186.0
1576668617719,8015485.0
1576668617775,8014848.0
1576668617822,8016376.0
1576668617863,8011226.0
1576668617916,7988237.0
1576668617964,8015098.0
1576668618016,7951656.0
1576668618063,7987746.0
1576668618116,7946698.0
1576668618165,7952517.0
1576668618218,7942453.0
1576668618258,7968128.0
1576668618314,7974496.0
1576668618366,7977301.0
1576668618416,7998864.0
1576668618464,7979408.0
1576668618514,7977136.0
1576668618561,7985848.0
1576668618604,7972802.0
1576668618657,7969717.0
1576668618706,7969048.0
1576668618755,8003656.0
1576668618799,8010170.0
1576668618851,7994114.0
1576668618898,8001816.0
1576668618947,7978309.0
1576668619000,7998701.0
1576668619048,7990048.0
1576668619098,7991101.0
1576668619146,7985106.0
1576668619201,7995272.0
1576668619250,7972893.0
1576668619297,7991800.0
1576668619347,7998714.0
1576668619400,7991250.0
1576668619443,8017712.0
1576668619497,8009520.0
1576668619546,8007426.0
1576668619594,8010677.0
1576668619643,8007576.0
1576668619693,8009653.0
1576668619740,8019522.0
1576668619792,8015085.0
1576668619839,8051338.0
1576668619884,8030829.0
1576668619934,8036973.0
1576668619982,8036869.0
1576668620033,8001669.0
1576668620079,8053402.0
1576668620130,8047346.0
1576668620180,8022786.0
1576668620228,8046322.0
1576668620277,8048594.0
1576668620326,8026288.0
1576668620379,8052362.0
1576668620425,8016909.0
1576668620475,8012234.0
1576668620523,8019386.0
1576668620574,8014120.0
1576668620624,8028189.0
1576668620672,8023722.0
1576668620722,7929573.0
1576668620770,7917285.0
1576668620816,7975624.0
1576668620869,7733677.0
1576668620917,7657218.0
1576668620967,7839490.0
1576668621017,7643120.0
1576668621069,7687714.0
1576668621119,7637837.0
1576668621161,7567701.0
1576668621215,7555946.0
1576668621265,7581829.0
1576668621314,7513576.0
1576668621369,7422098.0
1576668621414,7404781.0
1576668621464,7386229.0
1576668621512,7283176.0
1576668621563,7239768.0
1576668621606,7161885.0
1576668621663,7075882.0
1576668621703,7026968.0
1576668621759,6988101.0
1576668621803,6945584.0
1576668621858,6801184.0
1576668621906,6687832.0
1576668621958,6582880.0
1576668622005,6478802.0
1576668622055,6384682.0
1576668622104,6307320.0
1576668622149,6212072.0
1576668622203,6126456.0
1576668622246,6054525.0
1576668622299,5980248.0
1576668622344,5920098.0
1576668622397,5866122.0
1576668622444,5840138.0
1576668622498,5778328.0
1576668622544,5749002.0
1576668622588,5728210.0
1576668622647,5653845.0
1576668622693,5564458.0
1576668622743,5507144.0
1576668622791,5436949.0
1576668622840,5388866.0
1576668622887,5322989.0
1576668622941,5270824.0
1576668622983,5218200.0
1576668623039,5180146.0
1576668623085,5154962.0
1576668623139,5110976.0
1576668623186,5070578.0
1576668623234,5056882.0
1576668623284,5038480.0
1576668623326,5016709.0
1576668623379,4974664.0
1576668623423,4904973.0
1576668623483,4840818.0
1576668623524,4803152.0
1576668623574,4752485.0
1576668623624,4720861.0
1576668623674,4685066.0
1576668623726,4653602.0
1576668623773,4631893.0
1576668623827,4619040.0
1576668623874,4363446.0
1576668623918,3632507.0
1576668623966,4219741.0
1576668624014,4215974.0
1576668624063,4215261.0
1576668624113,4215753.0
1576668624165,4180307.0
1576668624213,4149359.0
1576668624263,4127967.0
1576668624314,4120945.0
1576668624358,4108145.0
1576668624418,4105362.0
1576668624465,4100882.0
1576668624509,4103377.0
1576668624565,4109966.0
1576668624606,4116024.0
1576668624666,4122053.0
1576668624705,4127485.0
1576668624762,4135635.0
1576668624813,4148618.0
1576668624861,4153868.0
1576668624911,4144408.0
1576668624960,4117150.0
1576668625007,4104976.0
1576668625055,4102105.0
1576668625105,4108810.0
1576668625148,4107095.0
1576668625204,4112497.0
1576668625245,4116274.0
1576668625300,4125578.0
1576668625353,4137888.0
1576668625403,4152539.0
1576668625447,4170666.0
1576668625498,4191461.0
1576668625543,4206661.0
1576668625591,4222205.0
1576668625642,4241664.0
1576668625690,4238283.0
1576668625745,4221551.0
1576668625786,4212392.0
1576668625841,4216504.0
1576668625889,4220040.0
1576668625942,4222659.0
1576668625988,4228746.0
1576668626040,4236174.0
1576668626089,4248502.0
1576668626138,4260473.0
1576668626187,4274864.0
1576668626235,4279267.0
1576668626285,4288619.0
1576668626328,4312641.0
1576668626387,4340642.0
1576668626426,4347268.0
1576668626484,4362871.0
1576668626529,4405802.0
1576668626581,4462390.0
1576668626629,4545794.0
1576668626680,4627953.0
1576668626728,4694627.0
1576668626777,4757869.0
1576668626825,4760586.0
1576668626876,4727905.0
1576668626925,4698382.0
1576668626966,4662802.0
1576668627023,4628368.0
1576668627066,4632269.0
1576668627123,4630276.0
1576668627172,4629534.0
1576668627220,4616019.0
1576668627269,4575526.0
1576668627319,4562505.0
1576668627367,4557795.0
1576668627412,4563370.0
1576668627458,4577771.0
1576668627507,4556956.0
1576668627558,4542181.0
1576668627610,4544483.0
1576668627656,4558604.0
1576668627710,4573765.0
1576668627760,4579803.0
1576668627810,4586776.0
1576668627861,4599058.0
1576668627913,4604808.0
1576668627951,4583954.0
1576668627998,4542181.0
1576668628053,4518111.0
1576668628098,4511666.0
1576668628146,4529554.0
1576668628196,4530527.0
1576668628249,4538020.0
1576668628295,4540428.0
1576668628349,4532299.0
1576668628395,4523379.0
1576668628441,4530862.0
1576668628492,4539320.0
1576668628541,4536632.0
1576668628593,4538463.0
1576668628641,4524737.0
1576668628692,4516819.0
1576668628745,4514759.0
1576668628791,4515827.0
1576668628840,4529822.0
1576668628892,4534351.0
1576668628933,4537114.0
1576668628987,4559876.0
1576668629033,4547277.0
1576668629083,4530777.0
1576668629135,4518438.0
1576668629182,4515905.0
1576668629233,4519180.0
1576668629286,4536517.0
1576668629333,4541458.0
1576668629380,4544869.0
1576668629432,4541661.0
1576668629481,4552246.0
1576668629531,4561879.0
1576668629581,4563159.0
1576668629630,4553565.0
1576668629674,4548104.0
1576668629728,4571357.0
1576668629771,4561127.0
1576668629824,4574486.0
1576668629870,4580112.0
1576668629927,4587780.0
1576668629974,4651763.0
1576668630023,4743123.0
1576668630074,4875881.0
1576668630122,5069850.0
1576668630172,5239690.0
1576668630219,5389159.0
1576668630269,5456101.0
1576668630313,5566061.0
1576668630367,5686489.0
1576668630410,5749849.0
1576668630467,5771625.0
1576668630513,5816510.0
1576668630566,5786083.0
1576668630612,5792902.0
1576668630663,5803282.0
1576668630713,5782375.0
1576668630761,5806108.0
1576668630811,5797380.0
1576668630858,5812711.0
1576668630910,5838774.0
1576668630953,5813888.0
1576668631008,5785394.0
1576668631052,5822063.0
1576668631105,5904662.0
1576668631154,5933980.0
1576668631205,5929549.0
1576668631255,5928179.0
1576668631301,5910020.0
1576668631355,5967132.0
1576668631400,5966986.0
1576668631450,6015640.0
1576668631493,6045309.0
1576668631548,6100725.0
1576668631592,6155702.0
1576668631647,6175240.0
1576668631713,6207171.0
1576668631754,6234014.0
1576668631793,6226031.0
1576668631853,6207782.0
1576668631894,6197786.0
1576668631934,6181786.0
1576668631991,6176743.0
1576668632033,6193229.0
1576668632089,6177513.0
1576668632134,6178440.0
1576668632188,6155804.0
1576668632235,6139725.0
1576668632285,6116262.0
1576668632336,6114226.0
1576668632382,6116262.0
1576668632434,6157884.0
1576668632476,6181335.0
1576668632533,6249935.0
1576668632574,6297945.0
1576668632631,6387543.0
1576668632675,6468207.0
1576668632728,6547527.0
1576668632778,6573466.0
1576668632826,6610009.0
1576668632877,6647482.0
1576668632919,6691297.0
1576668632966,6756573.0
1576668633014,7178754.0
1576668633064,7319544.0
1576668633115,7345075.0
1576668633162,7357327.0
1576668633216,7341655.0
1576668633270,7324431.0
1576668633316,7341227.0
1576668633367,7398228.0
1576668633418,7453765.0
1576668633465,7473594.0
1576668633516,7518330.0
1576668633559,7581688.0
1576668633609,7630896.0
1576668633657,7653734.0
1576668633712,7683340.0
1576668633756,7750912.0
1576668633811,7720537.0
1576668633859,7654417.0
1576668633905,7707033.0
1576668633951,7688839.0
1576668634000,7685447.0
1576668634056,7804994.0
1576668634098,7745712.0
1576668634154,7719042.0
1576668634198,7734328.0
1576668634252,7749017.0
1576668634298,7764177.0
1576668634350,7744814.0
1576668634399,7711633.0
1576668634445,7674094.0
1576668634496,7673623.0
1576668634544,7667169.0
1576668634597,7650045.0
1576668634638,7656627.0
1576668634687,7625553.0
1576668634738,7611548.0
1576668634788,7586987.0
1576668634838,7584110.0
1576668634882,7565204.0
1576668634936,7550044.0
1576668634988,7556042.0
1576668635035,7595023.0
1576668635086,7596546.0
1576668635135,7582612.0
1576668635179,7551869.0
1576668635237,7560002.0
1576668635276,7551226.0
1576668635334,7554775.0
1576668635376,7545387.0
1576668635431,7548449.0
1576668635479,7547038.0
1576668635528,7552010.0
1576668635577,7554959.0
1576668635628,7559989.0
1576668635675,7564633.0
1576668635719,7567298.0
1576668635769,7560373.0
1576668635817,7559562.0
1576668635875,7577512.0
1576668635916,7597644.0
1576668635972,7640826.0
1576668636020,7658777.0
1576668636070,7672312.0
1576668636119,7682457.0
1576668636168,7673978.0
1576668636215,7637606.0
1576668636264,7602432.0
1576668636319,7548377.0
1576668636357,7457797.0
1576668636416,7368440.0
1576668636457,7288983.0
1576668636514,7273512.0
1576668636563,7276689.0
1576668636606,7171046.0
1576668636662,7160803.0
1576668636711,7212520.0
1576668636755,7222579.0
1576668636804,7186677.0
1576668636855,7180321.0
1576668636900,7189939.0
1576668636957,7149022.0
1576668636998,7177815.0
1576668637055,7189811.0
1576668637096,7188272.0
1576668637153,7186562.0
1576668637196,7211310.0
1576668637252,7250088.0
1576668637300,7253166.0
1576668637350,7245616.0
1576668637397,7128634.0
1576668637447,7130872.0
1576668637496,7109870.0
1576668637544,7145830.0
1576668637598,7202219.0
1576668637643,7282529.0
1576668637695,7302077.0
1576668637736,7358822.0
1576668637794,7324544.0
1576668637843,7279966.0
1576668637891,7256215.0
1576668637940,7228162.0
1576668637990,7267228.0
1576668638037,7330841.0
1576668638087,7405181.0
1576668638135,7362682.0
1576668638184,7251171.0
1576668638238,7195038.0
1576668638283,7189982.0
1576668638335,7195653.0
1576668638379,7207976.0
1576668638433,7374950.0
1576668638477,7328619.0
1576668638531,7447024.0
1576668638580,7407503.0
1576668638628,7388185.0
1576668638678,7424430.0
1576668638721,7267043.0
1576668638772,7312192.0
1576668638820,7392460.0
1576668638876,7407390.0
1576668638920,7432422.0
1576668638965,7352468.0
1576668639026,7338278.0
1576668639065,7222906.0
1576668639120,7240473.0
1576668639170,7278625.0
1576668639219,7298385.0
1576668639266,7338905.0
1576668639316,7370007.0
1576668639361,7455531.0
1576668639418,7430940.0
1576668639460,7385948.0
1576668639514,7388613.0
1576668639565,7308259.0
1576668639606,7356884.0
1576668639661,7391833.0
1576668639710,7429657.0
1576668639753,7432394.0
1576668639803,7389739.0
1576668639851,7311751.0
1576668639900,7281533.0
1576668639953,7325342.0
1576668640001,7342182.0
1576668640052,7370475.0
1576668640105,7413829.0
1576668640155,7447024.0
1576668640203,7452083.0
1576668640252,7431239.0
1576668640300,7471887.0
1576668640350,7312547.0
1576668640396,7339217.0
1576668640446,7398200.0
1576668640495,7453537.0
1576668640540,7451228.0
1576668640597,7443407.0
1576668640644,7375121.0
1576668640695,7308902.0
1576668640745,7317818.0
1576668640793,7333934.0
1576668640835,7352752.0
1576668640883,7390978.0
1576668640935,7393571.0
1576668640984,7484011.0
1576668641033,7419486.0
1576668641080,7491420.0
1576668641133,7338350.0
1576668641180,7321681.0
1576668641231,7376601.0
1576668641281,7454689.0
1576668641328,7491688.0
1576668641377,7452267.0
1576668641426,7403586.0
1576668641476,7406307.0
1576668641524,7277957.0
1576668641575,7293898.0
1576668641623,7391833.0
1576668641673,7370135.0
1576668641720,7405324.0
1576668641771,7432079.0
1576668641821,7437309.0
1576668641867,7444034.0
1576668641917,7425684.0
1576668641966,7281461.0
1576668642017,7327749.0
1576668642065,7341711.0
1576668642116,7442296.0
1576668642164,7457996.0
1576668642214,7406364.0
1576668642263,7390494.0
1576668642312,7247482.0
1576668642363,7265548.0
1576668642411,7297745.0
1576668642459,7274068.0
1576668642508,7373212.0
1576668642555,7361131.0
1576668642603,7381076.0
1576668642654,7418360.0
1576668642702,7339317.0
1576668642752,7235642.0
1576668642803,7319457.0
1576668642853,7314129.0
1576668642903,7400921.0
1576668642953,7384509.0
1576668643004,7280279.0
1576668643056,7215155.0
1576668643104,7252142.0
1576668643151,7279680.0
1576668643203,7316807.0
1576668643246,7359150.0
1576668643301,7456258.0
1576668643342,7463708.0
1576668643398,7417164.0
1576668643445,7369891.0
1576668643495,7314813.0
1576668643546,7371645.0
1576668643590,7438336.0
1576668643645,7446297.0
1576668643694,7419143.0
1576668643743,7340544.0
1576668643793,7338250.0
1576668643842,7313218.0
1576668643883,7358223.0
1576668643942,7415938.0
1576668643984,7460047.0
1576668644037,7516608.0
1576668644084,7542607.0
1576668644138,7505807.0
1576668644186,7557324.0
1576668644236,7432693.0
1576668644284,7438576.0
1576668644327,7486645.0
1576668644384,7547381.0
1576668644425,7577812.0
1576668644482,7543933.0
1576668644523,7462796.0
1576668644578,7396162.0
1576668644626,7403371.0
1576668644671,7431610.0
1576668644728,7436482.0
1576668644771,7492331.0
1576668644825,7564149.0
1576668644869,7658009.0
1576668644924,7600151.0
1576668644967,7608757.0
1576668645020,7558123.0
1576668645063,7488883.0
1576668645122,7537251.0
1576668645166,7603842.0
1576668645219,7603543.0
1576668645267,7571614.0
1576668645317,7482342.0
1576668645367,7434032.0
1576668645408,7424302.0
1576668645465,7432535.0
1576668645506,7461114.0
1576668645563,7496504.0
1576668645605,7579763.0
1576668645664,7650058.0
1576668645706,7619443.0
1576668645762,7536168.0
1576668645809,7491020.0
1576668645850,7480847.0
1576668645900,7487815.0
1576668645955,7539174.0
1576668646005,7582115.0
1576668646051,7599027.0
1576668646104,7504268.0
1576668646145,7468823.0
1576668646202,7422364.0
1576668646245,7445857.0
1576668646302,7496931.0
1576668646348,7592102.0
1576668646399,7580334.0
1576668646447,7661813.0
1576668646490,7669050.0
1576668646546,7639116.0
1576668646590,7630041.0
1576668646645,7473282.0
1576668646686,7529231.0
1576668646744,7594524.0
1576668646788,7632235.0
1576668646841,7581301.0
1576668646888,7518773.0
1576668646940,7432593.0
1576668646990,7444659.0
1576668647040,7483911.0
1576668647086,7468124.0
1576668647134,7479393.0
1576668647185,7572925.0
1576668647226,7750871.0
1576668647284,7625369.0
1576668647325,7699453.0
1576668647379,7709555.0
1576668647429,7574835.0
1576668647482,7518758.0
1576668647530,7516480.0
1576668647581,7575575.0
1576668647628,7536652.0
1576668647673,7485406.0
1576668647727,7481702.0
1576668647771,7476902.0
1576668647825,7498926.0
1576668647870,7490506.0
1576668647925,7540485.0
1576668647968,7581928.0
1576668648024,7677854.0
1576668648069,7583710.0
1576668648122,7632335.0
1576668648170,7527137.0
1576668648221,7481290.0
1576668648269,7557680.0
1576668648313,7607703.0
1576668648368,7634017.0
1576668648411,7611635.0
1576668648465,7539829.0
1576668648508,7496064.0
1576668648562,7451171.0
1576668648615,7501250.0
1576668648664,7562368.0
1576668648710,7587159.0
1576668648761,7684664.0
1576668648811,7696376.0
1576668648860,7635271.0
1576668648909,7665018.0
1576668648953,7493583.0
1576668649006,7601489.0
1576668649049,7602088.0
1576668649105,7653734.0
1576668649150,7618688.0
1576668649205,7550287.0
1576668649252,7463109.0
1576668649303,7454405.0
1576668649342,7520496.0
1576668649392,7531038.0
1576668649440,7577029.0
1576668649491,7641139.0
1576668649539,7745996.0
1576668649592,7671229.0
1576668649646,7704980.0
1576668649689,7518487.0
1576668649745,7518374.0
1576668649793,7565217.0
1576668649844,7625469.0
1576668649892,7674035.0
1576668649942,7614725.0
1576668649990,7581288.0
1576668650038,7474265.0
1576668650088,7478668.0
1576668650131,7539873.0
1576668650187,7585333.0
1576668650230,7676416.0
1576668650286,7702970.0
1576668650330,7733903.0
1576668650385,7680647.0
1576668650431,7706746.0
1576668650483,7599910.0
1576668650532,7542039.0
1576668650579,7605565.0
1576668650630,7643648.0
1576668650671,7657267.0
1576668650728,7614796.0
1576668650771,7556142.0
1576668650827,7499453.0
1576668650871,7534330.0
1576668650926,7571486.0
1576668650972,7559406.0
1576668651022,7583111.0
1576668651072,7667240.0
1576668651120,7766371.0
1576668651171,7669806.0
1576668651214,7717760.0
1576668651268,7544104.0
1576668651311,7557411.0
1576668651367,7607587.0
1576668651411,7665459.0
1576668651465,7714967.0
1576668651513,7645941.0
1576668651562,7569408.0
1576668651609,7531553.0
1576668651655,7566415.0
1576668651703,7591191.0
1576668651754,7580876.0
1576668651810,7621122.0
1576668651853,7734215.0
1576668651907,7768665.0
1576668651955,7682129.0
1576668652006,7739159.0
1576668652055,7586488.0
1576668652103,7591703.0
1576668652154,7711577.0
1576668652202,7725283.0
1576668652252,7728916.0
1576668652300,7721221.0
1576668652350,7651768.0
1576668652392,7540869.0
1576668652448,7569891.0
1576668652492,7611706.0
1576668652546,7682882.0
1576668652593,7679493.0
1576668652645,7797242.0
1576668652688,7807787.0
1576668652738,7723473.0
1576668652786,7794536.0
1576668652840,7551513.0
1576668652890,7596277.0
1576668652934,7654960.0
1576668652988,7749373.0
1576668653035,7758963.0
1576668653087,7702830.0
1576668653135,7658222.0
1576668653186,7538362.0
1576668653228,7545912.0
1576668653282,7566955.0
1576668653333,7665886.0
1576668653377,7687997.0
1576668653432,7713472.0
1576668653474,7796974.0
1576668653530,7732193.0
1576668653576,7794693.0
1576668653628,7569520.0
1576668653676,7663864.0
1576668653726,7651840.0
1576668653776,7721221.0
1576668653821,7717248.0
1576668653874,7714083.0
1576668653916,7656071.0
1576668653969,7541882.0
1576668654015,7580961.0
1576668654064,7660986.0
1576668654117,7647493.0
1576668654170,7697886.0
1576668654215,7776829.0
1576668654268,7746196.0
1576668654316,7768778.0
1576668654357,7543078.0
1576668654408,7602160.0
1576668654457,7610124.0
1576668654510,7660531.0
1576668654559,7710095.0
1576668654605,7675461.0
1576668654659,7678438.0
1576668654703,7624698.0
1576668654761,7562554.0
1576668654810,7577512.0
1576668654859,7673295.0
1576668654905,7645158.0
1576668654955,7691046.0
1576668655001,7744985.0
1576668655056,7743290.0
1576668655098,7764874.0
1576668655154,7544245.0
1576668655198,7606292.0
1576668655252,7582912.0
1576668655297,7676131.0
1576668655349,7719598.0
1576668655399,7689423.0
1576668655441,7639559.0
1576668655495,7548206.0
1576668655540,7602076.0
1576668655597,7561827.0
1576668655637,7565660.0
1576668655695,7637265.0
1576668655738,7694566.0
1576668655786,7728202.0
1576668655837,7701248.0
1576668655890,7743447.0
1576668655939,7597017.0
1576668655987,7576458.0
1576668656036,7629457.0
1576668656084,7725711.0
1576668656139,7752281.0
1576668656178,7669022.0
1576668656236,7622348.0
1576668656276,7514186.0
1576668656325,7555074.0
1576668656376,7584322.0
1576668656431,7640742.0
1576668656476,7661255.0
1576668656525,7694638.0
1576668656574,7748505.0
1576668656623,7729272.0
1576668656673,7778424.0
1576668656718,7535070.0
1576668656769,7549831.0
1576668656816,7619427.0
1576668656874,7650145.0
1576668656916,7670730.0
1576668656972,7632122.0
1576668657019,7627248.0
1576668657071,7510965.0
1576668657121,7577896.0
1576668657169,7583511.0
1576668657215,7528089.0
1576668657265,7582571.0
1576668657318,7570874.0
1576668657360,7568993.0
1576668657415,7566487.0
1576668657457,7625937.0
1576668657511,7629785.0
1576668657559,7614940.0
1576668657604,7517831.0
1576668657662,7549020.0
1576668657704,7526095.0
1576668657757,7469621.0
1576668657808,7457169.0
1576668657855,7478668.0
1576668657904,7533319.0
1576668657957,7475404.0
1576668658001,7468551.0
1576668658055,7472215.0
1576668658096,7459991.0
1576668658153,7457169.0
1576668658202,7435328.0
1576668658251,7447040.0
1576668658299,7413032.0
1576668658346,7388528.0
1576668658393,7370347.0
1576668658440,7334289.0
1576668658498,7304798.0
1576668658540,7284126.0
1576668658596,7304271.0
1576668658637,7299100.0
1576668658695,7270149.0
1576668658740,7245888.0
1576668658785,7194511.0
1576668658840,7173982.0
1576668658884,7150645.0
1576668658940,7162457.0
1576668658986,7152284.0
1576668659035,7091663.0
1576668659084,7061800.0
1576668659137,7056785.0
1576668659178,7078840.0
1576668659234,7006538.0
1576668659282,6942896.0
1576668659333,6921354.0
1576668659379,6907750.0
1576668659424,6888130.0
1576668659477,6890355.0
1576668659528,6881776.0
1576668659576,6865492.0
1576668659628,6848896.0
1576668659680,6839265.0
1576668659720,6834777.0
1576668659775,6837527.0
1576668659820,6829634.0
1576668659872,6807964.0
1576668659921,6788375.0
1576668659964,6802864.0
1576668660014,6791608.0
1576668660066,6791068.0
1576668660111,6773729.0
1576668660165,6708848.0
1576668660214,6680353.0
1576668660260,6712622.0
1576668660315,6684812.0
1576668660364,6647400.0
1576668660414,6605329.0
1576668660466,6574072.0
1576668660512,6593205.0
1576668660559,6586009.0
1576668660604,6591680.0
1576668660658,6533852.0
1576668660702,6503920.0
1576668660755,6523310.0
1576668660807,6509959.0
1576668660858,6472020.0
1576668660898,6492264.0
1576668660947,6532797.0
1576668660999,6524008.0
1576668661047,6517127.0
1576668661097,6563671.0
1576668661146,6671592.0
1576668661193,6549281.0
1576668661249,6626542.0
1576668661295,6517624.0
1576668661345,6639636.0
1576668661395,6632340.0
1576668661444,6675865.0
1576668661490,6681579.0
1576668661546,6728222.0
1576668661594,6708661.0
1576668661643,6725245.0
1576668661691,6770552.0
1576668661742,6740874.0
1576668661784,6733509.0
1576668661839,6760207.0
1576668661886,6762245.0
1576668661936,6761433.0
1576668661983,6708034.0
1576668662037,6727654.0
1576668662082,6729592.0
1576668662135,6717524.0
1576668662183,6717568.0
1576668662232,6700684.0
1576668662280,6694243.0
1576668662330,6725045.0
1576668662379,6717480.0
1576668662423,6712780.0
1576668662475,6796124.0
1576668662521,6704273.0
1576668662573,6768499.0
1576668662620,6840332.0
1576668662670,6857884.0
1576668662731,6843694.0
1576668662765,6786209.0
1576668662815,6702891.0
1576668662863,6699031.0
1576668662913,6728322.0
1576668662962,6772359.0
1576668663012,6861716.0
1576668663061,6900613.0
1576668663112,6967872.0
1576668663163,6951104.0
1576668663212,6902379.0
1576668663263,6898874.0
1576668663309,6834178.0
1576668663358,6851857.0
1576668663407,6898816.0
1576668663456,6940290.0
1576668663505,6912965.0
1576668663553,6863526.0
1576668663601,6836272.0
1576668663651,6858739.0
1576668663703,6874298.0
1576668663750,6901253.0
1576668663807,6917793.0
1576668663857,6950517.0
1576668663904,7043906.0
1576668663949,7098104.0
1576668663998,7003077.0
1576668664047,7010997.0
1576668664097,6937082.0
1576668664148,6972032.0
1576668664202,6998302.0
1576668664243,7029916.0
1576668664295,7044037.0
1576668664344,7030970.0
1576668664398,6986521.0
1576668664445,6973258.0
1576668664495,6969011.0
1576668664544,6987304.0
1576668664591,7010613.0
1576668664643,7095139.0
1576668664685,7137853.0
1576668664733,7181632.0
1576668664782,7129889.0
1576668664834,7194854.0
1576668664883,7045032.0
1576668664935,7133050.0
1576668664984,7122608.0
1576668665037,7209971.0
1576668665085,7180920.0
1576668665132,7110213.0
1576668665184,7062415.0
1576668665227,7012636.0
1576668665282,7024404.0
1576668665324,7053509.0
1576668665381,7074324.0
1576668665424,7104627.0
1576668665476,7124487.0
1576668665526,7223705.0
1576668665578,7204628.0
1576668665625,7169694.0
1576668665676,7181719.0
1576668665724,7115540.0
1576668665773,7121766.0
1576668665822,7184867.0
1576668665865,7223178.0
1576668665922,7200240.0
1576668665966,7175249.0
1576668666021,7155248.0
1576668666070,7079823.0
1576668666117,7137566.0
1576668666166,7156387.0
1576668666217,7197419.0
1576668666265,7206208.0
1576668666313,7281945.0
1576668666364,7327992.0
1576668666405,7249077.0
1576668666460,7304000.0
1576668666504,7180848.0
1576668666553,7171573.0
1576668666605,7245588.0
1576668666655,7265149.0
1576668666708,7215897.0
1576668666755,7211338.0
1576668666799,7172715.0
1576668666848,7115640.0
1576668666905,7171901.0
1576668666946,7188485.0
1576668667004,7243294.0
1576668667045,7300352.0
1576668667102,7357568.0
1576668667147,7316835.0
1576668667201,7309442.0
1576668667249,7208673.0
1576668667296,7170577.0
1576668667347,7185978.0
1576668667395,7249134.0
1576668667437,7248793.0
1576668667491,7248337.0
1576668667537,7234588.0
1576668667584,7194114.0
1576668667643,7171361.0
1576668667688,7175493.0
1576668667733,7149806.0
1576668667790,7158510.0
1576668667838,7259179.0
1576668667887,7172029.0
1576668667939,7264079.0
1576668667986,7248821.0
1576668668033,7267315.0
1576668668085,7163681.0
1576668668127,7210583.0
1576668668183,7178014.0
1576668668226,7252869.0
1576668668282,7257484.0
1576668668328,7237053.0
1576668668381,7199882.0
1576668668429,7014702.0
1576668668476,7036272.0
1576668668526,7056345.0
1576668668575,7108431.0
1576668668625,7169551.0
1576668668667,7215754.0
1576668668724,7264565.0
1576668668765,7288043.0
1576668668822,7321651.0
1576668668869,7283911.0
1576668668914,7172372.0
1576668668966,7223761.0
1576668669018,7258508.0
1576668669064,7258096.0
1576668669112,7239134.0
1576668669163,7185991.0
1576668669214,7122836.0
1576668669266,7119403.0
1576668669308,7124974.0
1576668669365,7186874.0
1576668669407,7223534.0
1576668669464,7237140.0
1576668669509,7285934.0
1576668669563,7259635.0
1576668669612,7279052.0
1576668669653,7194155.0
1576668669712,7194938.0
1576668669752,7184012.0
1576668669802,7241497.0
1576668669852,7255915.0
1576668669906,7230187.0
1576668669949,7206522.0
1576668670005,7144092.0
1576668670050,7106964.0
1576668670104,7120286.0
1576668670151,7178754.0
1576668670202,7203530.0
1576668670252,7216453.0
1576668670301,7272171.0
1576668670350,7271943.0
1576668670394,7257085.0
1576668670447,7169267.0
1576668670497,7215498.0
1576668670546,7235230.0
1576668670588,7294297.0
1576668670646,7276034.0
1576668670691,7274137.0
1576668670737,7214643.0
1576668670791,7285009.0
1576668670844,7188116.0
1576668670892,7226511.0
1576668670940,7230028.0
1576668670991,7264038.0
1576668671039,7288171.0
1576668671088,7350745.0
1576668671131,7371530.0
1576668671186,7389680.0
1576668671231,7347182.0
1576668671286,7340784.0
1576668671329,7285350.0
1576668671384,7277642.0
1576668671431,7267415.0
1576668671482,7253324.0
1576668671531,7280706.0
1576668671580,7229788.0
1576668671631,7251458.0
1576668671674,7229931.0
1576668671728,7240174.0
1576668671777,7288442.0
1576668671827,7354091.0
1576668671870,7412106.0
1576668671923,7346813.0
1576668671973,7384097.0
1576668672015,7326538.0
1576668672074,7235159.0
1576668672120,7303528.0
1576668672171,7354250.0
1576668672216,7364321.0
1576668672268,7346769.0
1576668672311,7317434.0
1576668672368,7225571.0
1576668672411,7283883.0
1576668672465,7271915.0
1576668672515,7311808.0
1576668672565,7317094.0
1576668672610,7368396.0
1576668672661,7407874.0
1576668672709,7432593.0
1576668672767,7309770.0
1576668672803,7240686.0
1576668672852,7271687.0
1576668672908,7308459.0
1576668672953,7343592.0
1576668673006,7391078.0
1576668673054,7378654.0
1576668673098,7342338.0
1576668673156,7235842.0
1576668673202,7261273.0
1576668673252,7384737.0
1576668673300,7364364.0
1576668673351,7477754.0
1576668673393,7512988.0
1576668673444,7525939.0
1576668673492,7458024.0
1576668673547,7320640.0
1576668673593,7331512.0
1576668673637,7401149.0
1576668673687,7464007.0
1576668673737,7479308.0
1576668673789,7454476.0
1576668673834,7438192.0
1576668673886,7332664.0
1576668673934,7324759.0
1576668673991,7427095.0
1576668674033,7425085.0
1576668674079,7491916.0
1576668674131,7514542.0
1576668674179,7497118.0
1576668674232,7460487.0
1576668674278,7355801.0
1576668674335,7354178.0
1576668674380,7398615.0
1576668674433,7525767.0
1576668674475,7486888.0
1576668674530,7475932.0
1576668674574,7466017.0
1576668674630,7307975.0
1576668674675,7307064.0
1576668674725,7350387.0
1576668674774,7397360.0
1576668674827,7433561.0
1576668674877,7483156.0
1576668674923,7531397.0
1576668674975,7489838.0
1576668675016,7478924.0
1576668675069,7335756.0
1576668675115,7347381.0
1576668675172,7429816.0
1576668675215,7499468.0
1576668675269,7528744.0
1576668675316,7482529.0
1576668675366,7461370.0
1576668675417,7329274.0
1576668675464,7349731.0
1576668675515,7359150.0
1576668675557,7436070.0
1576668675606,7426608.0
1576668675658,7491389.0
1576668675709,7479979.0
1576668675759,7452910.0
1576668675803,7422407.0
1576668675859,7366771.0
1576668675907,7415782.0
1576668675956,7510737.0
1576668676004,7516551.0
1576668676058,7403159.0
1576668676099,7358310.0
1576668676156,7314073.0
1576668676197,7347253.0
1576668676255,7402560.0
1576668676296,7445900.0
1576668676353,7473566.0
1576668676397,7532620.0
1576668676450,7517248.0
1576668676499,7420042.0
1576668676547,7359193.0
1576668676598,7425884.0
1576668676644,7508544.0
1576668676697,7463923.0
1576668676739,7550671.0
1576668676797,7436966.0
1576668676837,7429288.0
1576668676894,7354419.0
1576668676939,7405864.0
1576668676992,7437393.0
1576668677037,7523773.0
1576668677092,7574935.0
1576668677138,7642565.0
1576668677187,7565388.0
1576668677239,7485391.0
1576668677284,7492160.0
1576668677334,7442009.0
1576668677381,7439959.0
1576668677430,7555873.0
1576668677478,7570447.0
1576668677535,7559590.0
1576668677577,7497318.0
1576668677634,7417948.0
1576668677674,7452195.0
1576668677723,7454504.0
1576668677778,7454632.0
1576668677821,7507832.0
1576668677876,7629529.0
1576668677929,7754915.0
1576668677974,7673651.0
1576668678025,7665118.0
1576668678074,7517975.0
1576668678124,7512460.0
1576668678176,7567626.0
1576668678220,7651256.0
1576668678275,7654574.0
1576668678315,7608074.0
1576668678372,7603100.0
1576668678418,7572398.0
1576668678462,7484011.0
1576668678519,7490549.0
1576668678569,7514670.0
1576668678616,7593469.0
1576668678661,7633433.0
1576668678720,7689479.0
1576668678759,7711262.0
1576668678807,7630156.0
1576668678857,7703101.0
1576668678912,7597501.0
1576668678957,7595522.0
1576668679004,7646026.0
1576668679061,7650928.0
1576668679103,7613386.0
1576668679157,7598883.0
1576668679205,7539502.0
1576668679255,7490165.0
1576668679304,7504000.0
1576668679357,7577484.0
1576668679398,7670689.0
1576668679447,7685447.0
1576668679497,7758848.0
1576668679547,7746995.0
1576668679599,7661427.0
1576668679645,7679009.0
1576668679696,7530127.0
1576668679750,7574051.0
1576668679796,7613829.0
1576668679843,7643648.0
1576668679895,7568381.0
1576668679941,7596874.0
1576668679996,7495208.0
1576668680036,7479052.0
1576668680094,7521822.0
1576668680142,7575662.0
1576668680191,7608271.0
1576668680238,7654745.0
1576668680290,7717061.0
1576668680336,7628062.0
1576668680386,7529999.0
1576668680434,7597573.0
1576668680484,7561984.0
1576668680537,7582056.0
1576668680579,7528988.0
1576668680635,7610892.0
1576668680683,7597701.0
1576668680733,7532549.0
1576668680787,7415910.0
1576668680831,7430556.0
1576668680879,7448706.0
1576668680930,7533447.0
1576668680978,7522519.0
1576668681025,7572270.0
1576668681075,7605137.0
1576668681123,7488855.0
1576668681177,7490764.0
1576668681222,7360744.0
1576668681275,7425725.0
1576668681324,7466728.0
1576668681372,7536496.0
1576668681419,7379665.0
1576668681471,7552197.0
1576668681519,7364293.0
1576668681560,7325271.0
1576668681617,7386690.0
1576668681663,7308902.0
1576668681719,7501419.0
1576668681760,7396262.0
1576668681809,7499540.0
1576668681862,7531138.0
1576668681913,7440842.0
1576668681962,7416837.0
1576668682012,7332579.0
1576668682059,7388001.0
1576668682109,7338990.0
1576668682156,7424801.0
1576668682206,7376532.0
1576668682255,7370063.0
1576668682302,7267371.0
1576668682359,7317734.0
1576668682402,7293857.0
1576668682454,7318661.0
1576668682505,7367741.0
1576668682544,7453109.0
1576668682600,7574192.0
1576668682647,7556469.0
1576668682699,7500423.0
1576668682743,7466856.0
1576668682791,7389340.0
1576668682841,7411066.0
1576668682892,7441710.0
1576668682940,7512092.0
1576668682996,7466885.0
1576668683042,7464279.0
1576668683095,7352112.0
1576668683143,7340188.0
1576668683192,7411535.0
1576668683242,7402647.0
1576668683288,7424942.0
1576668683338,7508871.0
1576668683386,7577697.0
1576668683434,7578240.0
1576668683482,7452938.0
1576668683531,7640998.0
1576668683582,7428334.0
1576668683629,7429785.0
1576668683678,7412449.0
1576668683727,7480990.0
1576668683777,7478597.0
1576668683825,7402388.0
1576668683875,7401308.0
1576668683924,7371673.0
1576668683974,7417233.0
1576668684023,7426140.0
1576668684073,7471372.0
1576668684121,7536312.0
1576668684171,7596817.0
1576668684221,7553679.0
1576668684269,7534330.0
1576668684318,7478054.0
1576668684367,7427663.0
1576668684415,7511621.0
1576668684463,7585064.0
1576668684514,7580034.0
1576668684563,7563594.0
1576668684613,7487344.0
1576668684665,7464450.0
1576668684713,7414512.0
1576668684763,7414699.0
1576668684807,7439388.0
1576668684858,7511050.0
1576668684908,7563266.0
1576668684957,7587927.0
1576668685006,7495336.0
1576668685056,7504028.0
1576668685104,7418931.0
1576668685152,7427351.0
1576668685202,7537735.0
1576668685253,7509155.0
1576668685305,7523246.0
1576668685354,7488568.0
1576668685405,7482869.0
1576668685457,7472442.0
1576668685498,7460830.0
1576668685555,7485278.0
1576668685605,7538434.0
1576668685646,7537950.0
1576668685703,7587514.0
1576668685744,7578424.0
1576668685801,7508615.0
1576668685849,7510850.0
1576668685902,7447639.0
1576668685943,7453222.0
1576668685996,7490078.0
1576668686046,7571343.0
1576668686097,7528716.0
1576668686146,7545228.0
1576668686196,7427136.0
1576668686244,7430883.0
1576668686293,7472670.0
1576668686342,7461857.0
1576668686384,7537036.0
1576668686442,7516835.0
1576668686483,7582543.0
1576668686541,7536709.0
1576668686586,7512005.0
1576668686636,7509242.0
1576668686687,7458352.0
1576668686738,7502103.0
1576668686786,7552724.0
1576668686835,7588654.0
1576668686883,7602772.0
1576668686927,7548392.0
1576668686983,7477399.0
1576668687025,7445928.0
1576668687082,7477342.0
1576668687124,7491832.0
1576668687182,7527165.0
1576668687224,7559974.0
1576668687278,7693012.0
1576668687326,7592729.0
1576668687375,7652467.0
1576668687425,7492871.0
1576668687472,7491276.0
1576668687523,7528020.0
1576668687565,7587343.0
1576668687623,7635013.0
1576668687665,7635212.0
1576668687723,7564462.0
1576668687767,7537879.0
1576668687813,7467696.0
1576668687870,7484451.0
1576668687918,7592458.0
1576668687967,7627604.0
1576668688015,7677143.0
1576668688065,7662781.0
1576668688106,7623544.0
1576668688163,7539174.0
1576668688204,7472171.0
1576668688262,7541811.0
1576668688306,7580904.0
1576668688361,7580518.0
1576668688408,7592829.0
1576668688459,7517434.0
1576668688508,7448066.0
1576668688561,7515253.0
1576668688600,7622533.0
1576668688652,7507660.0
1576668688704,7658536.0
1576668688745,7678681.0
1576668688803,7624271.0
1576668688846,7600279.0
1576668688902,7491361.0
1576668688948,7436953.0
1576668688993,7511050.0
1576668689049,7592345.0
1576668689097,7645726.0
1576668689147,7628175.0
1576668689197,7559833.0
1576668689245,7471004.0
1576668689288,7415411.0
1576668689344,7436282.0
1576668689385,7528488.0
1576668689444,7528960.0
1576668689490,7562539.0
1576668689542,7663052.0
1576668689591,7593456.0
1576668689639,7582855.0
1576668689687,7485806.0
1576668689735,7478213.0
1576668689786,7533903.0
1576668689837,7587514.0
1576668689885,7563394.0
1576668689927,7592430.0
1576668689985,7563537.0
1576668690027,7431068.0
1576668690083,7480547.0
1576668690129,7478881.0
1576668690181,7537208.0
1576668690229,7590136.0
1576668690272,7606748.0
1576668690327,7700620.0
1576668690376,7620295.0
1576668690425,7658009.0
1576668690475,7606049.0
1576668690525,7458152.0
1576668690567,7516093.0
1576668690624,7582883.0
1576668690669,7597544.0
1576668690724,7603072.0
1576668690769,7597217.0
1576668690815,7481730.0
1576668690871,7432010.0
1576668690921,7532165.0
1576668690969,7600522.0
1576668691015,7653107.0
1576668691066,7681671.0
1576668691115,7615011.0
1576668691166,7604782.0
1576668691208,7603599.0
1576668691260,7538048.0
1576668691311,7582228.0
1576668691363,7545799.0
1576668691412,7550430.0
1576668691462,7555842.0
1576668691510,7540513.0
1576668691552,7470405.0
1576668691605,7401136.0
1576668691653,7393272.0
1576668691706,7537763.0
1576668691751,7517962.0
1576668691806,7538219.0
1576668691849,7589209.0
1576668691905,7542538.0
1576668691952,7550986.0
1576668691994,7396577.0
1576668692043,7405468.0
1576668692093,7488583.0
1576668692142,7579194.0
1576668692197,7546183.0
1576668692246,7549532.0
1576668692295,7499668.0
1576668692346,7343093.0
1576668692391,7345016.0
1576668692445,7371417.0
1576668692490,7459548.0
1576668692545,7502745.0
1576668692592,7543761.0
1576668692641,7574963.0
1576668692691,7517603.0
1576668692739,7548748.0
1576668692790,7351513.0
1576668692840,7398543.0
1576668692888,7428846.0
1576668692930,7501647.0
1576668692987,7479080.0
1576668693030,7505794.0
1576668693085,7432465.0
1576668693133,7336112.0
1576668693182,7354577.0
1576668693231,7395210.0
1576668693281,7473610.0
1576668693331,7472483.0
1576668693380,7539845.0
1576668693430,7487872.0
1576668693472,7479979.0
1576668693527,7530370.0
1576668693575,7335001.0
1576668693625,7370718.0
1576668693673,7466956.0
1576668693726,7500979.0
1576668693774,7500807.0
1576668693817,7476830.0
1576668693874,7400209.0
1576668693914,7380277.0
1576668693971,7346913.0
1576668694013,7432634.0
1576668694070,7398471.0
1576668694112,7448179.0
1576668694168,7479508.0
1576668694214,7469706.0
1576668694266,7410895.0
1576668694315,7397276.0
1576668694365,7301662.0
1576668694414,7417405.0
1576668694462,7560616.0
1576668694512,7645770.0
1576668694556,7616806.0
1576668694604,7547438.0
1576668694652,7325043.0
1576668694710,7355645.0
1576668694755,7388925.0
1576668694806,7507389.0
1576668694855,7528688.0
1576668694906,7585477.0
1576668694956,7595036.0
1576668695002,7440143.0
1576668695053,7395279.0
1576668695095,7335856.0
1576668695152,7425057.0
1576668695194,7523973.0
1576668695243,7549975.0
1576668695294,7520967.0
1576668695342,7512376.0
1576668695395,7433149.0
1576668695446,7307619.0
1576668695495,7308730.0
1576668695543,7424373.0
1576668695596,7441996.0
1576668695641,7471232.0
1576668695694,7533063.0
1576668695734,7494310.0
1576668695792,7496291.0
1576668695839,7351114.0
1576668695890,7358694.0
1576668695939,7351557.0
1576668695986,7441126.0
1576668696038,7394012.0
1576668696087,7361827.0
1576668696137,7333291.0
1576668696178,7244833.0
1576668696233,7294484.0
1576668696276,7331624.0
1576668696332,7409697.0
1576668696376,7416637.0
1576668696431,7481902.0
1576668696479,7479979.0
1576668696528,7381688.0
1576668696580,7467627.0
1576668696623,7330329.0
1576668696679,7363865.0
1576668696728,7381089.0
1576668696777,7441469.0
1576668696818,7405824.0
1576668696876,7381232.0
1576668696916,7270120.0
1576668696969,7294284.0
1576668697015,7332008.0
1576668697071,7336640.0
1576668697116,7371673.0
1576668697170,7390535.0
1576668697218,7439275.0
1576668697259,7385336.0
1576668697315,7341199.0
1576668697358,7305226.0
1576668697417,7322721.0
1576668697458,7344688.0
1576668697514,7448834.0
1576668697556,7396689.0
1576668697609,7375946.0
1576668697657,7345999.0
1576668697703,7234944.0
1576668697757,7277685.0
1576668697808,7323717.0
1576668697859,7364992.0
1576668697908,7412218.0
1576668697955,7420853.0
1576668697999,7422704.0
1576668698050,7350474.0
1576668698098,7394539.0
1576668698150,7261288.0
1576668698196,7318661.0
1576668698246,7387742.0
1576668698297,7400025.0
1576668698352,7390679.0
1576668698398,7366801.0
1576668698447,7247467.0
1576668698498,7225999.0
1576668698545,7244817.0
1576668698595,7312919.0
1576668698639,7329146.0
1576668698697,7373639.0
1576668698737,7435243.0
1576668698795,7347182.0
1576668698843,7302049.0
1576668698892,7242083.0
1576668698935,7209999.0
1576668698992,7250288.0
1576668699038,7308615.0
1576668699090,7311636.0
1576668699139,7313018.0
1576668699184,7264565.0
1576668699234,7160291.0
1576668699284,7145175.0
1576668699336,7198986.0
1576668699378,7268738.0
1576668699434,7305267.0
1576668699475,7361515.0
1576668699531,7345843.0
1576668699578,7315240.0
1576668699630,7271915.0
1576668699678,7091008.0
1576668699727,7175477.0
1576668699775,7251814.0
1576668699820,7273653.0
1576668699874,7342325.0
1576668699924,7345587.0
1576668699976,7334658.0
1576668700021,7356628.0
1576668700075,7286261.0
1576668700117,7296890.0
1576668700171,7349519.0
1576668700222,7388741.0
1576668700263,7375961.0
1576668700317,7388953.0
1576668700359,7357795.0
1576668700414,7100482.0
1576668700465,7157698.0
1576668700517,7145745.0
1576668700559,7163297.0
1576668700613,7102092.0
1576668700657,7103674.0
1576668700713,7019773.0
1576668700765,7009044.0
1576668700811,7036812.0
1576668700859,7106124.0
1576668700910,7196736.0
1576668700958,7177259.0
1576668701006,7211878.0
1576668701054,7240458.0
1576668701104,7228449.0
1576668701157,7184184.0
1576668701201,7134433.0
1576668701249,7168568.0
1576668701297,7210839.0
1576668701350,7230643.0
1576668701403,7165434.0
1576668701444,7069936.0
1576668701499,7058782.0
1576668701543,7175848.0
1576668701596,7138877.0
1576668701645,7161118.0
1576668701695,7250931.0
1576668701743,7340843.0
1576668701796,7411235.0
1576668701845,7337410.0
1576668701888,7366031.0
1576668701940,7297047.0
1576668701993,7265190.0
1576668702040,7316439.0
1576668702092,7394355.0
1576668702139,7356672.0
1576668702188,7351485.0
1576668702234,7263851.0
1576668702288,7198702.0
1576668702337,7241628.0
1576668702380,7275036.0
1576668702436,7266488.0
1576668702482,7347240.0
1576668702534,7470517.0
1576668702582,7458764.0
1576668702632,7452083.0
1576668702679,7395906.0
1576668702730,7218803.0
1576668702776,7257098.0
1576668702822,7336069.0
1576668702876,7403002.0
1576668702925,7382515.0
1576668702975,7360204.0
1576668703022,7319444.0
1576668703068,7259878.0
1576668703117,7252026.0
1576668703168,7304583.0
1576668703215,7377771.0
1576668703263,7366658.0
1576668703317,7349035.0
1576668703369,7418147.0
1576668703418,7388756.0
1576668703466,7389281.0
1576668703516,7258880.0
1576668703563,7305710.0
1576668703617,7315112.0
1576668703667,7396249.0
1576668703715,7330685.0
1576668703759,7421524.0
1576668703808,7252154.0
1576668703857,7251814.0
1576668703905,7261544.0
1576668703956,7286860.0
1576668704006,7382415.0
1576668704060,7397189.0
1576668704101,7469862.0
1576668704154,7466444.0
1576668704205,7405880.0
1576668704257,7315028.0
1576668704304,7311452.0
1576668704356,7349263.0
1576668704404,7422292.0
1576668704450,7414415.0
1576668704496,7367626.0
1576668704545,7291136.0
1576668704595,7280294.0
1576668704644,7291891.0
1576668704694,7344975.0
1576668704743,7392017.0
1576668704792,7392002.0
1576668704844,7461015.0
1576668704890,7409740.0
1576668704942,7398556.0
1576668704986,7286461.0
1576668705035,7382871.0
1576668705084,7409128.0
1576668705133,7447083.0
1576668705182,7452067.0
1576668705235,7414727.0
1576668705283,7235729.0
1576668705333,7269949.0
1576668705383,7327480.0
1576668705432,7393344.0
1576668705481,7405480.0
1576668705537,7483939.0
1576668705583,7492600.0
1576668705635,7394839.0
1576668705684,7418388.0
1576668705735,7310097.0
1576668705783,7402816.0
1576668705827,7446028.0
1576668705883,7471216.0
1576668705927,7363722.0
1576668705981,7254604.0
1576668706023,7274181.0
1576668706078,7361459.0
1576668706121,7371417.0
1576668706176,7350031.0
1576668706223,7442808.0
1576668706276,7560573.0
1576668706317,7565148.0
1576668706366,7428462.0
1576668706423,7504256.0
1576668706465,7402675.0
1576668706523,7445373.0
1576668706563,7486374.0
1576668706622,7519485.0
1576668706663,7450672.0
1576668706720,7404057.0
1576668706764,7362769.0
1576668706814,7370931.0
1576668706865,7423091.0
1576668706916,7406251.0
1576668706965,7416637.0
1576668707013,7554063.0
1576668707063,7607459.0
1576668707110,7538803.0
1576668707163,7580505.0
1576668707203,7464819.0
1576668707262,7464250.0
1576668707306,7503173.0
1576668707360,7563822.0
1576668707406,7548377.0
1576668707450,7474549.0
1576668707506,7385920.0
1576668707555,7391746.0
1576668707604,7431851.0
1576668707645,7416053.0
1576668707697,7418416.0
1576668707745,7484579.0
1576668707803,7603415.0
1576668707852,7614540.0
1576668707901,7510382.0
1576668707945,7518973.0
1576668707998,7498357.0
1576668708046,7508956.0
1576668708099,7632250.0
1576668708145,7622720.0
1576668708189,7557767.0
1576668708237,7498398.0
1576668708288,7418347.0
1576668708338,7447296.0
1576668708388,7479393.0
1576668708437,7520097.0
1576668708484,7538007.0
1576668708541,7664519.0
1576668708586,7703170.0
1576668708637,7624714.0
1576668708687,7682357.0
1576668708736,7515297.0
1576668708785,7525112.0
1576668708830,7569264.0
1576668708879,7680875.0
1576668708929,7634516.0
1576668708977,7550586.0
1576668709024,7437066.0
1576668709083,7429785.0
1576668709126,7484352.0
1576668709181,7516651.0
1576668709228,7652311.0
1576668709280,7692385.0
1576668709326,7762695.0
1576668709379,7723074.0
1576668709425,7713927.0
1576668709469,7705164.0
1576668709522,7533959.0
1576668709566,7571358.0
1576668709623,7708428.0
1576668709665,7675289.0
1576668709722,7647736.0
1576668709767,7617446.0
1576668709820,7508060.0
1576668709868,7499624.0
1576668709910,7494696.0
1576668709967,7505879.0
1576668710017,7577313.0
1576668710065,7638461.0
1576668710110,7734215.0
1576668710164,7740584.0
1576668710211,7604126.0
1576668710264,7669363.0
1576668710307,7500352.0
1576668710362,7556784.0
1576668710409,7616435.0
1576668710461,7675133.0
1576668710509,7648248.0
1576668710556,7623403.0
1576668710605,7563765.0
1576668710651,7493655.0
1576668710706,7525982.0
1576668710748,7545344.0
1576668710805,7623303.0
1576668710854,7650245.0
1576668710904,7732761.0
1576668710949,7716677.0
1576668711003,7641354.0
1576668711051,7723701.0
1576668711101,7557880.0
1576668711148,7620682.0
1576668711196,7640343.0
1576668711246,7648634.0
1576668711292,7666813.0
1576668711345,7623572.0
1576668711388,7547066.0
1576668711444,7525839.0
1576668711487,7561927.0
1576668711543,7575147.0
1576668711590,7663024.0
1576668711642,7706746.0
1576668711690,7782755.0
1576668711740,7705651.0
1576668711788,7687114.0
1576668711831,7546982.0
1576668711887,7567070.0
1576668711934,7678167.0
1576668711985,7727447.0
1576668712027,7743375.0
1576668712085,7689267.0
1576668712129,7631408.0
1576668712184,7617361.0
1576668712231,7557153.0
1576668712282,7547322.0
1576668712321,7625070.0
1576668712372,7693227.0
1576668712428,7723773.0
1576668712470,7731537.0
1576668712526,7689466.0
1576668712568,7688040.0
1576668712625,7620282.0
1576668712668,7604142.0
1576668712723,7656826.0
1576668712771,7735298.0
1576668712821,7618772.0
1576668712871,7643704.0
1576668712918,7583610.0
1576668712969,7561571.0
1576668713010,7513958.0
1576668713067,7562782.0
1576668713110,7575761.0
1576668713166,7663137.0
1576668713210,7718144.0
1576668713264,7739330.0
1576668713312,7692456.0
1576668713363,7594979.0
1576668713411,7520453.0
1576668713460,7540456.0
1576668713511,7589181.0
1576668713558,7703470.0
1576668713601,7596561.0
1576668713652,7585804.0
1576668713706,7547095.0
1576668713752,7464819.0
1576668713805,7507617.0
1576668713856,7535641.0
1576668713903,7588270.0
1576668713954,7645913.0
1576668713994,7703641.0
1576668714044,7719042.0
1576668714093,7600962.0
1576668714145,7612746.0
1576668714194,7508899.0
1576668714242,7530826.0
1576668714292,7623987.0
1576668714346,7713059.0
1576668714391,7696888.0
1576668714443,7646481.0
1576668714493,7477242.0
1576668714543,7457341.0
1576668714593,7558579.0
1576668714642,7480691.0
1576668714691,7544360.0
1576668714738,7604211.0
1576668714790,7656028.0
1576668714832,7683896.0
1576668714889,7626521.0
1576668714932,7675005.0
1576668714986,7540428.0
1576668715032,7577797.0
1576668715083,7655728.0
1576668715135,7670617.0
1576668715181,7621678.0
1576668715232,7595735.0
1576668715276,7539630.0
1576668715327,7553479.0
1576668715372,7588569.0
1576668715424,7563023.0
1576668715472,7598113.0
1576668715528,7672983.0
1576668715571,7764462.0
1576668715626,7708556.0
1576668715673,7638318.0
1576668715723,7680104.0
1576668715775,7559846.0
1576668715821,7592558.0
1576668715873,7673966.0
1576668715915,7655772.0
1576668715970,7673807.0
1576668716012,7594967.0
1576668716070,7527221.0
1576668716113,7515609.0
1576668716167,7538391.0
1576668716213,7606448.0
1576668716264,7764206.0
1576668716312,7762539.0
1576668716363,7812887.0
1576668716414,7802772.0
1576668716462,7744217.0
1576668716513,7801902.0
1576668716555,7690122.0
1576668716604,7772853.0
1576668716653,7783966.0
1576668716710,7792870.0
1576668716757,7786360.0
1576668716809,7691973.0
1576668716860,7622561.0
1576668716906,7618045.0
1576668716958,7614855.0
1576668717000,7675973.0
1576668717057,7772782.0
1576668717097,7818513.0
1576668717153,7864304.0
1576668717196,7820651.0
1576668717252,7738319.0
1576668717297,7701176.0
1576668717352,7597857.0
1576668717393,7603471.0
1576668717443,7666785.0
1576668717495,7733859.0
1576668717541,7654133.0
1576668717595,7572513.0
1576668717641,7527505.0
1576668717690,7554859.0
1576668717738,7602887.0
1576668717794,7628062.0
1576668717835,7587371.0
1576668717892,7622392.0
1576668717935,7751354.0
1576668717992,7786316.0
1576668718036,7641894.0
1576668718089,7719769.0
1576668718138,7604026.0
1576668718185,7566714.0
1576668718234,7592814.0
1576668718280,7679037.0
1576668718330,7676856.0
1576668718382,7660372.0
1576668718435,7617418.0
1576668718474,7532720.0
1576668718524,7559334.0
1576668718574,7636067.0
1576668718622,7707645.0
1576668718675,7724185.0
1576668718729,7802657.0
1576668718780,7761384.0
1576668718825,7672384.0
1576668718874,7695805.0
1576668718917,7605009.0
1576668718977,7611292.0
1576668719017,7685248.0
1576668719074,7745128.0
1576668719114,7678282.0
1576668719164,7682869.0
1576668719215,7565304.0
1576668719265,7566187.0
1576668719317,7608514.0
1576668719363,7596446.0
1576668719415,7706119.0
1576668719465,7729200.0
1576668719515,7852236.0
1576668719558,7792527.0
1576668719613,7663692.0
1576668719656,7706718.0
1576668719714,7607219.0
1576668719758,7655800.0
1576668719812,7731379.0
1576668719859,7709084.0
1576668719910,7733616.0
1576668719960,7667640.0
1576668720002,7549176.0
1576668720049,7511137.0
1576668720097,7547637.0
1576668720149,7715394.0
1576668720196,7748861.0
1576668720247,7819540.0
1576668720295,7859732.0
1576668720345,7795020.0
1576668720395,7742223.0
1576668720450,7656739.0
1576668720502,7575390.0
1576668720550,7727349.0
1576668720601,7710279.0
1576668720650,7797969.0
1576668720696,7629885.0
1576668720745,7615723.0
1576668720794,7690534.0
1576668720843,7666270.0
1576668720897,7779934.0
1576668720942,7863321.0
1576668720996,7915507.0
1576668721038,7905507.0
1576668721093,7765529.0
1576668721135,7810109.0
1576668721191,7610880.0
1576668721238,7642449.0
1576668721289,7686046.0
1576668721338,7765201.0
1576668721385,7716364.0
1576668721434,7745113.0
1576668721479,7678410.0
1576668721536,7597260.0
1576668721576,7560202.0
1576668721633,7584153.0
1576668721675,7665075.0
1576668721730,7840184.0
1576668721782,7817817.0
1576668721829,7842877.0
1576668721872,7676188.0
1576668721924,7656640.0
1576668721974,7592829.0
1576668722022,7602844.0
1576668722074,7736609.0
1576668722126,7729756.0
1576668722177,7654760.0
1576668722221,7618928.0
1576668722275,7578168.0
1576668722321,7598144.0
1576668722372,7636779.0
1576668722422,7695592.0
1576668722464,7796190.0
1576668722519,7805393.0
1576668722569,7831152.0
1576668722620,7689067.0
1576668722665,7769093.0
1576668722715,7605009.0
1576668722762,7635156.0
1576668722817,7626024.0
1576668722866,7700165.0
1576668722916,7738560.0
1576668722964,7650513.0
1576668723011,7656099.0
1576668723061,7587599.0
1576668723111,7606904.0
1576668723158,7694865.0
1576668723210,7800634.0
1576668723258,7755399.0
1576668723308,7816962.0
1576668723349,7708769.0
1576668723398,7714554.0
1576668723454,7543278.0
1576668723499,7608330.0
1576668723556,7580334.0
1576668723602,7714142.0
1576668723653,7678067.0
1576668723699,7681958.0
1576668723743,7616179.0
1576668723796,7509967.0
1576668723843,7559790.0
1576668723895,7539374.0
1576668723941,7635811.0
1576668723996,7698155.0
1576668724044,7654077.0
1576668724095,7722675.0
1576668724142,7667353.0
1576668724196,7568138.0
1576668724243,7498698.0
1576668724295,7556413.0
1576668724341,7617817.0
1576668724392,7669534.0
1576668724438,7632706.0
1576668724490,7618132.0
1576668724538,7560788.0
1576668724584,7483356.0
1576668724634,7528860.0
1576668724679,7529044.0
1576668724737,7586616.0
1576668724781,7583198.0
1576668724835,7656399.0
1576668724881,7624814.0
1576668724932,7638021.0
1576668724981,7543577.0
1576668725031,7470745.0
1576668725081,7496304.0
1576668725126,7548833.0
1576668725177,7618429.0
1576668725219,7584081.0
1576668725275,7539886.0
1576668725322,7460446.0
1576668725376,7435683.0
1576668725421,7437565.0
1576668725468,7503485.0
1576668725517,7560302.0
1576668725565,7594723.0
1576668725615,7627092.0
1576668725664,7619783.0
1576668725714,7545144.0
1576668725762,7434060.0
1576668725812,7488939.0
1576668725861,7522590.0
1576668725912,7529786.0
1576668725960,7504583.0
1576668726009,7530398.0
1576668726058,7496491.0
1576668726108,7377016.0
1576668726156,7404641.0
1576668726205,7427578.0
1576668726256,7541227.0
1576668726304,7561272.0
1576668726353,7664847.0
1576668726402,7639787.0
1576668726457,7629301.0
1576668726501,7598927.0
1576668726555,7498557.0
1576668726604,7517447.0
1576668726657,7489067.0
1576668726704,7550187.0
1576668726755,7493969.0
1576668726803,7448263.0
1576668726847,7375677.0
1576668726893,7404441.0
1576668726946,7451584.0
1576668726995,7469578.0
1576668727045,7574535.0
1576668727091,7634457.0
1576668727142,7704596.0
1576668727195,7655400.0
1576668727244,7547266.0
1576668727296,7576430.0
1576668727343,7524428.0
1576668727393,7590307.0
1576668727442,7684336.0
1576668727484,7662353.0
1576668727533,7654246.0
1576668727582,7604454.0
1576668727632,7486673.0
1576668727682,7521579.0
1576668727736,7539374.0
1576668727784,7543662.0
1576668727839,7571601.0
1576668727885,7717575.0
1576668727935,7709296.0
1576668727983,7661941.0
1576668728032,7564789.0
1576668728082,7500323.0
1576668728132,7537123.0
1576668728181,7627207.0
1576668728223,7696448.0
1576668728280,7585505.0
1576668728323,7546654.0
1576668728375,7526382.0
1576668728422,7496903.0
1576668728470,7519101.0
1576668728525,7531397.0
1576668728576,7564305.0
1576668728624,7641653.0
1576668728670,7718558.0
1576668728723,7731479.0
1576668728764,7578311.0
1576668728821,7624898.0
1576668728865,7517534.0
1576668728920,7554234.0
1576668728964,7644943.0
1576668729020,7693555.0
1576668729065,7647324.0
1576668729117,7625981.0
1576668729165,7560716.0
1576668729211,7472555.0
1576668729264,7509255.0
1576668729308,7530470.0
1576668729356,7673666.0
1576668729406,7607915.0
1576668729461,7677143.0
1576668729504,7630840.0
1576668729561,7570347.0
1576668729604,7562567.0
1576668729650,7484595.0
1576668729709,7484395.0
1576668729756,7591219.0
1576668729806,7641825.0
1576668729849,7572385.0
1576668729904,7567498.0
1576668729945,7470589.0
1576668729994,7461998.0
1576668730044,7435328.0
1576668730096,7505738.0
1576668730145,7583183.0
1576668730193,7535342.0
1576668730246,7608043.0
1576668730293,7588810.0
1576668730341,7581532.0
1576668730392,7435443.0
1576668730445,7428190.0
1576668730494,7417036.0
1576668730544,7480435.0
1576668730586,7466001.0
1576668730642,7438904.0
1576668730684,7389824.0
1576668730741,7216396.0
1576668730788,7242995.0
1576668730840,7254763.0
1576668730888,7319173.0
1576668730934,7365775.0
1576668730986,7413232.0
1576668731036,7478453.0
1576668731085,7439587.0
1576668731126,7441653.0
1576668731181,7188244.0
1576668731225,7239362.0
1576668731283,7292147.0
1576668731328,7353123.0
1576668731374,7290337.0
1576668731427,7371801.0
1576668731480,7186462.0
1576668731519,7138094.0
1576668731569,7155788.0
1576668731617,7235031.0
1576668731668,7300907.0
1576668731715,7357299.0
1576668731769,7383782.0
1576668731825,7364208.0
1576668731867,7191577.0
1576668731923,7129118.0
1576668731967,7149606.0
1576668732021,7216325.0
1576668732069,7248066.0
1576668732118,7232993.0
1576668732168,7242368.0
1576668732214,7072386.0
1576668732264,7066247.0
1576668732310,7073556.0
1576668732364,7130984.0
1576668732406,7203717.0
1576668732463,7241996.0
1576668732507,7291176.0
1576668732561,7242324.0
1576668732605,7259578.0
1576668732652,7088729.0
1576668732710,7112051.0
1576668732757,7184952.0
1576668732808,7244290.0
1576668732851,7243266.0
1576668732906,7218291.0
1576668732950,7172416.0
1576668733005,7111324.0
1576668733048,7092147.0
1576668733104,7117278.0
1576668733150,7156943.0
1576668733202,7163868.0
1576668733250,7224245.0
1576668733301,7241925.0
1576668733349,7184268.0
1576668733398,7315683.0
1576668733438,7137054.0
1576668733497,7219374.0
1576668733538,7276331.0
1576668733587,7334302.0
1576668733643,7283072.0
1576668733690,7288343.0
1576668733743,7163768.0
1576668733791,7165975.0
1576668733833,7190323.0
1576668733882,7268853.0
1576668733934,7315952.0
1576668733981,7375249.0
1576668734031,7372968.0
1576668734081,7323077.0
1576668734130,7362214.0
1576668734185,7211822.0
1576668734228,7281589.0
1576668734283,7336368.0
1576668734332,7368197.0
1576668734374,7365304.0
1576668734426,7360988.0
1576668734482,7292259.0
1576668734530,7205424.0
1576668734578,7234531.0
1576668734629,7264238.0
1576668734676,7327708.0
1576668734727,7357227.0
1576668734770,7405240.0
1576668734825,7406407.0
1576668734870,7276119.0
1576668734916,7409569.0
1576668734971,7242152.0
1576668735023,7345715.0
1576668735071,7420697.0
1576668735114,7431910.0
1576668735165,7431096.0
1576668735215,7455959.0
1576668735263,7299512.0
1576668735310,7226096.0
1576668735366,7249960.0
1576668735409,7339361.0
1576668735464,7386931.0
1576668735513,7386690.0
1576668735563,7423687.0
1576668735609,7419386.0
1576668735663,7379850.0
1576668735712,7383897.0
1576668735759,7296007.0
1576668735811,7313518.0
1576668735851,7393771.0
1576668735909,7388170.0
1576668735951,7405009.0
1576668736007,7386547.0
1576668736052,7223961.0
1576668736103,7246899.0
1576668736154,7273853.0
1576668736204,7329346.0
1576668736254,7352739.0
1576668736300,7367598.0
1576668736351,7444830.0
1576668736392,7404812.0
1576668736450,7418160.0
1576668736492,7323845.0
1576668736547,7396677.0
1576668736592,7373795.0
1576668736646,7490749.0
1576668736693,7400465.0
1576668736739,7395494.0
1576668736796,7368012.0
1576668736841,7266004.0
1576668736892,7303400.0
1576668736940,7325670.0
1576668736990,7360616.0
1576668737033,7410496.0
1576668737089,7447751.0
1576668737132,7480407.0
1576668737189,7417164.0
1576668737232,7478968.0
1576668737286,7327449.0
1576668737334,7334246.0
1576668737378,7361986.0
1576668737432,7487400.0
1576668737481,7426496.0
1576668737533,7440698.0
1576668737573,7388369.0
1576668737630,7259463.0
1576668737672,7288683.0
1576668737729,7334602.0
1576668737776,7370990.0
1576668737830,7405153.0
1576668737874,7432307.0
1576668737926,7466216.0
1576668737976,7405952.0
1576668738021,7473111.0
1576668738073,7268055.0
1576668738114,7375490.0
1576668738172,7416578.0
1576668738214,7453765.0
1576668738271,7406607.0
1576668738313,7419443.0
1576668738370,7323589.0
1576668738415,7280222.0
1576668738466,7321154.0
1576668738513,7368053.0
1576668738563,7426380.0
1576668738613,7467783.0
1576668738662,7500707.0
1576668738714,7436055.0
1576668738756,7425057.0
1576668738809,7343037.0
1576668738855,7373268.0
1576668738910,7413588.0
1576668738958,7529986.0
1576668739009,7499624.0
1576668739057,7480419.0
1576668739103,7349719.0
1576668739153,7334545.0
1576668739197,7338833.0
1576668739255,7358538.0
1576668739296,7437637.0
1576668739354,7423019.0
1576668739397,7459732.0
1576668739443,7477685.0
1576668739494,7375877.0
1576668739550,7341027.0
1576668739595,7399767.0
1576668739642,7356912.0
1576668739694,7489638.0
1576668739742,7468738.0
1576668739791,7456898.0
1576668739840,7415953.0
1576668739890,7355816.0
1576668739939,7298030.0
1576668739995,7318105.0
1576668740035,7353978.0
1576668740093,7373240.0
1576668740135,7433489.0
1576668740186,7511877.0
1576668740238,7543362.0
1576668740284,7452994.0
1576668740336,7434844.0
1576668740387,7358906.0
1576668740434,7345715.0
1576668740485,7441909.0
1576668740537,7493255.0
1576668740578,7451271.0
1576668740634,7442252.0
1576668740675,7368340.0
1576668740726,7330598.0
1576668740777,7344176.0
1576668740830,7370562.0
1576668740881,7446996.0
1576668740929,7511820.0
1576668740977,7549703.0
1576668741025,7496990.0
1576668741074,7479692.0
1576668741117,7389880.0
1576668741176,7396876.0
1576668741218,7422136.0
1576668741273,7515197.0
1576668741315,7490693.0
1576668741372,7512488.0
1576668741417,7456427.0
1576668741465,7329459.0
1576668741518,7345016.0
1576668741569,7349248.0
1576668741620,7412933.0
1576668741665,7464535.0
1576668741714,7485649.0
1576668741763,7478241.0
1576668741817,7477286.0
1576668741858,7513331.0
1576668741915,7409740.0
1576668741956,7437309.0
1576668742013,7451699.0
1576668742054,7475719.0
1576668742110,7424442.0
1576668742157,7457369.0
1576668742208,7320939.0
1576668742256,7328519.0
1576668742305,7351797.0
1576668742355,7365319.0
1576668742396,7438632.0
1576668742456,7459535.0
1576668742498,7495352.0
1576668742553,7523205.0
1576668742597,7484239.0
1576668742652,7465318.0
1576668742701,7416066.0
1576668742751,7412433.0
1576668742798,7478213.0
1576668742848,7469434.0
1576668742898,7490749.0
1576668742945,7459420.0
1576668742993,7316323.0
1576668743043,7341312.0
1576668743097,7361359.0
1576668743138,7454704.0
1576668743194,7508771.0
1576668743240,7544504.0
1576668743291,7553192.0
1576668743343,7507333.0
1576668743390,7406707.0
1576668743432,7360248.0
1576668743489,7397872.0
1576668743536,7497047.0
1576668743586,7481945.0
1576668743634,7473126.0
1576668743679,7422064.0
1576668743736,7373911.0
1576668743776,7304527.0
1576668743835,7321111.0
1576668743879,7403258.0
1576668743932,7418147.0
1576668743981,7435811.0
1576668744031,7486233.0
1576668744078,7457738.0
1576668744129,7396677.0
1576668744178,7325726.0
1576668744225,7347453.0
1576668744273,7371517.0
1576668744319,7504527.0
1576668744375,7443991.0
1576668744415,7470504.0
1576668744474,7390791.0
1576668744516,7246970.0
1576668744563,7211678.0
1576668744612,7277429.0
1576668744661,7327877.0
1576668744711,7350673.0
1576668744770,7388469.0
1576668744820,7414671.0
1576668744864,7382471.0
1576668744915,7359621.0
1576668744962,7234931.0
1576668745016,7311651.0
1576668745060,7313175.0
1576668745114,7378895.0
1576668745160,7353536.0
1576668745203,7318617.0
1576668745259,7259491.0
1576668745305,7203217.0
1576668745355,7195394.0
1576668745399,7233932.0
1576668745450,7291504.0
1576668745500,7320768.0
1576668745553,7357895.0
1576668745599,7364720.0
1576668745656,7271987.0
1576668745705,7298385.0
1576668745753,7253137.0
1576668745800,7288355.0
1576668745852,7374566.0
1576668745900,7365875.0
1576668745948,7347796.0
1576668745997,7309214.0
1576668746046,7198686.0
1576668746093,7229688.0
1576668746146,7220784.0
1576668746193,7290393.0
1576668746246,7355988.0
1576668746296,7351697.0
1576668746346,7358451.0
1576668746387,7321011.0
1576668746436,7321966.0
1576668746485,7207306.0
1576668746535,7234974.0
1576668746583,7255431.0
1576668746634,7304299.0
1576668746682,7292846.0
1576668746731,7253665.0
1576668746781,7156016.0
1576668746832,7202831.0
1576668746880,7194199.0
1576668746928,7239859.0
1576668746977,7302333.0
1576668747026,7328975.0
1576668747076,7337607.0
1576668747124,7255403.0
1576668747175,7324728.0
1576668747224,7210255.0
1576668747274,7244405.0
1576668747323,7231439.0
1576668747373,7268953.0
1576668747424,7318105.0
1576668747476,7210170.0
1576668747522,7181747.0
1576668747566,7212677.0
1576668747622,7230428.0
1576668747672,7329131.0
1576668747721,7360376.0
1576668747769,7443235.0
1576668747820,7430784.0
1576668747860,7363054.0
1576668747913,7410211.0
1576668747961,7273013.0
1576668748016,7250416.0
1576668748063,7295508.0
1576668748115,7332779.0
1576668748163,7271331.0
1576668748215,7272599.0
1576668748263,7223590.0
1576668748305,7218531.0
1576668748362,7256542.0
1576668748404,7247311.0
1576668748461,7280890.0
1576668748501,7361628.0
1576668748560,7361799.0
1576668748602,7314700.0
1576668748655,7252938.0
1576668748702,7271644.0
1576668748756,7204001.0
1576668748807,7275348.0
1576668748855,7305638.0
1576668748903,7329530.0
1576668748950,7331496.0
1576668749002,7240757.0
1576668749041,7181632.0
1576668749092,7191889.0
1576668749143,7196149.0
1576668749191,7225912.0
1576668749242,7325199.0
1576668749288,7316894.0
1576668749345,7326325.0
1576668749396,7264378.0
1576668749444,7294213.0
1576668749492,7143224.0
1576668749543,7182914.0
1576668749586,7136256.0
1576668749642,7224289.0
1576668749682,7207022.0
1576668749733,7200012.0
1576668749782,7140175.0
1576668749838,7076106.0
1576668749881,7080422.0
1576668749937,7131555.0
1576668749985,7120954.0
1576668750034,7152939.0
1576668750084,7184153.0
1576668750127,7163397.0
1576668750182,7060776.0
1576668750229,7059650.0
1576668750281,7092546.0
1576668750323,7181391.0
1576668750380,7091407.0
1576668750431,7128762.0
1576668750471,7155732.0
1576668750517,7083315.0
1576668750571,7060305.0
1576668750619,7039662.0
1576668750669,7071746.0
1576668750718,7060533.0
1576668750770,7098844.0
1576668750824,7072445.0
1576668750864,7165575.0
1576668750922,7163440.0
1576668750964,7058083.0
1576668751011,7067087.0
1576668751066,7019816.0
1576668751117,6993886.0
1576668751165,7123875.0
1576668751214,7065505.0
1576668751264,7032865.0
1576668751308,7023961.0
1576668751360,6942824.0
1576668751404,6966917.0
1576668751463,6950489.0
1576668751504,7007820.0
1576668751560,7028421.0
1576668751603,7063283.0
1576668751657,7080023.0
1576668751707,7028976.0
1576668751749,7076334.0
1576668751806,6925614.0
1576668751854,6949521.0
1576668751905,6947527.0
1576668751945,7030958.0
1576668752003,6984412.0
1576668752046,7011409.0
1576668752102,6880153.0
1576668752148,6874726.0
1576668752199,6866818.0
1576668752248,6894156.0
1576668752297,6956815.0
1576668752347,6970792.0
1576668752396,7059095.0
1576668752437,6985651.0
1576668752489,7052556.0
1576668752543,6865648.0
1576668752585,6909201.0
1576668752642,6871462.0
1576668752686,6954680.0
1576668752740,6957258.0
1576668752788,6953625.0
1576668752839,6912593.0
1576668752885,6822325.0
1576668752935,6846958.0
1576668752985,6916897.0
1576668753035,6941301.0
1576668753084,6943795.0
1576668753129,6985095.0
1576668753183,6983344.0
1576668753225,7013990.0
1576668753278,6933081.0
1576668753328,6865364.0
1576668753381,6892789.0
1576668753430,6916654.0
1576668753480,6935075.0
1576668753527,6914900.0
1576668753569,6964807.0
1576668753626,6791907.0
1576668753670,6827540.0
1576668753725,6841871.0
1576668753767,6899842.0
1576668753825,6957114.0
1576668753866,6991249.0
1576668753921,7000640.0
1576668753966,6953438.0
1576668754012,6878471.0
1576668754060,6896837.0
1576668754113,6933237.0
1576668754167,6965022.0
1576668754211,6961730.0
1576668754265,6951872.0
1576668754308,6895398.0
1576668754363,6868669.0
1576668754407,6916083.0
1576668754464,6931415.0
1576668754508,7033392.0
1576668754563,7030671.0
1576668754606,7116951.0
1576668754659,7123619.0
1576668754710,6950517.0
1576668754751,6941329.0
1576668754809,7024005.0
1576668754851,7000724.0
1576668754905,7101836.0
1576668754952,7026155.0
1576668755004,7035957.0
1576668755049,6996080.0
1576668755104,6921753.0
1576668755153,6954808.0
1576668755202,6953382.0
1576668755250,7018862.0
1576668755301,7056517.0
1576668755349,7072629.0
1576668755397,7086704.0
1576668755439,7043993.0
1576668755494,7127536.0
1576668755546,6998717.0
1576668755588,7034447.0
1576668755638,7074795.0
1576668755689,7063042.0
1576668755738,7056985.0
1576668755790,7022950.0
1576668755836,6940518.0
1576668755882,6992476.0
1576668755939,6997148.0
1576668755989,7007677.0
1576668756037,7116966.0
1576668756088,7115655.0
1576668756130,7150533.0
1576668756186,7115996.0
1576668756232,7145290.0
1576668756284,7080094.0
1576668756330,7070935.0
1576668756384,7111267.0
1576668756431,7090880.0
1576668756473,7073469.0
1576668756532,7118289.0
1576668756579,6994286.0
1576668756631,7045360.0
1576668756677,7085025.0
1576668756728,7129758.0
1576668756769,7171276.0
1576668756828,7203545.0
1576668756870,7245117.0
1576668756925,7230159.0
1576668756971,7184952.0
1576668757015,7263224.0
1576668757074,7200780.0
1576668757121,7227566.0
1576668757171,7250672.0
1576668757219,7203973.0
1576668757270,7167372.0
1576668757319,7116267.0
1576668757366,7081277.0
1576668757410,7133749.0
1576668757458,7102960.0
1576668757512,7128806.0
1576668757565,7169052.0
1576668757615,7198702.0
1576668757663,7211609.0
1576668757713,7136327.0
1576668757760,7223761.0
1576668757811,7122908.0
1576668757853,7122437.0
1576668757901,7130129.0
1576668757953,7117706.0
1576668758000,7131056.0
1576668758053,7103731.0
1576668758106,7033835.0
1576668758154,7079495.0
1576668758205,7062016.0
1576668758251,7090524.0
1576668758298,7139875.0
1576668758346,7170022.0
1576668758396,7196992.0
1576668758446,7171317.0
1576668758498,7184168.0
1576668758550,7081832.0
1576668758592,7079554.0
1576668758649,7109201.0
1576668758694,7115584.0
1576668758746,7112035.0
1576668758792,7088942.0
1576668758838,7012692.0
1576668758890,7008389.0
1576668758942,7055534.0
1576668758992,7032381.0
1576668759036,7109486.0
1576668759091,7162698.0
1576668759132,7155133.0
1576668759189,7108062.0
1576668759233,7082132.0
1576668759289,7017195.0
1576668759333,7066831.0
1576668759386,7092218.0
1576668759433,7146557.0
1576668759485,7046899.0
1576668759536,7049249.0
1576668759581,7082204.0
1576668759634,6978201.0
1576668759676,6974325.0
1576668759732,6963397.0
1576668759773,7024345.0
1576668759832,7049320.0
1576668759876,7084938.0
1576668759925,7119959.0
1576668759977,7079098.0
1576668760020,7095680.0
1576668760078,7048481.0
1576668760119,7041016.0
1576668760175,7021068.0
1576668760216,7067827.0
1576668760273,7063610.0
1576668760316,7034874.0
1576668760371,7002350.0
1576668760417,6929804.0
1576668760461,6980167.0
1576668760519,7022195.0
1576668760565,7099755.0
1576668760617,7170805.0
1576668760662,7224417.0
1576668760717,7204940.0
1576668760759,7183797.0
1576668760814,7252226.0
1576668760855,7166458.0
1576668760914,7140943.0
1576668760955,7163097.0
1576668761010,7170334.0
1576668761055,7155517.0
1576668761108,7132352.0
1576668761158,7076249.0
1576668761205,7069596.0
1576668761254,7079595.0
1576668761304,7098560.0
1576668761357,7203914.0
1576668761397,7246156.0
1576668761445,7249960.0
1576668761496,7205568.0
1576668761543,7218887.0
1576668761594,7117565.0
1576668761644,7119232.0
1576668761697,7136898.0
1576668761747,7187929.0
1576668761797,7147197.0
1576668761840,7146186.0
1576668761893,7121710.0
1576668761942,7011409.0
1576668761996,7031754.0
1576668762038,7015429.0
1576668762094,7078100.0
1576668762136,7121853.0
1576668762192,7147740.0
1576668762236,7189527.0
1576668762291,7123164.0
1576668762335,7149222.0
1576668762387,7009159.0
1576668762434,7054036.0
1576668762484,7059066.0
1576668762535,7103032.0
1576668762578,7030702.0
1576668762635,7072673.0
1576668762681,6974796.0
1576668762732,6951715.0
1576668762774,6964794.0
1576668762834,7030602.0
1576668762873,7020984.0
1576668762930,7097461.0
1576668762981,7153095.0
1576668763028,7090181.0
1576668763074,7086791.0
1576668763117,6947412.0
1576668763174,7006794.0
1576668763218,7042567.0
1576668763272,7061416.0
1576668763315,7041372.0
1576668763365,7047969.0
1576668763414,6936785.0
1576668763464,6890268.0
1576668763516,6871306.0
1576668763564,6924846.0
1576668763619,6959792.0
1576668763669,6994030.0
1576668763714,7034974.0
1576668763763,6988528.0
1576668763814,6995409.0
1576668763857,6962641.0
1576668763916,6957841.0
1576668763960,6930260.0
1576668764006,6976307.0
1576668764057,6912294.0
1576668764111,6883302.0
1576668764162,6801922.0
1576668764210,6836157.0
1576668764257,6888616.0
1576668764308,6914572.0
1576668764354,7009858.0
1576668764404,7013404.0
1576668764454,7069168.0
1576668764502,7010641.0
1576668764555,7061388.0
1576668764595,7026611.0
1576668764653,7001167.0
1576668764701,7021396.0
1576668764751,7078684.0
1576668764802,7037012.0
1576668764850,7027138.0
1576668764896,6990353.0
1576668764947,6927580.0
1576668764994,6984212.0
1576668765039,7001223.0
1576668765093,7052968.0
1576668765139,7044464.0
1576668765195,7077616.0
1576668765238,7113390.0
1576668765293,7050048.0
1576668765341,7118277.0
1576668765389,6993986.0
1576668765438,7074352.0
1576668765482,7102876.0
1576668765536,7084866.0
1576668765585,7032837.0
1576668765635,7052712.0
1576668765683,6951687.0
1576668765734,6986833.0
1576668765781,7009630.0
1576668765838,7069736.0
1576668765881,7100825.0
1576668765933,7139504.0
1576668765980,7184668.0
1576668766030,7079296.0
1576668766078,7211351.0
1576668766129,7134105.0
1576668766177,7071375.0
1576668766225,7137011.0
1576668766273,7201280.0
1576668766322,7166146.0
1576668766376,7175078.0
1576668766417,7128363.0
1576668766468,7025216.0
1576668766520,7036357.0
1576668766572,7067258.0
1576668766621,7088358.0
1576668766671,7193359.0
1576668766719,7167572.0
1576668766769,7211865.0
1576668766817,7137026.0
1576668766865,7195310.0
1576668766916,7083159.0
1576668766958,7170378.0
1576668767013,7155760.0
1576668767063,7191306.0
1576668767114,7140643.0
1576668767161,7134661.0
1576668767208,7030871.0
1576668767260,7073157.0
1576668767307,7102136.0
1576668767354,7120742.0
1576668767402,7200936.0
1576668767453,7232138.0
1576668767498,7319016.0
1576668767550,7220769.0
1576668767600,7290181.0
1576668767650,7244618.0
1576668767699,7173440.0
1576668767747,7169423.0
1576668767799,7257740.0
1576668767846,7239918.0
1576668767895,7283271.0
1576668767944,7199398.0
1576668767994,7142737.0
1576668768043,7175377.0
1576668768093,7191106.0
1576668768142,7229744.0
1576668768191,7284582.0
1576668768242,7365232.0
1576668768298,7362170.0
1576668768339,7268398.0
1576668768387,7287045.0
1576668768438,7213132.0
1576668768483,7218135.0
1576668768536,7232010.0
1576668768585,7329658.0
1576668768641,7252198.0
1576668768685,7253964.0
1576668768739,7176960.0
1576668768784,7187333.0
1576668768833,7228718.0
1576668768879,7225571.0
1576668768933,7262300.0
1576668768982,7359705.0
1576668769034,7410168.0
1576668769083,7370946.0
1576668769131,7333775.0
1576668769182,7349703.0
1576668769228,7286589.0
1576668769280,7261273.0
1576668769321,7358794.0
1576668769379,7354378.0
1576668769420,7326397.0
1576668769475,7305638.0
1576668769522,7255974.0
1576668769573,7243095.0
1576668769623,7288926.0
1576668769675,7306050.0
1576668769723,7358210.0
1576668769770,7430013.0
1576668769821,7458421.0
1576668769863,7392373.0
1576668769920,7351728.0
1576668769962,7379566.0
1576668770020,7352939.0
1576668770061,7383841.0
1576668770115,7436866.0
1576668770164,7312931.0
1576668770216,7300823.0
1576668770264,7263795.0
1576668770306,7246328.0
1576668770364,7286261.0
1576668770410,7304826.0
1576668770461,7300024.0
1576668770502,7359662.0
1576668770561,7470021.0
1576668770602,7472870.0
1576668770659,7372272.0
1576668770701,7406891.0
1576668770755,7377743.0
1576668770800,7352440.0
1576668770848,7378270.0
1576668770896,7488399.0
1576668770946,7401077.0
1576668770994,7382003.0
1576668771051,7324400.0
1576668771102,7261900.0
1576668771144,7316395.0
1576668771202,7333291.0
1576668771241,7364065.0
1576668771299,7398627.0
1576668771344,7499453.0
1576668771395,7500252.0
1576668771443,7393372.0
1576668771490,7440542.0
1576668771537,7382003.0
1576668771593,7354378.0
1576668771643,7384238.0
1576668771689,7436298.0
1576668771741,7360872.0
1576668771783,7353466.0
1576668771844,7313945.0
1576668771884,7288883.0
1576668771938,7328960.0
1576668771985,7322022.0
1576668772036,7363494.0
1576668772085,7403371.0
1576668772138,7459635.0
1576668772184,7443092.0
1576668772233,7359406.0
1576668772283,7464192.0
1576668772326,7294940.0
1576668772382,7346114.0
1576668772423,7423646.0
1576668772481,7451356.0
1576668772525,7398228.0
1576668772571,7444119.0
1576668772626,7336512.0
1576668772674,7261473.0
1576668772718,7302789.0
1576668772769,7363409.0
1576668772816,7414200.0
1576668772865,7468994.0
1576668772913,7501120.0
1576668772964,7456742.0
1576668773014,7444474.0
1576668773063,7368340.0
1576668773115,7427279.0
1576668773166,7373240.0
1576668773214,7460715.0
1576668773261,7344419.0
1576668773318,7332551.0
1576668773365,7306065.0
1576668773407,7263951.0
1576668773457,7290365.0
1576668773506,7310440.0
1576668773556,7371701.0
1576668773606,7430727.0
1576668773653,7441297.0
1576668773706,7450001.0
1576668773760,7370874.0
1576668773807,7423559.0
1576668773856,7323476.0
1576668773899,7334218.0
1576668773955,7363082.0
1576668774004,7438520.0
1576668774049,7369692.0
1576668774103,7384125.0
1576668774144,7298229.0
1576668774202,7262456.0
1576668774245,7308247.0
1576668774301,7296619.0
1576668774347,7355845.0
1576668774401,7357483.0
1576668774449,7396633.0
1576668774497,7431710.0
1576668774547,7371816.0
1576668774596,7454277.0
1576668774644,7332108.0
1576668774692,7339376.0
1576668774744,7367070.0
1576668774785,7390507.0
1576668774844,7333690.0
1576668774886,7331054.0
1576668774941,7229388.0
1576668774989,7245529.0
1576668775040,7282032.0
1576668775089,7318673.0
1576668775135,7373811.0
1576668775186,7398784.0
1576668775235,7413117.0
1576668775284,7375462.0
1576668775327,7415582.0
1576668775384,7359861.0
1576668775426,7281361.0
1576668775482,7297162.0
1576668775531,7280834.0
1576668775581,7320483.0
1576668775630,7259322.0
1576668775678,7249021.0
1576668775728,7183385.0
1576668775776,7240872.0
1576668775826,7206566.0
1576668775874,7225044.0
1576668775924,7239462.0
1576668775967,7294525.0
1576668776023,7315312.0
1576668776067,7234846.0
1576668776122,7341539.0
1576668776169,7234560.0
1576668776221,7249433.0
1576668776270,7245688.0
1576668776319,7233763.0
1576668776368,7194342.0
1576668776416,7183101.0
1576668776466,7128819.0
1576668776509,7137553.0
1576668776566,7133035.0
1576668776616,7161886.0
1576668776663,7156387.0
1576668776707,7212264.0
1576668776763,7210439.0
1576668776809,7144120.0
1576668776858,7181619.0
1576668776904,7120755.0
1576668776959,7103388.0
1576668777010,7082900.0
1576668777057,7174167.0
1576668777108,7171645.0
1576668777149,7169024.0
1576668777206,7089070.0
1576668777249,7059138.0
1576668777305,7088957.0
1576668777350,7059438.0
1576668777404,7102120.0
1576668777451,7178086.0
1576668777502,7168696.0
1576668777550,7169495.0
1576668777599,7175022.0
1576668777650,7190522.0
1576668777697,7116067.0
1576668777738,7143280.0
1576668777791,7148907.0
1576668777849,7143708.0
1576668777890,7104570.0
1576668777945,7130885.0
1576668777991,7017223.0
1576668778036,7052656.0
1576668778091,7041428.0
1576668778142,7088442.0
1576668778190,7141358.0
1576668778237,7174453.0
1576668778289,7191705.0
1576668778330,7154421.0
1576668778387,7150945.0
1576668778430,7088529.0
1576668778477,7070279.0
1576668778528,7057728.0
1576668778579,7043937.0
1576668778630,7107904.0
1576668778676,7014159.0
1576668778727,6965678.0
1576668778773,6997634.0
1576668778831,7004828.0
1576668778878,7073512.0
1576668778928,7060390.0
1576668778971,7124958.0
1576668779028,7146214.0
1576668779071,7092503.0
1576668779125,7083399.0
1576668779175,7092119.0
1576668779224,7123719.0
1576668779273,7115968.0
1576668779323,7040217.0
1576668779373,7000668.0
1576668779419,6985651.0
1576668779470,6995468.0
1576668779513,7088302.0
1576668779569,7105968.0
1576668779617,7126254.0
1576668779669,7138606.0
1576668779712,7250316.0
1576668779766,7264107.0
1576668779811,7195852.0
1576668779858,7270476.0
1576668779908,7140075.0
1576668779961,7168824.0
1576668780010,7191577.0
1576668780053,7243878.0
1576668780102,7191421.0
1576668780154,7153495.0
1576668780207,7107292.0
1576668780253,7093145.0
1576668780306,7121254.0
1576668780352,7147624.0
1576668780405,7256985.0
1576668780453,7290892.0
1576668780502,7337438.0
1576668780554,7333406.0
1576668780597,7304199.0
1576668780652,7335912.0
1576668780692,7200668.0
1576668780749,7211494.0
1576668780792,7246771.0
1576668780840,7292103.0
1576668780907,7279595.0
1576668781014,7244362.0
1576668781014,7197775.0
1576668781040,7134090.0
1576668781089,7195438.0
1576668781141,7189583.0
1576668781190,7235031.0
1576668781237,7257968.0
1576668781289,7335116.0
1576668781334,7304327.0
1576668781387,7232849.0
1576668781434,7321295.0
1576668781485,7205967.0
1576668781534,7215710.0
1576668781577,7278940.0
1576668781637,7227407.0
1576668781682,7171246.0
1576668781732,7228449.0
1576668781779,7168655.0
1576668781830,7195837.0
1576668781874,7233804.0
1576668781928,7221852.0
1576668781972,7257484.0
1576668782027,7348308.0
1576668782077,7379422.0
1576668782125,7304442.0
1576668782179,7291136.0
1576668782216,7244689.0
1576668782274,7223319.0
1576668782321,7245501.0
1576668782372,7265932.0
1576668782418,7285550.0
1576668782470,7270760.0
1576668782513,7251955.0
1576668782568,7140559.0
1576668782617,7166289.0
1576668782667,7215255.0
1576668782718,7283811.0
1576668782765,7273098.0
1576668782819,7331353.0
1576668782859,7343464.0
1576668782909,7293926.0
1576668782955,7291476.0
1576668783012,7137438.0
1576668783059,7194242.0
1576668783109,7223019.0
1576668783154,7262812.0
1576668783208,7238863.0
1576668783252,7198714.0
1576668783306,7096793.0
1576668783358,7021724.0
1576668783405,7041743.0
1576668783455,7196620.0
1576668783503,7199470.0
1576668783548,7200865.0
1576668783595,7209484.0
1576668783648,7227010.0
1576668783697,7147225.0
1576668783743,7111695.0
1576668783793,7032168.0
1576668783841,7106452.0
1576668783893,7118333.0
1576668783940,7117209.0
1576668783995,7099087.0
1576668784041,7030702.0
1576668784092,6889256.0
1576668784143,6873356.0
1576668784194,6989127.0
1576668784240,7012707.0
1576668784292,7074667.0
1576668784339,7126753.0
1576668784389,7103503.0
1576668784433,7077888.0
1576668784488,7003304.0
1576668784536,6952299.0
1576668784586,6927096.0
1576668784639,6941913.0
1576668784685,6924789.0
1576668784735,6896565.0
1576668784784,6867745.0
1576668784833,6787891.0
1576668784882,6808263.0
1576668784932,6791692.0
1576668784979,6839150.0
1576668785030,6860037.0
1576668785073,6896908.0
1576668785128,6983900.0
1576668785179,6887078.0
1576668785226,6924418.0
1576668785280,6844876.0
1576668785324,6838138.0
1576668785375,6874526.0
1576668785423,6918208.0
1576668785474,6862871.0
1576668785522,6876692.0
1576668785567,6743554.0
1576668785615,6719034.0
1576668785670,6716712.0
1576668785718,6726356.0
1576668785768,6778685.0
1576668785819,6797363.0
1576668785869,6800739.0
1576668785913,6794585.0
1576668785965,6747627.0
1576668786014,6729832.0
1576668786063,6639208.0
1576668786114,6646474.0
1576668786160,6660792.0
1576668786212,6658726.0
1576668786254,6639380.0
1576668786310,6580382.0
1576668786360,6552458.0
1576668786407,6563827.0
1576668786461,6535618.0
