time,value
1576859014325,3170618.0
1576859014326,3163166.0
1576859014329,3157036.0
1576859014331,3155029.0
1576859014332,3154525.0
1576859014332,3158767.0
1576859014334,3156983.0
1576859014335,3160246.0
1576859014335,3161723.0
1576859014422,3163367.0
1576859014422,3168761.0
1576859014664,3172461.0
1576859014664,3155913.0
1576859014664,3122121.0
1576859014664,3107801.0
1576859014694,3096271.0
1576859014901,3072323.0
1576859014902,3062499.0
1576859014931,3034449.0
1576859015014,3006697.0
1576859015018,2984234.0
1576859015067,2926805.0
1576859015114,2903659.0
1576859015186,2913007.0
1576859015282,2706881.0
1576859015284,2817519.0
1576859015366,2881154.0
1576859015370,2945152.0
1576859015407,2941821.0
1576859015458,2974866.0
1576859015506,3022063.0
1576859015556,3041991.0
1576859015609,3045609.0
1576859015659,3057639.0
1576859015704,3087874.0
1576859015755,3077776.0
1576859015806,3032651.0
1576859015859,3036932.0
1576859015905,3130404.0
1576859015955,3235033.0
1576859016004,3253615.0
1576859016057,3308564.0
1576859016103,3323060.0
1576859016153,3306386.0
1576859016200,3301036.0
1576859016249,3318914.0
1576859016302,3314685.0
1576859016350,3319344.0
1576859016400,3374472.0
1576859016449,3297871.0
1576859016497,3282178.0
1576859016547,3308653.0
1576859016597,3340990.0
1576859016646,3355843.0
1576859016696,3359335.0
1576859016746,3351556.0
1576859016794,3343494.0
1576859016844,3346125.0
1576859016899,3363401.0
1576859016949,3371083.0
1576859016999,3414952.0
1576859017048,3512104.0
1576859017096,3496856.0
1576859017146,3474946.0
1576859017192,3471437.0
1576859017245,3387251.0
1576859017294,3398686.0
1576859017344,3412945.0
1576859017388,3401524.0
1576859017442,3414743.0
1576859017492,3414186.0
1576859017541,3409074.0
1576859017591,3423884.0
1576859017636,3496389.0
1576859017689,3491618.0
1576859017740,3454266.0
1576859017788,3407187.0
1576859017838,3349438.0
1576859017887,3426194.0
1576859017938,3445959.0
1576859017987,3440081.0
1576859018035,3439932.0
1576859018086,3440564.0
1576859018134,3456325.0
1576859018180,3473755.0
1576859018229,3488690.0
1576859018281,3554984.0
1576859018328,3611700.0
1576859018376,3596068.0
1576859018431,3590546.0
1576859018479,3604508.0
1576859018529,3615632.0
1576859018581,3613009.0
1576859018628,3613559.0
1576859018679,3556738.0
1576859018723,3572861.0
1576859018777,3552904.0
1576859018826,3568091.0
1576859018875,3630470.0
1576859018925,3832183.0
1576859018975,3973404.0
1576859019025,4099246.0
1576859019074,4156251.0
1576859019122,4177154.0
1576859019171,4187816.0
1576859019221,4166779.0
1576859019266,4134615.0
1576859019319,4140574.0
1576859019365,4151354.0
1576859019420,4158273.0
1576859019464,4144713.0
1576859019515,4141405.0
1576859019561,4140544.0
1576859019610,4154951.0
1576859019659,4156074.0
1576859019709,4160115.0
1576859019760,4164500.0
1576859019810,4151763.0
1576859019860,4142453.0
1576859019914,4145121.0
1576859019966,4182198.0
1576859020011,4212352.0
1576859020066,4219387.0
1576859020109,4235243.0
1576859020165,4300298.0
1576859020204,4587548.0
1576859020253,4773048.0
1576859020302,4837536.0
1576859020359,4978692.0
1576859020400,5010911.0
1576859020457,5034654.0
1576859020502,5073625.0
1576859020555,5097272.0
1576859020603,5140018.0
1576859020655,5170474.0
1576859020703,5203013.0
1576859020753,5267065.0
1576859020805,5302462.0
1576859020851,5341336.0
1576859020905,5346653.0
1576859020951,5313664.0
1576859021000,5317613.0
1576859021049,5344709.0
1576859021099,5367440.0
1576859021149,5396912.0
1576859021197,5408463.0
1576859021247,5433669.0
1576859021290,5470212.0
1576859021340,5465059.0
1576859021390,5451450.0
1576859021443,5488119.0
1576859021487,5510696.0
1576859021542,5645082.0
1576859021587,5750658.0
1576859021642,5837681.0
1576859021685,5844358.0
1576859021742,5926583.0
1576859021789,5906880.0
1576859021835,5917058.0
1576859021881,5931166.0
1576859021932,5938739.0
1576859021981,5942026.0
1576859022033,5952687.0
1576859022081,5963534.0
1576859022132,5972919.0
1576859022181,5961798.0
1576859022234,5927756.0
1576859022287,5859771.0
1576859022332,5873583.0
1576859022387,5788467.0
1576859022431,5753149.0
1576859022482,5756446.0
1576859022529,5801152.0
1576859022581,5837229.0
1576859022627,5836965.0
1576859022678,5865942.0
1576859022722,6035906.0
1576859022777,6086575.0
1576859022821,6106198.0
1576859022875,6102775.0
1576859022927,6132566.0
1576859022975,6155144.0
1576859023027,6080381.0
1576859023073,6010997.0
1576859023123,5964257.0
1576859023169,5953940.0
1576859023221,5951675.0
1576859023265,5945932.0
1576859023320,5906706.0
1576859023363,5903374.0
1576859023418,5846662.0
1576859023462,5861437.0
1576859023517,5896918.0
1576859023563,5933809.0
1576859023615,5894860.0
1576859023667,5919884.0
1576859023714,5938301.0
1576859023767,5950354.0
1576859023812,5945725.0
1576859023863,5955445.0
1576859023912,5971736.0
1576859023963,5986754.0
1576859024009,6039927.0
1576859024061,6047601.0
1576859024108,6053289.0
1576859024159,6059332.0
1576859024202,6002299.0
1576859024257,5884715.0
1576859024305,5840239.0
1576859024355,5809046.0
1576859024408,5795947.0
1576859024454,5788663.0
1576859024504,5780459.0
1576859024553,5780839.0
1576859024602,5775657.0
1576859024651,5808231.0
1576859024700,5744555.0
1576859024750,5642023.0
1576859024795,5618068.0
1576859024849,5594353.0
1576859024898,5184028.0
1576859024941,4824202.0
1576859024997,4721038.0
1576859025046,4673162.0
1576859025095,4688763.0
1576859025148,4728472.0
1576859025193,4825971.0
1576859025244,4853477.0
1576859025292,4857498.0
1576859025338,4874549.0
1576859025391,4868252.0
1576859025441,4862519.0
1576859025489,4842194.0
1576859025540,4813803.0
1576859025583,4847021.0
1576859025638,4770419.0
1576859025682,4877605.0
1576859025730,5014616.0
1576859025784,5063126.0
1576859025830,5198817.0
1576859025881,5152526.0
1576859025929,5086852.0
1576859025979,5089494.0
1576859026027,5089240.0
1576859026080,5080658.0
1576859026130,5078212.0
1576859026181,5061724.0
1576859026223,5066791.0
1576859026278,5071880.0
1576859026326,5063723.0
1576859026377,5066688.0
1576859026429,5094251.0
1576859026475,5108463.0
1576859026526,5117357.0
1576859026574,5100535.0
1576859026624,5057944.0
1576859026673,5022705.0
1576859026721,5023452.0
1576859026771,5002415.0
1576859026822,5008057.0
1576859026865,5001690.0
1576859026913,4983975.0
1576859026964,4998003.0
1576859027014,4990466.0
1576859027064,4996727.0
1576859027112,5001496.0
1576859027161,4996614.0
1576859027214,5060300.0
1576859027265,5116323.0
1576859027314,5155088.0
1576859027364,5220705.0
1576859027409,5309770.0
1576859027462,5226793.0
1576859027504,5192807.0
1576859027561,5182755.0
1576859027607,5174965.0
1576859027660,5165865.0
1576859027710,5152710.0
1576859027758,5138946.0
1576859027811,5130683.0
1576859027857,5153145.0
1576859027906,5128375.0
1576859027955,5121067.0
1576859028004,5120734.0
1576859028055,5101972.0
1576859028103,5080842.0
1576859028150,5066768.0
1576859028202,5065447.0
1576859028246,5065837.0
1576859028301,5060413.0
1576859028347,5055335.0
1576859028399,5051544.0
1576859028448,5040986.0
1576859028497,5034116.0
1576859028547,5040526.0
1576859028596,5042444.0
1576859028646,5036688.0
1576859028696,5071799.0
1576859028744,5073971.0
1576859028794,5069594.0
1576859028841,5059299.0
1576859028887,5051705.0
1576859028943,5055715.0
1576859028987,5047729.0
1576859029041,5044950.0
1576859029090,5033816.0
1576859029139,5030439.0
1576859029187,5037516.0
1576859029236,5015754.0
1576859029287,4998371.0
1576859029335,4978780.0
1576859029386,4950517.0
1576859029434,4935834.0
1576859029484,4917427.0
1576859029527,4909844.0
1576859029582,4899032.0
1576859029625,4881430.0
1576859029683,4835014.0
1576859029732,4782265.0
1576859029781,4722762.0
1576859029833,4676124.0
1576859029878,4632821.0
1576859029929,4590402.0
1576859029977,4539297.0
1576859030026,4512412.0
1576859030076,4481630.0
1576859030125,4461547.0
1576859030175,4451311.0
1576859030225,4443348.0
1576859030272,4446197.0
1576859030323,4438488.0
1576859030366,4396564.0
1576859030423,4315908.0
1576859030468,4264320.0
1576859030523,4203747.0
1576859030571,4151620.0
1576859030619,4114576.0
1576859030668,4092932.0
1576859030714,4111463.0
1576859030763,4124124.0
1576859030811,4115117.0
1576859030860,4109155.0
1576859030909,4078397.0
1576859030961,4026372.0
1576859031010,3987342.0
1576859031060,3955138.0
1576859031111,3867955.0
1576859031159,3788793.0
1576859031211,3723210.0
1576859031259,3670026.0
1576859031309,3616704.0
1576859031360,3481242.0
1576859031408,3451083.0
1576859031458,3447332.0
1576859031507,3436964.0
1576859031557,3430849.0
1576859031606,3423642.0
1576859031654,3404180.0
1576859031704,3390598.0
1576859031749,3383072.0
1576859031803,3366613.0
1576859031853,3316404.0
1576859031904,3242847.0
1576859031954,3187799.0
1576859032001,3143436.0
1576859032048,3108587.0
1576859032098,3071725.0
1576859032147,3038295.0
1576859032197,3003489.0
1576859032246,2998808.0
1576859032296,3022457.0
1576859032345,3057003.0
1576859032390,3040006.0
1576859032445,2899539.0
1576859032490,2681480.0
1576859032543,2655036.0
1576859032592,2643510.0
1576859032637,2630330.0
1576859032689,2585065.0
1576859032736,2575177.0
1576859032785,2622073.0
1576859032834,2708035.0
1576859032884,2697183.0
1576859032933,2662716.0
1576859032982,2644650.0
1576859033031,2649417.0
1576859033081,2643701.0
1576859033132,2743657.0
1576859033183,2736296.0
1576859033234,2736073.0
1576859033281,2739059.0
1576859033329,2726836.0
1576859033381,2718805.0
1576859033429,2716767.0
1576859033479,2638004.0
1576859033527,2559108.0
1576859033578,2582495.0
1576859033625,2580965.0
1576859033670,2508921.0
1576859033726,2504665.0
1576859033773,2420282.0
1576859033824,2390532.0
1576859033874,2435498.0
1576859033918,2471925.0
1576859033970,2472011.0
1576859034021,2413478.0
1576859034069,2467541.0
1576859034119,2459136.0
1576859034168,2489248.0
1576859034217,2474134.0
1576859034263,2556283.0
1576859034314,2574344.0
1576859034361,2935667.0
1576859034411,3131641.0
1576859034460,3130806.0
1576859034508,3307723.0
1576859034558,3396815.0
1576859034606,3572492.0
1576859034657,3616593.0
1576859034708,3553367.0
1576859034760,3622855.0
1576859034808,3643503.0
1576859034855,3434686.0
1576859034907,2849046.0
1576859034955,2752146.0
1576859035006,2729350.0
1576859035058,2723947.0
1576859035104,2720479.0
1576859035151,2700281.0
1576859035201,2687837.0
1576859035250,2674076.0
1576859035301,2626499.0
1576859035348,2375188.0
1576859035399,2104677.0
1576859035447,2148494.0
1576859035491,2322155.0
1576859035547,2430801.0
1576859035596,2465422.0
1576859035645,2470542.0
1576859035692,2480761.0
1576859035737,2499114.0
1576859035786,2519168.0
1576859035836,2545960.0
1576859035886,2575120.0
1576859035937,2592329.0
1576859035985,2608768.0
1576859036034,2610322.0
1576859036088,2613853.0
1576859036160,2616431.0
1576859036206,2615269.0
1576859036232,2615391.0
1576859036283,2606299.0
1576859036337,2577233.0
1576859036383,2565077.0
1576859036435,2550076.0
1576859036479,2558321.0
1576859036534,2576530.0
1576859036575,2579907.0
1576859036640,2579319.0
1576859036676,2580796.0
1576859036730,2575148.0
1576859036776,3187547.0
1576859036829,4205779.0
1576859036876,3639858.0
1576859036927,3721750.0
1576859036978,3823973.0
1576859037023,4018878.0
1576859037075,4078002.0
1576859037126,4134844.0
1576859037171,4170599.0
1576859037215,4212567.0
1576859037266,4228289.0
1576859037318,4232033.0
1576859037365,4229894.0
1576859037417,4288341.0
1576859037469,4291766.0
1576859037518,4370387.0
1576859037567,4468610.0
1576859037614,4409746.0
1576859037681,4659248.0
1576859037716,4629534.0
1576859037762,4673917.0
1576859037814,4612187.0
1576859037854,4608564.0
1576859037910,4674013.0
1576859037961,4770594.0
1576859038009,4844789.0
1576859038058,4923424.0
1576859038107,5112596.0
1576859038156,5346269.0
1576859038210,5126572.0
1576859038253,4989673.0
1576859038303,5216178.0
1576859038354,5566224.0
1576859038395,6105961.0
1576859038453,6393591.0
1576859038496,6356018.0
1576859038551,6794155.0
1576859038598,6849659.0
1576859038655,6815215.0
1576859038696,6788674.0
1576859038742,6770443.0
1576859038798,6803527.0
1576859038845,6771776.0
1576859038896,6741342.0
1576859038939,6711687.0
1576859038995,6713547.0
1576859039037,6720459.0
1576859039093,6688720.0
1576859039138,6671637.0
1576859039190,6575656.0
1576859039239,4922875.0
1576859039283,5910283.0
1576859039340,3273277.0
1576859039389,4240026.0
1576859039439,4411766.0
1576859039487,4540821.0
1576859039537,4530927.0
1576859039580,4181229.0
1576859039648,4253124.0
1576859039680,4290813.0
1576859039734,4370491.0
1576859039776,4384196.0
1576859039832,4328355.0
1576859039879,4227823.0
1576859039929,4204698.0
1576859039980,5068288.0
1576859040022,4438902.0
1576859040069,4250157.0
1576859040121,4186467.0
1576859040175,4059802.0
1576859040222,7202666.0
1576859040268,6586789.0
1576859040324,7135824.0
1576859040371,7641367.0
1576859040416,7225237.0
1576859040471,6364906.0
1576859040520,4592993.0
1576859040570,4081237.0
1576859040628,3219982.0
1576859040668,3030537.0
1576859040710,2832443.0
1576859040763,2730298.0
1576859040809,2723096.0
1576859040862,2746776.0
1576859040908,3061912.0
1576859040961,4889331.0
1576859041006,5597058.0
1576859041059,5313883.0
1576859041105,5504028.0
1576859041165,5497130.0
1576859041209,5501947.0
1576859041257,5377580.0
1576859041308,5255407.0
1576859041355,5183065.0
1576859041400,5095005.0
1576859041453,5067188.0
1576859041499,5084115.0
1576859041551,5174347.0
1576859041600,5241916.0
1576859041646,5270580.0
1576859041704,5272502.0
1576859041744,5260767.0
1576859041799,5262667.0
1576859041843,5266194.0
1576859041897,5254503.0
1576859041945,5262394.0
1576859041996,5295140.0
1576859042042,5198203.0
1576859042089,5073554.0
1576859042141,5157239.0
1576859042194,5248125.0
1576859042239,5204502.0
1576859042284,5080655.0
1576859042340,5201901.0
1576859042384,5165876.0
1576859042434,5027703.0
1576859042483,5077784.0
1576859042530,5131335.0
1576859042584,5106797.0
1576859042638,5102852.0
1576859042680,5151392.0
1576859042733,5198589.0
1576859042780,5104038.0
1576859042830,5073395.0
1576859042880,5133742.0
1576859042929,5198589.0
1576859042981,5192754.0
1576859043028,5115198.0
1576859043078,4998836.0
1576859043130,5191283.0
1576859043177,5235573.0
1576859043220,5071892.0
1576859043270,5133346.0
1576859043319,5187835.0
1576859043372,5166171.0
1576859043422,5153552.0
1576859043471,5153745.0
1576859043520,5128055.0
1576859043567,5104321.0
1576859043622,5106458.0
1576859043672,5105440.0
1576859043717,5105021.0
1576859043761,5107250.0
1576859043815,5101494.0
1576859043866,5092890.0
1576859043913,5095241.0
1576859043966,5076563.0
1576859044012,5049662.0
1576859044065,5038366.0
1576859044111,5035054.0
1576859044163,5027614.0
1576859044214,5012904.0
1576859044258,4998861.0
1576859044301,4987552.0
1576859044357,4983822.0
1576859044401,4994529.0
1576859044455,5000941.0
1576859044507,4993726.0
1576859044549,4968929.0
1576859044606,4919653.0
1576859044645,4882306.0
1576859044701,4865481.0
1576859044745,4876099.0
1576859044801,4895229.0
1576859044848,4898080.0
1576859044898,4914600.0
1576859044942,4929253.0
1576859044997,4942596.0
1576859045040,4941397.0
1576859045095,4935720.0
1576859045146,4912022.0
1576859045191,4915425.0
1576859045243,4896111.0
1576859045291,4911150.0
1576859045341,4930531.0
1576859045388,4978450.0
1576859045433,5016250.0
1576859045482,5029581.0
1576859045534,5070750.0
1576859045582,5109829.0
1576859045632,5136784.0
1576859045687,5191216.0
1576859045734,5284421.0
1576859045786,5392709.0
1576859045827,5461660.0
1576859045882,5512328.0
1576859045927,5520796.0
1576859045984,5521101.0
1576859046028,5502468.0
1576859046080,5492744.0
1576859046123,5519483.0
1576859046179,5520253.0
1576859046226,5518490.0
1576859046276,5518230.0
1576859046326,5536105.0
1576859046374,5551642.0
1576859046425,5587078.0
1576859046472,5603880.0
1576859046520,5663254.0
1576859046570,5701607.0
1576859046623,5808302.0
1576859046665,5888843.0
1576859046715,5956266.0
1576859046760,6031380.0
1576859046817,6078587.0
1576859046865,6214759.0
1576859046914,6327230.0
1576859046969,6367914.0
1576859047013,6384229.0
1576859047063,6377829.0
1576859047111,6396271.0
1576859047167,6430679.0
1576859047208,6467970.0
1576859047259,6496747.0
1576859047303,6547504.0
1576859047357,6538164.0
1576859047405,6557476.0
1576859047455,6547254.0
1576859047508,6535938.0
1576859047554,6536569.0
1576859047605,6539782.0
1576859047650,6594824.0
1576859047707,6628892.0
1576859047746,6615336.0
1576859047801,6640008.0
1576859047848,6632793.0
1576859047899,6616307.0
1576859047945,6582251.0
1576859047997,6534501.0
1576859048048,6487283.0
1576859048095,6454989.0
1576859048146,6423454.0
1576859048195,6413017.0
1576859048244,6388085.0
1576859048291,6352885.0
1576859048342,6323374.0
1576859048386,6293207.0
1576859048436,6271508.0
1576859048485,6251292.0
1576859048535,6227671.0
1576859048581,6151281.0
1576859048633,6083596.0
1576859048684,6029673.0
1576859048728,5987169.0
1576859048781,5951404.0
1576859048829,5914577.0
1576859048883,5872934.0
1576859048927,5841987.0
1576859048981,5809930.0
1576859049030,5786355.0
1576859049080,5769496.0
1576859049125,5749030.0
1576859049179,5743106.0
1576859049227,5720661.0
1576859049271,5676619.0
1576859049327,5661557.0
1576859049368,5650263.0
1576859049425,5641782.0
1576859049474,5599120.0
1576859049523,5581074.0
1576859049569,5542121.0
1576859049621,5530634.0
1576859049669,5525341.0
1576859049720,5514678.0
1576859049767,5500092.0
1576859049817,5494089.0
1576859049868,5468399.0
1576859049914,5396711.0
1576859049965,5324153.0
1576859050014,5288163.0
1576859050063,5279209.0
1576859050111,5305384.0
1576859050168,5330566.0
1576859050204,5321927.0
1576859050260,5368466.0
1576859050309,5382658.0
1576859050358,5401224.0
1576859050411,5435099.0
1576859050456,5463074.0
1576859050499,5450240.0
1576859050548,5462802.0
1576859050600,5458324.0
1576859050649,5463243.0
1576859050699,5466398.0
1576859050746,5467077.0
1576859050796,5448114.0
1576859050849,5422029.0
1576859050901,5401201.0
1576859050950,5398861.0
1576859050998,5387259.0
1576859051046,5391431.0
1576859051095,5409863.0
1576859051146,5414668.0
1576859051193,5425137.0
1576859051244,5428020.0
1576859051285,5401778.0
1576859051336,5379774.0
1576859051386,5377219.0
1576859051435,5381063.0
1576859051485,5407081.0
1576859051534,5411716.0
1576859051590,5454492.0
1576859051643,5453994.0
1576859051686,5484806.0
1576859051735,5511275.0
1576859051778,5531119.0
1576859051826,5527206.0
1576859051883,5532363.0
1576859051925,5581074.0
1576859051984,5596294.0
1576859052028,5635970.0
1576859052081,5636388.0
1576859052132,5629106.0
1576859052177,5609341.0
1576859052226,5587372.0
1576859052276,5576098.0
1576859052326,5557747.0
1576859052374,5554616.0
1576859052425,5546621.0
1576859052472,5558166.0
1576859052522,5552276.0
1576859052566,5542653.0
1576859052621,5532600.0
1576859052666,5493432.0
1576859052713,5466148.0
1576859052761,5450975.0
1576859052810,5441568.0
1576859052860,5425601.0
1576859052910,5397571.0
1576859052961,5395490.0
1576859053028,5403654.0
1576859053058,5442165.0
1576859053127,5487949.0
1576859053162,5520390.0
1576859053210,5556853.0
1576859053263,5573237.0
1576859053312,5551211.0
1576859053360,5517348.0
1576859053410,5486287.0
1576859053457,5481333.0
1576859053508,5520920.0
1576859053549,5550307.0
1576859053605,5556177.0
1576859053649,5532058.0
1576859053700,5525804.0
1576859053752,5552264.0
1576859053799,5599741.0
1576859053850,5629062.0
1576859053896,5659251.0
1576859053945,5646124.0
1576859053994,5598984.0
1576859054049,5571927.0
1576859054093,5555565.0
1576859054149,5546609.0
1576859054190,5559669.0
1576859054246,5589170.0
1576859054290,5634840.0
1576859054343,5692346.0
1576859054391,5729028.0
1576859054444,5814284.0
1576859054492,5878056.0
1576859054542,5955860.0
1576859054589,6004819.0
1576859054636,6039363.0
1576859054688,6032534.0
1576859054730,5945197.0
1576859054788,5904967.0
1576859054830,5882430.0
1576859054887,5872357.0
1576859054931,5848317.0
1576859054983,5840414.0
1576859055034,5824528.0
1576859055081,5819022.0
1576859055129,5828146.0
1576859055179,5824414.0
1576859055230,5806368.0
1576859055271,5790390.0
1576859055329,5788944.0
1576859055369,5794236.0
1576859055426,5783913.0
1576859055471,5764362.0
1576859055523,5759093.0
1576859055573,5771802.0
1576859055622,5768592.0
1576859055671,5777399.0
1576859055718,5790561.0
1576859055770,5788446.0
1576859055811,5786276.0
1576859055860,5808258.0
1576859055910,5811547.0
1576859055961,5819394.0
1576859056011,5839091.0
1576859056059,5826405.0
1576859056108,5810586.0
1576859056159,5809840.0
1576859056207,5817100.0
1576859056256,5810462.0
1576859056310,5813323.0
1576859056353,5811173.0
1576859056404,5820389.0
1576859056456,5829638.0
1576859056503,5842923.0
1576859056559,5854571.0
1576859056606,5886502.0
1576859056653,5888808.0
1576859056704,5937214.0
1576859056752,5954525.0
1576859056802,6026008.0
1576859056851,5991873.0
1576859056894,5970287.0
1576859056949,5995989.0
1576859056993,5998612.0
1576859057049,5995288.0
1576859057093,5990550.0
1576859057147,5975647.0
1576859057195,5975399.0
1576859057246,5970230.0
1576859057289,5955927.0
1576859057341,5934014.0
1576859057392,5904152.0
1576859057435,5885326.0
1576859057490,5873997.0
1576859057531,5853893.0
1576859057585,5836241.0
1576859057632,5827547.0
1576859057688,5818920.0
1576859057733,5823012.0
1576859057787,5828191.0
1576859057834,5831753.0
1576859057882,5830091.0
1576859057931,5838346.0
1576859057974,5841149.0
1576859058031,5827547.0
1576859058073,5799527.0
1576859058130,5791205.0
1576859058172,5784602.0
1576859058229,5789486.0
1576859058273,5778078.0
1576859058327,5772446.0
1576859058375,5771497.0
1576859058422,5774843.0
1576859058473,5777105.0
1576859058521,5781392.0
1576859058571,5781504.0
1576859058614,5787609.0
1576859058664,5792676.0
1576859058714,5800037.0
1576859058762,5785224.0
1576859058813,5768332.0
1576859058861,5760067.0
1576859058910,5758900.0
1576859058959,5762429.0
1576859059007,5762588.0
1576859059059,5758437.0
1576859059108,5755259.0
1576859059154,5757793.0
1576859059210,5765075.0
1576859059253,5764780.0
1576859059308,5769858.0
1576859059355,5767948.0
1576859059408,5768976.0
1576859059457,5748284.0
1576859059504,5730045.0
1576859059554,5717099.0
1576859059601,5711264.0
1576859059652,5708856.0
1576859059695,5695073.0
1576859059748,5687395.0
1576859059795,5692913.0
1576859059849,5698226.0
1576859059898,5705793.0
1576859059948,5714169.0
1576859060000,5706300.0
1576859060044,5716161.0
1576859060095,5718070.0
1576859060142,5707239.0
1576859060193,5705057.0
1576859060238,5705159.0
1576859060293,5709704.0
1576859060337,5708042.0
1576859060390,5705939.0
1576859060436,5703608.0
1576859060489,5709285.0
1576859060538,5719982.0
1576859060589,5733087.0
1576859060636,5739158.0
1576859060684,5739871.0
1576859060734,5744812.0
1576859060782,5744904.0
1576859060832,5730939.0
1576859060874,5710077.0
1576859060933,5703789.0
1576859060978,5702987.0
1576859061028,5700364.0
1576859061070,5703745.0
1576859061126,5698476.0
1576859061168,5701709.0
1576859061220,5698838.0
1576859061269,5690313.0
1576859061321,5691826.0
1576859061368,5698375.0
1576859061418,5704334.0
1576859061471,5692042.0
1576859061518,5664747.0
1576859061567,5648532.0
1576859061619,5642619.0
1576859061667,5640708.0
1576859061716,5606629.0
1576859061761,5558562.0
1576859061815,5508177.0
1576859061859,5506470.0
1576859061914,5522956.0
1576859061957,5550262.0
1576859062012,5572142.0
1576859062059,5586377.0
1576859062111,5585710.0
1576859062160,5575454.0
1576859062207,5542505.0
1576859062257,5518919.0
1576859062306,5522572.0
1576859062356,5517246.0
1576859062399,5521655.0
1576859062454,5528135.0
1576859062498,5550659.0
1576859062554,5585507.0
1576859062598,5598669.0
1576859062653,5617099.0
1576859062699,5632160.0
1576859062750,5639340.0
1576859062797,5646340.0
1576859062849,5644789.0
1576859062897,5621294.0
1576859062940,5611038.0
1576859062999,5612972.0
1576859063043,5612881.0
1576859063095,5614273.0
1576859063138,5613547.0
1576859063193,5620638.0
1576859063237,5625218.0
1576859063292,5634060.0
1576859063339,5641409.0
1576859063390,5648680.0
1576859063439,5656673.0
1576859063487,5663898.0
1576859063540,5678429.0
1576859063582,5678394.0
1576859063637,5659524.0
1576859063680,5649822.0
1576859063732,5647685.0
1576859063779,5655486.0
1576859063833,5657815.0
1576859063879,5667506.0
1576859063933,5666352.0
1576859063981,5672945.0
1576859064028,5675613.0
1576859064079,5684319.0
1576859064126,5690922.0
1576859064177,5703712.0
1576859064218,5707329.0
1576859064276,5712339.0
1576859064318,5692086.0
1576859064375,5680203.0
1576859064420,5663219.0
1576859064471,5646419.0
1576859064523,5628338.0
1576859064568,5592539.0
1576859064620,5577411.0
1576859064667,5550782.0
1576859064711,5549098.0
1576859064762,5543139.0
1576859064817,5547005.0
1576859064861,5579402.0
1576859064914,5607464.0
1576859064961,5629287.0
1576859065009,5625896.0
1576859065063,5605034.0
1576859065109,5604254.0
1576859065160,5614124.0
1576859065201,5621406.0
1576859065254,5629208.0
1576859065301,5636445.0
1576859065350,5644111.0
1576859065402,5664702.0
1576859065453,5688876.0
1576859065505,5720252.0
1576859065545,5750477.0
1576859065604,5781028.0
1576859065644,5806098.0
1576859065700,5826586.0
1576859065742,5831040.0
1576859065799,5839215.0
1576859065845,5854978.0
1576859065895,5873204.0
1576859065946,5885053.0
1576859065989,5893908.0
1576859066048,5903961.0
1576859066087,5915290.0
1576859066143,5929108.0
1576859066184,5939057.0
1576859066240,5956605.0
1576859066282,5968568.0
1576859066338,5980690.0
1576859066382,5988469.0
1576859066428,5978926.0
1576859066480,5972085.0
1576859066528,5975092.0
1576859066581,5981403.0
1576859066626,5988989.0
1576859066676,5997165.0
1576859066725,5998104.0
1576859066775,6002535.0
1576859066823,6005520.0
1576859066872,6009398.0
1576859066923,6016432.0
1576859066978,6021225.0
1576859067026,6032432.0
1576859067074,6035598.0
1576859067125,6045309.0
1576859067172,6043003.0
1576859067224,6026473.0
1576859067264,6020435.0
1576859067313,6021124.0
1576859067361,6018161.0
1576859067413,6019246.0
1576859067463,6022211.0
1576859067512,6024143.0
1576859067562,6023125.0
1576859067617,6024212.0
1576859067668,6037396.0
1576859067711,6040663.0
1576859067760,6053802.0
1576859067804,6068116.0
1576859067863,6077659.0
1576859067904,6064893.0
1576859067960,6053654.0
1576859068004,6045322.0
1576859068051,6046419.0
1576859068104,6045502.0
1576859068156,6044993.0
1576859068202,6039736.0
1576859068251,6041522.0
1576859068301,6059885.0
1576859068344,6084693.0
1576859068403,6110575.0
1576859068443,6135180.0
1576859068500,6149855.0
1576859068541,6160384.0
1576859068597,6175420.0
1576859068644,6185959.0
1576859068697,6172131.0
1576859068742,6158472.0
1576859068794,6149946.0
1576859068838,6143794.0
1576859068890,6143943.0
1576859068940,6139487.0
1576859068985,6135812.0
1576859069040,6132894.0
1576859069081,6132374.0
1576859069137,6132104.0
1576859069187,6133902.0
1576859069228,6133414.0
1576859069284,6129198.0
1576859069334,6123420.0
1576859069382,6100614.0
1576859069431,6074630.0
1576859069484,6056901.0
1576859069531,6055170.0
1576859069582,6048826.0
1576859069621,6037916.0
1576859069679,6033212.0
1576859069728,6039623.0
1576859069771,6042743.0
1576859069825,6049007.0
1576859069872,6061116.0
1576859069921,6070536.0
1576859069971,6083370.0
1576859070026,6099742.0
1576859070067,6110484.0
1576859070121,6109047.0
1576859070162,6114543.0
1576859070219,6127739.0
1576859070268,6144247.0
1576859070315,6160904.0
1576859070365,6167178.0
1576859070416,6174301.0
1576859070461,6186400.0
1576859070513,6193320.0
1576859070560,6211163.0
1576859070608,6222720.0
1576859070655,6234185.0
1576859070710,6246113.0
1576859070759,6250240.0
1576859070803,6233642.0
1576859070849,6227445.0
1576859070899,6228644.0
1576859070950,6227842.0
1576859070999,6225048.0
1576859071048,6220434.0
1576859071099,6217088.0
1576859071146,6216114.0
1576859071203,6218479.0
1576859071249,6226167.0
1576859071301,6231686.0
1576859071350,6231222.0
1576859071395,6229434.0
1576859071445,6212577.0
1576859071496,6188176.0
1576859071544,6169858.0
1576859071587,6156787.0
1576859071640,6153882.0
1576859071689,6142313.0
1576859071742,6137134.0
1576859071784,6129978.0
1576859071833,6129852.0
1576859071889,6132193.0
1576859071939,6137055.0
1576859071985,6140674.0
1576859072035,6140074.0
1576859072086,6144495.0
1576859072131,6145367.0
1576859072181,6134714.0
1576859072229,6120797.0
1576859072283,6115866.0
1576859072329,6123997.0
1576859072380,6122075.0
1576859072422,6118749.0
1576859072473,6119180.0
1576859072522,6124606.0
1576859072571,6125456.0
1576859072618,6125557.0
1576859072672,6126744.0
1576859072721,6133518.0
1576859072765,6146509.0
1576859072823,6134625.0
1576859072868,6121927.0
1576859072921,6113129.0
1576859072963,6111536.0
1576859073009,6120389.0
1576859073059,6118444.0
1576859073107,6111276.0
1576859073158,6112735.0
1576859073205,6113243.0
1576859073256,6124257.0
1576859073307,6131334.0
1576859073354,6139103.0
1576859073407,6142732.0
1576859073461,6143943.0
1576859073509,6138288.0
1576859073556,6140686.0
1576859073608,6150907.0
1576859073648,6171383.0
1576859073704,6194113.0
1576859073748,6220107.0
1576859073801,6246938.0
1576859073850,6277774.0
1576859073903,6311037.0
1576859073949,6340878.0
1576859074001,6370740.0
1576859074049,6384727.0
1576859074096,6397232.0
1576859074148,6398782.0
1576859074196,6389113.0
1576859074244,6385881.0
1576859074288,6384715.0
1576859074341,6394327.0
1576859074388,6397118.0
1576859074443,6402208.0
1576859074488,6406233.0
1576859074539,6406064.0
1576859074590,6407907.0
1576859074636,6403486.0
1576859074688,6398657.0
1576859074734,6396836.0
1576859074783,6390483.0
1576859074828,6374211.0
1576859074882,6355691.0
1576859074929,6348261.0
1576859074983,6340979.0
1576859075031,6337304.0
1576859075080,6332194.0
1576859075129,6329232.0
1576859075176,6325499.0
1576859075228,6327174.0
1576859075269,6329502.0
1576859075327,6331312.0
1576859075367,6323590.0
1576859075419,6314034.0
1576859075468,6302661.0
1576859075517,6296169.0
1576859075565,6286445.0
1576859075615,6282522.0
1576859075663,6280724.0
1576859075712,6304446.0
1576859075760,6330656.0
1576859075811,6343365.0
1576859075859,6349200.0
1576859075909,6358765.0
1576859075963,6370909.0
1576859076015,6384930.0
1576859076064,6388301.0
1576859076112,6382782.0
1576859076161,6381809.0
1576859076210,6376722.0
1576859076258,6356900.0
1576859076308,6345153.0
1576859076350,6335857.0
1576859076407,6344145.0
1576859076449,6346666.0
1576859076502,6347741.0
1576859076552,6333212.0
1576859076602,6175930.0
1576859076649,6181233.0
1576859076702,6187373.0
1576859076749,6178588.0
1576859076792,6211772.0
1576859076849,6276360.0
1576859076890,6341953.0
1576859076941,6417247.0
1576859076992,6475014.0
1576859077042,6495378.0
1576859077092,6502479.0
1576859077139,6505035.0
1576859077193,6479457.0
1576859077240,6476698.0
1576859077291,6479175.0
1576859077338,6480713.0
1576859077389,6484557.0
1576859077431,6481607.0
1576859077483,6493230.0
1576859077529,6492066.0
1576859077581,6492812.0
1576859077632,6461423.0
1576859077684,6447357.0
1576859077732,6435011.0
1576859077776,6435191.0
1576859077830,6425805.0
1576859077879,6418761.0
1576859077930,6398602.0
1576859077971,6400546.0
1576859078022,6405136.0
1576859078072,6418954.0
1576859078121,6420752.0
1576859078171,6428745.0
1576859078218,6422550.0
1576859078266,6400546.0
1576859078317,6378949.0
1576859078365,6370084.0
1576859078415,6349301.0
1576859078468,6326710.0
1576859078511,6311220.0
1576859078568,6304402.0
1576859078612,6309489.0
1576859078666,6320875.0
1576859078714,6334760.0
1576859078764,6344417.0
1576859078813,6358257.0
1576859078866,6378168.0
1576859078911,6390641.0
1576859078954,6402897.0
1576859079012,6382533.0
1576859079052,6425998.0
1576859079108,6483167.0
1576859079154,6521984.0
1576859079207,6544599.0
1576859079255,6563730.0
1576859079304,6582737.0
1576859079353,6590856.0
1576859079401,6598148.0
1576859079450,6632399.0
1576859079494,6667394.0
1576859079550,6677174.0
1576859079592,6687904.0
1576859079649,7042294.0
1576859079694,7058257.0
1576859079747,7059790.0
1576859079796,7068120.0
1576859079842,7079406.0
1576859079894,7088859.0
1576859079942,7096174.0
1576859079991,7097681.0
1576859080034,7105188.0
1576859080091,7105449.0
1576859080132,7106161.0
1576859080189,7112600.0
1576859080234,7119982.0
1576859080288,7115805.0
1576859080335,7097270.0
1576859080386,7096696.0
1576859080434,7098764.0
1576859080481,7103229.0
1576859080532,7134791.0
1576859080576,7154148.0
1576859080627,7160081.0
1576859080672,7177299.0
1576859080721,7190848.0
1576859080775,7214754.0
1576859080821,7238355.0
1576859080877,7259780.0
1576859080924,7278304.0
1576859080966,7281385.0
1576859081023,7268782.0
1576859081064,7281331.0
1576859081115,7291522.0
1576859081166,7290961.0
1576859081214,7277521.0
1576859081264,7265233.0
1576859081315,7266919.0
1576859081367,7248329.0
1576859081418,7244288.0
1576859081464,7248179.0
1576859081515,7254535.0
1576859081562,7259057.0
1576859081613,7254535.0
1576859081661,7238178.0
1576859081711,7215438.0
1576859081754,7202781.0
1576859081809,7196780.0
1576859081857,7192738.0
1576859081907,7193491.0
1576859081957,7182670.0
1576859082006,7179684.0
1576859082057,7176780.0
1576859082101,7179217.0
1576859082149,7172630.0
1576859082197,7177080.0
1576859082245,7189806.0
1576859082297,7178683.0
1576859082344,7168588.0
1576859082395,7154929.0
1576859082442,7139217.0
1576859082488,7136600.0
1576859082541,7132462.0
1576859082589,7130695.0
1576859082640,7125942.0
1576859082685,7121627.0
1576859082741,7114656.0
1576859082787,7108873.0
1576859082834,7114436.0
1576859082890,7120489.0
1576859082937,7113092.0
1576859082988,7095244.0
1576859083030,7073570.0
1576859083085,7058353.0
1576859083135,7057501.0
1576859083179,7054572.0
1576859083233,7054119.0
1576859083277,7048556.0
1576859083331,7044817.0
1576859083374,7045393.0
1576859083431,7054173.0
1576859083477,7066188.0
1576859083526,7073819.0
1576859083577,7078572.0
1576859083626,7084120.0
1576859083677,7091913.0
1576859083724,7100339.0
1576859083774,7127763.0
1576859083816,7152573.0
1576859083873,7176342.0
1576859083917,7190848.0
1576859083970,7211835.0
1576859084021,7234451.0
1576859084068,7255111.0
1576859084118,7264699.0
1576859084165,7291057.0
1576859084216,7310454.0
1576859084257,7317550.0
1576859084312,7320113.0
1576859084358,7340632.0
1576859084413,7375401.0
1576859084460,7401814.0
1576859084510,7414882.0
1576859084560,7425979.0
1576859084607,7431128.0
1576859084659,7433580.0
1576859084701,7433334.0
1576859084757,7446183.0
1576859084805,7446774.0
1576859084854,7441745.0
1576859084898,7421115.0
1576859084952,7386360.0
1576859085001,7369085.0
1576859085050,7367017.0
1576859085101,7369019.0
1576859085147,7359168.0
1576859085199,7356881.0
1576859085248,7340440.0
1576859085297,7317824.0
1576859085338,7306961.0
1576859085395,7292317.0
1576859085439,7273440.0
1576859085492,7255672.0
1576859085538,7256590.0
1576859085591,7240713.0
1576859085641,7216699.0
1576859085682,7201998.0
1576859085739,7188192.0
1576859085779,7176822.0
1576859085830,7154875.0
1576859085885,7122176.0
1576859085935,7104162.0
1576859085980,7093051.0
1576859086033,7097984.0
1576859086079,7105476.0
1576859086130,7108243.0
1576859086176,7096982.0
1576859086228,7067214.0
1576859086280,7036556.0
1576859086322,7013885.0
1576859086377,6994582.0
1576859086419,6979650.0
1576859086467,6964145.0
1576859086522,6945129.0
1576859086564,6926156.0
1576859086621,6916416.0
1576859086667,6903650.0
1576859086714,6888430.0
1576859086761,6871635.0
1576859086815,6854688.0
1576859086864,6822769.0
1576859086913,6790811.0
1576859086963,6781604.0
1576859087019,6778850.0
1576859087062,6769905.0
1576859087107,6762193.0
1576859087163,6749041.0
1576859087207,6735177.0
1576859087256,6729412.0
1576859087301,6727837.0
1576859087354,6725713.0
1576859087403,6722013.0
1576859087457,6710205.0
1576859087502,6682190.0
1576859087556,6660204.0
1576859087604,6645203.0
1576859087654,6636150.0
1576859087702,6629572.0
1576859087746,6619682.0
1576859087800,6608393.0
1576859087851,6610038.0
1576859087902,6609572.0
1576859087941,6610395.0
1576859087992,6613723.0
1576859088041,6615640.0
1576859088098,6614806.0
1576859088143,6612435.0
1576859088196,6605696.0
1576859088248,6601681.0
1576859088291,6605230.0
1576859088341,6600681.0
1576859088386,6597956.0
1576859088434,6595982.0
1576859088483,6591913.0
1576859088533,6583298.0
1576859088582,6583283.0
1576859088631,6575175.0
1576859088682,6560201.0
1576859088730,6551325.0
1576859088783,6548051.0
1576859088827,6548913.0
1576859088880,6539707.0
1576859088926,6530542.0
1576859088984,6514980.0
1576859089026,6512844.0
1576859089082,6520118.0
1576859089122,6527734.0
1576859089179,6533831.0
1576859089224,6533063.0
1576859089271,6522338.0
1576859089324,6501501.0
1576859089374,6481747.0
1576859089420,6477363.0
1576859089471,6479104.0
1576859089521,6477321.0
1576859089568,6479926.0
1576859089622,6473966.0
1576859089662,6477090.0
1576859089719,6476952.0
1576859089761,6478611.0
1576859089817,6466582.0
1576859089867,6449060.0
1576859089915,6435062.0
1576859089962,6428718.0
1576859090011,6425868.0
1576859090062,6430705.0
1576859090109,6430089.0
1576859090161,6425334.0
1576859090204,6429129.0
1576859090259,6427731.0
1576859090304,6428829.0
1576859090358,6423788.0
1576859090411,6426813.0
1576859090453,6422279.0
1576859090505,6408349.0
1576859090552,6407800.0
1576859090600,6411950.0
1576859090649,6410156.0
1576859090703,6414936.0
1576859090743,6418690.0
1576859090797,6424349.0
1576859090842,6421142.0
1576859090898,6422678.0
1576859090946,6435254.0
1576859090995,6442678.0
1576859091042,6435266.0
1576859091092,6426156.0
1576859091141,6421129.0
1576859091185,6414663.0
1576859091243,6413156.0
1576859091291,6410210.0
1576859091337,6397540.0
1576859091385,6400814.0
1576859091431,6399101.0
1576859091484,6398456.0
1576859091529,6397307.0
1576859091580,6395209.0
1576859091634,6385033.0
1576859091678,6373211.0
1576859091725,6372251.0
1576859091776,6366867.0
1576859091828,6367512.0
1576859091879,6372416.0
1576859091928,6377880.0
1576859091974,6377799.0
1576859092025,6381949.0
1576859092073,6383347.0
1576859092126,6390936.0
1576859092171,6393883.0
1576859092221,6382156.0
1576859092269,6379923.0
1576859092323,6368676.0
1576859092364,6367293.0
1576859092421,6373499.0
1576859092469,6372512.0
1576859092519,6372155.0
1576859092558,6368772.0
1576859092608,6372470.0
1576859092660,6372292.0
1576859092708,6376539.0
1576859092758,6381787.0
1576859092807,6385538.0
1576859092857,6377607.0
1576859092906,6368662.0
1576859092954,6365238.0
1576859093007,6357991.0
1576859093059,6371059.0
1576859093106,6371005.0
1576859093149,6384868.0
1576859093204,6395128.0
1576859093254,6405910.0
1576859093301,6418978.0
1576859093348,6429156.0
1576859093403,6433568.0
1576859093448,6448034.0
1576859093500,6448007.0
1576859093548,6447047.0
1576859093598,6452445.0
1576859093645,6453444.0
1576859093695,6455185.0
1576859093744,6458828.0
1576859093788,6465705.0
1576859093838,6455857.0
1576859093886,6459035.0
1576859093942,6455527.0
1576859093987,6459773.0
1576859094041,6462912.0
1576859094089,6462102.0
1576859094135,6456307.0
1576859094186,6452034.0
1576859094237,6444088.0
1576859094284,6443227.0
1576859094333,6443416.0
1576859094381,6448238.0
1576859094428,6453747.0
1576859094478,6464337.0
1576859094525,6473432.0
1576859094582,6474008.0
1576859094629,6476556.0
1576859094679,6475460.0
1576859094728,6465705.0
1576859094777,6458158.0
1576859094825,6456649.0
1576859094874,6458816.0
1576859094926,6469720.0
1576859094969,6468814.0
1576859095022,6465348.0
1576859095065,6476280.0
1576859095123,6487035.0
1576859095168,6509651.0
1576859095221,6531323.0
1576859095269,6554818.0
1576859095316,6573009.0
1576859095365,6595667.0
1576859095415,6617984.0
1576859095465,6639478.0
1576859095507,6672573.0
1576859095565,6699150.0
1576859095606,6718316.0
1576859095662,6734643.0
1576859095709,6754370.0
1576859095755,6765467.0
1576859095809,6788770.0
1576859095860,6806660.0
1576859095908,6820098.0
1576859095955,6819140.0
1576859096002,6828347.0
1576859096049,6829646.0
1576859096099,6853838.0
1576859096150,6875827.0
1576859096198,6893484.0
1576859096248,6919431.0
1576859096295,6936937.0
1576859096344,6975089.0
1576859096393,7004502.0
1576859096442,7042557.0
1576859096490,7080846.0
1576859096541,7121683.0
1576859096590,7157710.0
1576859096640,7196081.0
1576859096686,7231204.0
1576859096738,7274811.0
1576859096785,7310961.0
1576859096834,7353319.0
1576859096883,7398921.0
1576859096938,7444992.0
1576859096989,7482582.0
1576859097029,7523200.0
1576859097087,7551076.0
1576859097129,7579268.0
1576859097181,7603955.0
1576859097231,7621750.0
1576859097277,7640792.0
1576859097330,7659505.0
1576859097378,7671382.0
1576859097430,7678833.0
1576859097475,7693452.0
1576859097524,7701587.0
1576859097572,7728425.0
1576859097625,7753371.0
1576859097668,7770385.0
1576859097722,7760096.0
1576859097770,7761467.0
1576859097820,7757659.0
1576859097870,7749028.0
1576859097919,7742001.0
1576859097970,7741479.0
1576859098017,7733944.0
1576859098069,7726478.0
1576859098109,7727165.0
1576859098167,7718382.0
1576859098209,7718466.0
1576859098261,7710628.0
1576859098311,7707136.0
1576859098362,7698547.0
1576859098411,7695820.0
1576859098461,7701299.0
1576859098509,7682094.0
1576859098551,7665764.0
1576859098608,7645833.0
1576859098649,7617956.0
1576859098708,7602461.0
1576859098753,7585804.0
1576859098797,7556817.0
1576859098852,7531899.0
1576859098903,7495458.0
1576859098950,7462500.0
1576859098999,7424758.0
1576859099047,7392676.0
1576859099092,7374360.0
1576859099149,7349169.0
1576859099190,7323522.0
1576859099248,7303591.0
1576859099292,7285016.0
1576859099346,7252548.0
1576859099393,7181917.0
1576859099443,7102119.0
1576859099491,7032859.0
1576859099539,6968706.0
1576859099590,6913088.0
1576859099637,6865388.0
1576859099687,6801070.0
1576859099731,6729890.0
1576859099788,6665260.0
1576859099832,6603820.0
1576859099886,6548913.0
1576859099934,6505501.0
1576859099982,6468076.0
1576859100023,6432568.0
1576859100074,6397814.0
1576859100122,6327729.0
1576859100178,6252233.0
1576859100228,6197959.0
1576859100269,6147712.0
1576859100325,6092189.0
1576859100372,6052708.0
1576859100427,6009516.0
1576859100473,5967335.0
1576859100523,5921555.0
1576859100571,5890648.0
1576859100615,5865307.0
1576859100670,5857196.0
1576859100711,5841430.0
1576859100768,5836989.0
1576859100814,5843401.0
1576859100866,5836839.0
1576859100913,5785454.0
1576859100967,5729166.0
1576859101014,5690247.0
1576859101061,5663808.0
1576859101111,5640957.0
1576859101158,5620531.0
1576859101207,5594518.0
1576859101251,5571847.0
1576859101309,5557284.0
1576859101355,5553174.0
1576859101406,5544763.0
1576859101455,5534584.0
1576859101503,5531667.0
1576859101552,5530104.0
1576859101601,5511187.0
1576859101651,5458596.0
1576859101693,5411158.0
1576859101749,5389513.0
1576859101794,5372457.0
1576859101845,5363936.0
1576859101895,5355401.0
1576859101947,5334909.0
1576859101994,5322498.0
1576859102035,5317208.0
1576859102093,5307360.0
1576859102141,5300113.0
1576859102190,5296155.0
1576859102233,5283387.0
1576859102289,5234973.0
1576859102337,5194508.0
1576859102388,5173206.0
1576859102433,5162397.0
1576859102483,5161629.0
1576859102533,5148054.0
1576859102579,5134052.0
1576859102631,5126368.0
1576859102673,5125299.0
1576859102730,5126520.0
1576859102772,5128711.0
1576859102822,5131712.0
1576859102874,5092519.0
1576859102921,5042887.0
1576859102969,5014365.0
1576859103019,5009735.0
1576859103067,5007202.0
1576859103118,5004556.0
1576859103165,4993282.0
1576859103215,4986749.0
1576859103265,4985462.0
1576859103315,4985543.0
1576859103363,4988913.0
1576859103417,4989885.0
1576859103466,4981585.0
1576859103515,4929198.0
1576859103562,4895884.0
1576859103613,4888499.0
1576859103656,4889267.0
1576859103710,4886813.0
1576859103755,4880841.0
1576859103803,4874555.0
1576859103859,4875251.0
1576859103908,4876046.0
1576859103956,4879566.0
1576859104006,4886759.0
1576859104056,4886129.0
1576859104096,4894144.0
1576859104154,4856827.0
1576859104194,4821307.0
1576859104251,4809469.0
1576859104300,4815510.0
1576859104350,4820128.0
1576859104399,4817169.0
1576859104446,4811236.0
1576859104496,4811182.0
1576859104544,4814333.0
1576859104592,4823827.0
1576859104635,4831017.0
1576859104693,4832278.0
1576859104735,4836196.0
1576859104791,4841361.0
1576859104835,4820497.0
1576859104886,4774016.0
1576859104932,4758988.0
1576859104986,4761469.0
1576859105027,4765796.0
1576859105079,4761757.0
1576859105135,4746097.0
1576859105177,4746276.0
1576859105232,4751303.0
1576859105276,4756386.0
1576859105331,4760839.0
1576859105378,4766921.0
1576859105429,4771798.0
1576859105479,4774564.0
1576859105524,4773250.0
1576859105570,4737304.0
1576859105619,4705905.0
1576859105675,4699657.0
1576859105718,4704878.0
1576859105774,4705344.0
1576859105820,4692425.0
1576859105872,4688932.0
1576859105917,4692029.0
1576859105968,4695864.0
1576859106019,4706577.0
1576859106067,4712617.0
1576859106114,4716098.0
1576859106164,4722631.0
1576859106215,4712713.0
1576859106258,4677001.0
1576859106314,4658589.0
1576859106359,4661452.0
1576859106411,4673659.0
1576859106460,4676027.0
1576859106508,4677302.0
1576859106560,4681905.0
1576859106606,4717920.0
1576859106657,4747879.0
1576859106698,4764152.0
1576859106753,4781976.0
1576859106799,4802456.0
1576859106854,4814648.0
1576859106899,4786660.0
1576859106951,4746468.0
1576859107001,4720632.0
1576859107042,4698178.0
1576859107101,4689521.0
1576859107145,4673974.0
1576859107197,4666412.0
1576859107239,4674877.0
1576859107296,4710304.0
1576859107339,4731729.0
1576859107392,4750235.0
1576859107440,4763276.0
1576859107490,4751015.0
1576859107542,4735138.0
1576859107587,4729398.0
1576859107639,4742823.0
1576859107685,4773469.0
1576859107737,4787648.0
1576859107779,4814018.0
1576859107834,4852032.0
1576859107879,4860457.0
1576859107932,4844004.0
1576859107978,4838606.0
1576859108030,4836964.0
1576859108083,4843923.0
1576859108122,4832004.0
1576859108171,4858567.0
1576859108222,4936049.0
1576859108270,5010968.0
1576859108318,5043256.0
1576859108369,5067037.0
1576859108419,5103163.0
1576859108471,5127532.0
1576859108520,5118109.0
1576859108565,5069339.0
1576859108621,5025915.0
1576859108661,4972625.0
1576859108719,4902993.0
1576859108762,4845580.0
1576859108810,4804305.0
1576859108861,4772551.0
1576859108909,4740194.0
1576859108958,4703315.0
1576859109007,4674097.0
1576859109058,4657383.0
1576859109102,4636177.0
1576859109160,4621986.0
1576859109204,4607670.0
1576859109258,4593915.0
1576859109302,4575724.0
1576859109357,4530668.0
1576859109406,4500174.0
1576859109452,4482269.0
1576859109498,4474173.0
1576859109549,4464694.0
1576859109600,4450651.0
1576859109643,4441897.0
1576859109700,4438912.0
1576859109741,4429856.0
1576859109799,4216066.0
1576859109842,4154802.0
1576859109897,4149099.0
1576859109944,4146306.0
1576859109992,4138053.0
1576859110042,4112103.0
1576859110093,4082417.0
1576859110143,4067632.0
1576859110183,4059387.0
1576859110239,4050854.0
1576859110283,4041847.0
1576859110338,4034854.0
1576859110383,4035740.0
1576859110433,4029933.0
1576859110484,4030260.0
1576859110532,4025512.0
1576859110580,4022487.0
1576859110629,4026166.0
1576859110681,4028334.0
1576859110723,4019819.0
1576859110773,3990123.0
1576859110819,3975050.0
1576859110871,3969030.0
1576859110922,3967353.0
1576859110969,3967719.0
1576859111019,3960620.0
1576859111067,3964858.0
1576859111118,3969444.0
1576859111164,3979798.0
1576859111222,3986165.0
1576859111262,3990144.0
1576859111319,3992937.0
1576859111361,4000623.0
1576859111417,4006460.0
1576859111463,4010063.0
1576859111515,3996558.0
1576859111564,3982244.0
1576859111610,3980936.0
1576859111658,3983796.0
1576859111704,3982303.0
1576859111754,3985048.0
1576859111801,3983796.0
1576859111858,3991346.0
1576859111900,3994863.0
1576859111953,4001710.0
1576859112004,4004197.0
1576859112052,4012172.0
1576859112100,4014579.0
1576859112146,4023046.0
1576859112203,4026437.0
1576859112243,4030654.0
1576859112300,4011863.0
1576859112343,4000103.0
1576859112397,3994237.0
1576859112448,3991848.0
1576859112496,3992829.0
1576859112545,3989180.0
1576859112593,3992888.0
1576859112640,3996326.0
1576859112688,3995893.0
1576859112743,3999467.0
1576859112782,4000420.0
1576859112833,4007480.0
1576859112886,4017566.0
1576859112937,4020262.0
1576859112984,4026609.0
1576859113036,4027544.0
1576859113084,4024145.0
1576859113131,4010207.0
1576859113180,4001857.0
1576859113228,3994699.0
1576859113275,3997212.0
1576859113322,3992387.0
1576859113379,3993370.0
1576859113427,3992330.0
1576859113476,3998754.0
1576859113526,3999573.0
1576859113575,3999485.0
1576859113625,4002086.0
1576859113671,4006152.0
1576859113720,4013261.0
1576859113764,4021130.0
1576859113815,4028517.0
1576859113867,4023903.0
1576859113911,4017363.0
1576859113962,4009600.0
1576859114008,4003002.0
1576859114061,4001991.0
1576859114108,3998388.0
1576859114158,3997956.0
1576859114205,3997078.0
1576859114263,4004244.0
1576859114305,4005987.0
1576859114361,4005189.0
1576859114409,4009455.0
1576859114458,4020695.0
1576859114506,4028932.0
1576859114556,4017960.0
1576859114605,4000700.0
1576859114652,4004158.0
1576859114700,4001942.0
1576859114744,3998860.0
1576859114802,3994621.0
1576859114850,4001412.0
1576859114900,3998360.0
1576859114951,4001893.0
1576859114998,3997039.0
1576859115049,4002068.0
1576859115095,4020041.0
1576859115142,4016583.0
1576859115191,4025415.0
1576859115240,4068374.0
1576859115289,4100545.0
1576859115339,4173633.0
1576859115387,4244640.0
1576859115439,4332724.0
1576859115487,4418700.0
1576859115537,4475942.0
1576859115585,4530169.0
1576859115629,4601187.0
1576859115682,4663322.0
1576859115726,4722781.0
1576859115780,4802755.0
1576859115827,4821219.0
1576859115875,4849576.0
1576859115925,4884857.0
1576859115973,4890983.0
1576859116021,4906164.0
1576859116070,4951289.0
1576859116120,4997071.0
1576859116169,5016122.0
1576859116218,5031803.0
1576859116271,5073192.0
1576859116320,5108059.0
1576859116367,5103746.0
1576859116421,5065766.0
1576859116470,5041513.0
1576859116518,5001165.0
1576859116565,4974329.0
1576859116616,5011460.0
1576859116666,5100672.0
1576859116709,5233940.0
1576859116766,5381445.0
1576859116806,5527369.0
1576859116859,5639446.0
1576859116905,5690573.0
1576859116955,5726191.0
1576859117003,5759932.0
1576859117052,5857601.0
1576859117102,5882296.0
1576859117150,5909014.0
1576859117200,5938401.0
1576859117249,5956707.0
1576859117298,5971464.0
1576859117349,5989589.0
1576859117398,6023895.0
1576859117453,6133912.0
1576859117501,6242539.0
1576859117549,6330430.0
1576859117596,6409331.0
1576859117647,6484195.0
1576859117688,6536366.0
1576859117746,6550625.0
1576859117787,6550060.0
1576859117836,6554051.0
1576859117888,6545005.0
1576859117943,6532262.0
1576859117985,6523341.0
1576859118039,6508562.0
1576859118090,6483065.0
1576859118136,6460212.0
1576859118188,6451088.0
1576859118228,6461864.0
1576859118285,6486977.0
1576859118327,6514115.0
1576859118381,6543794.0
1576859118427,6599879.0
1576859118475,6671225.0
1576859118524,6730567.0
1576859118574,6794542.0
1576859118622,7225667.0
1576859118671,7376145.0
1576859118721,7406919.0
1576859118770,7410951.0
1576859118819,7394910.0
1576859118870,7381204.0
1576859118922,7370078.0
1576859118971,7352069.0
1576859119019,7344775.0
1576859119071,7351413.0
1576859119115,7363852.0
1576859119168,7372014.0
1576859119209,7394923.0
1576859119266,7410467.0
1576859119308,7418204.0
1576859119361,7431239.0
1576859119410,7462412.0
1576859119463,7493127.0
1576859119510,7529758.0
1576859119557,7565345.0
1576859119609,7617661.0
1576859119655,7641922.0
1576859119707,7659248.0
1576859119751,7645841.0
1576859119806,7636651.0
1576859119854,7624883.0
1576859119904,7605381.0
1576859119948,7590435.0
1576859119998,7569492.0
1576859120050,7566656.0
1576859120092,7570874.0
1576859120150,7576174.0
1576859120190,7577029.0
1576859120246,7567554.0
1576859120292,7555202.0
1576859120343,7539189.0
1576859120394,7529986.0
1576859120444,7510981.0
1576859120490,7503784.0
1576859120539,7493086.0
1576859120589,7473011.0
1576859120631,7437580.0
1576859120688,7378910.0
1576859120733,7312947.0
1576859120787,7234775.0
1576859120829,7163325.0
1576859120881,7096734.0
1576859120932,7033208.0
1576859120976,6974325.0
1576859121030,6932981.0
1576859121072,6908346.0
1576859121129,6887390.0
1576859121171,6841144.0
1576859121227,6786708.0
1576859121272,6711170.0
1576859121324,6639052.0
1576859121373,6585185.0
1576859121422,6539466.0
1576859121470,6506455.0
1576859121514,6471449.0
1576859121571,6444267.0
1576859121611,6421457.0
1576859121668,6412139.0
1576859121711,6407096.0
1576859121766,6411484.0
1576859121813,6391654.0
1576859121864,6382164.0
1576859121914,6387294.0
1576859121963,6397324.0
1576859122012,6407239.0
1576859122058,6424363.0
1576859122107,6443683.0
1576859122152,6471976.0
1576859122208,6496168.0
1576859122257,6525304.0
1576859122307,6545492.0
1576859122356,6542359.0
1576859122402,6558284.0
1576859122453,6581294.0
1576859122499,6610201.0
1576859122551,6638126.0
1576859122593,6677903.0
1576859122650,6723578.0
1576859122694,6769996.0
1576859122747,6811568.0
1576859122795,6859338.0
1576859122844,6900241.0
1576859122895,6940759.0
1576859122942,6958696.0
1576859122993,6986206.0
1576859123041,7014830.0
1576859123091,7040788.0
1576859123132,7064494.0
1576859123190,7087787.0
1576859123233,7111695.0
1576859123287,7136099.0
1576859123334,7158609.0
1576859123387,7182545.0
1576859123434,7197091.0
1576859123482,7213432.0
1576859123532,7222807.0
1576859123576,7229816.0
1576859123626,7224688.0
1576859123672,7231354.0
1576859123728,7250744.0
1576859123774,7260275.0
1576859123820,7266772.0
1576859123875,7281177.0
1576859123925,7290293.0
1576859123975,7303744.0
1576859124020,7302205.0
1576859124073,7304826.0
1576859124113,7312931.0
1576859124170,7326597.0
1576859124214,7346682.0
1576859124268,7352069.0
1576859124317,7367669.0
1576859124367,7397800.0
1576859124415,7406092.0
1576859124463,7423918.0
1576859124512,7441669.0
1576859124561,7458324.0
1576859124611,7467468.0
1576859124654,7481758.0
1576859124709,7488412.0
1576859124758,7500495.0
1576859124808,7506749.0
1576859124853,7516920.0
1576859124905,7524528.0
1576859124955,7533547.0
1576859124996,7540001.0
1576859125053,7541455.0
1576859125095,7513443.0
1576859125151,7503557.0
1576859125194,7498785.0
1576859125243,7504056.0
1576859125292,7506534.0
1576859125341,7516707.0
1576859125390,7518003.0
1576859125439,7520424.0
1576859125487,7527306.0
1576859125538,7533660.0
1576859125585,7535656.0
1576859125635,7529715.0
1576859125689,7532577.0
1576859125738,7533304.0
1576859125786,7532564.0
1576859125830,7528560.0
1576859125885,7522519.0
1576859125937,7497231.0
1576859125983,7492999.0
1576859126033,7487188.0
1576859126077,7480691.0
1576859126132,7476702.0
1576859126176,7459036.0
1576859126230,7449617.0
1576859126277,7439360.0
1576859126327,7443092.0
1576859126371,7449290.0
1576859126426,7456115.0
1576859126476,7454504.0
1576859126522,7457282.0
1576859126574,7455275.0
1576859126620,7454376.0
1576859126672,7450516.0
1576859126716,7425640.0
1576859126771,7386332.0
1576859126820,7369336.0
1576859126866,7370790.0
1576859126917,7370490.0
1576859126963,7373711.0
1576859127012,7372428.0
1576859127057,7366830.0
1576859127114,7364449.0
1576859127159,7361016.0
1576859127211,7355957.0
1576859127258,7343221.0
1576859127303,7316395.0
1576859127360,7296663.0
1576859127404,7281774.0
1576859127457,7275863.0
1576859127498,7264550.0
1576859127546,7257840.0
1576859127600,7264023.0
1576859127652,7265989.0
1576859127699,7279424.0
1576859127744,7275747.0
1576859127800,7281761.0
1576859127847,7278725.0
1576859127897,7259619.0
1576859127945,7258012.0
1576859127995,7272486.0
1576859128039,7283028.0
1576859128091,7297574.0
1576859128139,7313231.0
1576859128191,7331525.0
1576859128234,7336983.0
1576859128281,7348963.0
1576859128332,7353495.0
1576859128381,7356072.0
1576859128430,7341811.0
1576859128480,7323089.0
1576859128529,7309457.0
1576859128577,7306309.0
1576859128626,7312291.0
1576859128678,7308802.0
1576859128724,7309271.0
1576859128775,7308375.0
1576859128823,7305438.0
1576859128873,7302988.0
1576859128919,7304527.0
1576859128977,7304998.0
1576859129019,7307192.0
1576859129076,7288614.0
1576859129120,7254392.0
1576859129166,7238592.0
1576859129217,7230400.0
1576859129264,7221952.0
1576859129313,7216153.0
1576859129363,7214003.0
1576859129412,7209884.0
1576859129462,7212305.0
1576859129510,7209671.0
1576859129561,7217748.0
1576859129608,7215697.0
1576859129662,7212776.0
1576859129706,7220029.0
1576859129757,7209543.0
1576859129804,7172487.0
1576859129854,7156216.0
1576859129902,7143764.0
1576859129951,7137766.0
1576859130004,7126681.0
1576859130056,7120099.0
1576859130105,7109870.0
1576859130150,7104243.0
1576859130201,7101992.0
1576859130248,7103731.0
1576859130302,7102576.0
1576859130342,7105981.0
1576859130396,7109442.0
1576859130441,7113973.0
1576859130496,7110556.0
1576859130542,7078512.0
1576859130594,7057313.0
1576859130643,7044820.0
1576859130689,7034035.0
1576859130740,7027837.0
1576859130785,7015086.0
1576859130833,7013020.0
1576859130889,7013519.0
1576859130938,7016296.0
1576859130984,7023349.0
1576859131030,7019473.0
1576859131083,7022638.0
1576859131125,7028577.0
1576859131177,7042439.0
1576859131223,7051202.0
1576859131274,7058795.0
1576859131323,7046970.0
1576859131373,7028664.0
1576859131422,7019317.0
1576859131472,7016768.0
1576859131519,7012421.0
1576859131569,7014131.0
1576859131619,7011409.0
1576859131675,7012193.0
1576859131719,7007249.0
1576859131771,7018234.0
1576859131822,7018434.0
1576859131863,7028149.0
1576859131912,7030830.0
1576859131961,7038067.0
1576859132018,7040744.0
1576859132067,7045944.0
1576859132112,7036741.0
1576859132162,7017835.0
1576859132209,7003545.0
1576859132260,7002150.0
1576859132305,7008189.0
1576859132361,7008320.0
1576859132402,7003701.0
1576859132458,7006978.0
1576859132506,7017395.0
1576859132553,7014246.0
1576859132607,7026142.0
1576859132654,7027937.0
1576859132700,7036600.0
1576859132753,7041728.0
1576859132803,7029816.0
1576859132847,7016596.0
1576859132900,7015170.0
1576859132942,7017036.0
1576859132998,7024033.0
1576859133047,7026127.0
1576859133094,7029020.0
1576859133142,7036172.0
1576859133190,7045148.0
1576859133236,7053708.0
1576859133282,7067586.0
1576859133341,7078999.0
1576859133382,7084382.0
1576859133438,7065920.0
1576859133489,7053936.0
1576859133536,7045388.0
1576859133584,7039434.0
1576859133635,7045004.0
1576859133680,7050104.0
1576859133729,7047598.0
1576859133778,7050903.0
1576859133825,7050048.0
1576859133881,7055475.0
1576859133925,7060106.0
1576859133980,7072458.0
1576859134027,7061488.0
1576859134073,7041756.0
1576859134126,7031242.0
1576859134171,7026114.0
1576859134221,7025756.0
1576859134268,7028177.0
1576859134321,7020684.0
1576859134363,7021895.0
1576859134419,7020771.0
1576859134468,7045532.0
1576859134516,7079882.0
1576859134564,7121425.0
1576859134615,7158054.0
1576859134663,7180208.0
1576859134706,7184780.0
1576859134758,7189112.0
1576859134805,7195525.0
1576859134861,7206138.0
1576859134907,7207477.0
1576859134957,7215441.0
1576859135005,7214415.0
1576859135056,7222650.0
1576859135106,7224688.0
1576859135151,7229544.0
1576859135201,7241840.0
1576859135245,7243223.0
1576859135300,7241768.0
1576859135347,7221053.0
1576859135400,7203617.0
1576859135450,7198615.0
1576859135497,7197731.0
1576859135546,7195466.0
1576859135589,7189199.0
1576859135644,7179796.0
1576859135690,7180520.0
1576859135740,7176419.0
1576859135787,7178682.0
1576859135835,7187729.0
1576859135887,7181376.0
1576859135936,7165475.0
1576859135987,7151984.0
1576859136036,7143237.0
1576859136085,7141854.0
1576859136135,7137538.0
1576859136177,7131069.0
1576859136224,7126497.0
1576859136278,7124119.0
1576859136323,7120087.0
1576859136375,7118205.0
1576859136426,7117337.0
1576859136479,7118133.0
1576859136525,7111080.0
1576859136576,7090951.0
1576859136623,7077260.0
1576859136667,7071774.0
1576859136716,7071690.0
1576859136764,7065605.0
1576859136823,7021368.0
1576859136865,6955991.0
1576859136914,6879283.0
1576859136963,6812195.0
1576859137012,6777047.0
1576859137062,6774356.0
1576859137109,6771962.0
1576859137163,6746616.0
1576859137205,6694131.0
1576859137260,6654353.0
1576859137308,6623068.0
1576859137361,6601669.0
1576859137410,6582991.0
1576859137457,6559239.0
1576859137501,6552317.0
1576859137550,6544509.0
1576859137600,6545904.0
1576859137649,6547530.0
1576859137699,6561733.0
1576859137750,6560481.0
1576859137798,6562088.0
1576859137847,6543426.0
1576859137894,6554810.0
1576859137949,6550451.0
1576859137996,6546360.0
1576859138047,6527741.0
1576859138098,6499174.0
1576859138167,6457717.0
1576859138188,6455764.0
1576859138249,6444482.0
1576859138290,6443540.0
1576859138342,6444794.0
1576859138388,6461606.0
1576859138438,6500088.0
1576859138488,6526387.0
1576859138532,6546091.0
1576859138584,6533340.0
1576859138627,6495257.0
1576859138682,6474058.0
1576859138728,6459128.0
1576859138777,6449454.0
1576859138827,6447744.0
1576859138875,6448655.0
1576859138923,6461434.0
1576859138977,6480056.0
1576859139028,6508577.0
1576859139071,6533324.0
1576859139125,6533196.0
1576859139173,6524549.0
1576859139226,6533867.0
1576859139269,6532070.0
1576859139319,6544153.0
1576859139370,6539865.0
1576859139419,6554767.0
1576859139469,6559567.0
1576859139510,6551275.0
1576859139569,6563115.0
1576859139609,6568330.0
1576859139666,6590156.0
1576859139708,6592322.0
1576859139762,6591196.0
1576859139810,6583959.0
1576859139859,6592734.0
1576859139902,6585853.0
1576859139959,6578032.0
1576859140008,6573644.0
1576859140052,6568186.0
1576859140110,6563130.0
1576859140149,6564725.0
1576859140207,6556106.0
1576859140251,6546375.0
1576859140302,6536089.0
1576859140352,6522411.0
1576859140402,6498478.0
1576859140450,6470041.0
1576859140496,6450677.0
1576859140547,6423879.0
1576859140600,6404646.0
1576859140646,6381125.0
1576859140690,6359769.0
1576859140747,6339893.0
1576859140792,6330734.0
1576859140836,6316643.0
1576859140891,6303449.0
1576859140939,6295173.0
1576859140992,6280143.0
1576859141033,6274744.0
1576859141085,6275584.0
1576859141138,6248330.0
1576859141187,6211230.0
1576859141230,6174046.0
1576859141278,6150382.0
1576859141333,6123368.0
1576859141383,6098749.0
1576859141431,6072962.0
1576859141479,6051307.0
1576859141529,6028057.0
1576859141571,6014507.0
1576859141626,5992696.0
1576859141674,5988193.0
1576859141726,5970214.0
1576859141773,5959500.0
1576859141825,5942261.0
1576859141872,5938472.0
1576859141915,5937374.0
1576859141963,5931235.0
1576859142012,5917785.0
1576859142063,5872936.0
1576859142112,5823413.0
1576859142162,5791700.0
1576859142210,5765158.0
1576859142266,5737576.0
1576859142310,5710891.0
1576859142362,5701488.0
1576859142411,5685760.0
1576859142459,5681756.0
1576859142510,5674019.0
1576859142552,5670970.0
1576859142619,5660940.0
1576859142652,5653632.0
1576859142707,5658990.0
1576859142754,5671641.0
1576859142805,5687782.0
1576859142854,5704522.0
1576859142901,5726220.0
1576859142952,5733829.0
1576859143000,5742776.0
1576859143050,5763292.0
1576859143092,5736107.0
1576859143148,5763691.0
1576859143194,5772180.0
1576859143247,5790090.0
1576859143295,5809978.0
1576859143345,5828940.0
1576859143393,5849671.0
1576859143442,5872053.0
1576859143491,5867110.0
1576859143535,5870415.0
1576859143586,5878179.0
1576859143640,5889960.0
1576859143685,5901557.0
1576859143734,5915962.0
1576859143786,5903580.0
1576859143835,5896186.0
1576859143882,5884078.0
1576859143932,5857448.0
1576859143982,5835082.0
1576859144030,5800860.0
1576859144072,5748459.0
1576859144127,5709437.0
1576859144179,5673492.0
1576859144225,5641280.0
1576859144276,5590433.0
1576859144324,5511690.0
1576859144374,5440440.0
1576859144422,5439016.0
1576859144471,5434657.0
1576859144514,5420011.0
1576859144570,5402101.0
1576859144615,5420751.0
1576859144672,5486986.0
1576859144714,5625751.0
1576859144764,5742405.0
1576859144814,5857477.0
1576859144865,5937930.0
1576859144913,6028042.0
1576859144959,6115904.0
1576859145010,6171110.0
1576859145053,6194575.0
1576859145113,6190300.0
1576859145156,6178846.0
1576859145205,6329863.0
1576859145257,6452544.0
1576859145303,6448299.0
1576859145354,6435520.0
1576859145396,6445693.0
1576859145450,6394444.0
1576859145494,6312596.0
1576859145543,6259399.0
1576859145599,6290257.0
1576859145648,6350351.0
1576859145699,6399887.0
1576859145744,6404078.0
1576859145791,6410816.0
1576859145839,6397509.0
1576859145892,6344212.0
1576859145935,6285514.0
1576859145991,6239810.0
1576859146035,6176296.0
1576859146087,6089146.0
1576859146146,6021288.0
1576859146189,5999421.0
1576859146237,6009436.0
1576859146285,6028426.0
1576859146335,6009679.0
1576859146381,5951093.0
1576859146431,5867950.0
1576859146475,5811489.0
1576859146530,5776084.0
1576859146577,5737845.0
1576859146621,5721904.0
1576859146669,5740595.0
1576859146725,5749998.0
1576859146777,5801502.0
1576859146823,5834826.0
1576859146874,5827018.0
1576859146915,5816404.0
1576859146964,5806318.0
1576859147013,5795988.0
1576859147065,5799936.0
1576859147118,5804008.0
1576859147162,5811732.0
1576859147212,5814182.0
1576859147265,5801658.0
1576859147316,5792496.0
1576859147356,5789706.0
1576859147413,5790146.0
1576859147456,5792168.0
1576859147511,5784248.0
1576859147558,5732631.0
1576859147614,5673320.0
1576859147658,5637575.0
1576859147706,5609295.0
1576859147759,5595476.0
1576859147798,5572823.0
1576859147854,5557053.0
1576859147899,5546736.0
1576859147953,5544942.0
1576859147998,5547363.0
1576859148051,5539031.0
1576859148103,5538603.0
1576859148141,5552806.0
1576859148199,5551211.0
1576859148244,5558064.0
1576859148297,5558763.0
1576859148337,5522119.0
1576859148395,5468052.0
1576859148439,5443389.0
1576859148494,5431436.0
1576859148539,5417246.0
1576859148591,5413785.0
1576859148643,5410480.0
1576859148688,5415252.0
1576859148739,5416806.0
1576859148779,5430353.0
1576859148830,5434969.0
1576859148877,5437222.0
1576859148935,5439388.0
1576859148977,5445926.0
1576859149032,5466455.0
1576859149080,5479920.0
1576859149123,5481658.0
1576859149184,5447065.0
1576859149226,5412346.0
1576859149271,5394652.0
1576859149321,5390192.0
1576859149368,5390804.0
1576859149420,5389322.0
1576859149468,5387699.0
1576859149518,5389777.0
1576859149566,5399994.0
1576859149620,5407216.0
1576859149665,5416663.0
1576859149722,5423956.0
1576859149762,5435340.0
1576859149818,5433674.0
1576859149861,5430082.0
1576859149916,5405921.0
1576859149961,5279992.0
1576859150012,5303613.0
1576859150060,5369448.0
1576859150103,5402557.0
1576859150157,5426892.0
1576859150204,5433730.0
1576859150254,5406817.0
1576859150302,5393497.0
1576859150351,5390205.0
1576859150402,5371187.0
1576859150450,5378836.0
1576859150502,5258365.0
1576859150553,5354560.0
1576859150605,5442521.0
1576859150646,5447936.0
1576859150703,5431523.0
1576859150741,5433502.0
1576859150799,5438033.0
1576859150841,5438945.0
1576859150897,5426905.0
1576859150942,5409013.0
1576859150989,5391004.0
1576859151041,5387228.0
1576859151086,5318686.0
1576859151137,5354347.0
1576859151185,5410780.0
1576859151234,5444843.0
1576859151283,5469731.0
1576859151331,5452523.0
1576859151379,5432435.0
1576859151437,5425981.0
1576859151482,5421350.0
1576859151531,5426193.0
1576859151583,5429885.0
1576859151635,5425039.0
1576859151677,5435555.0
1576859151723,5443105.0
1576859151781,5457551.0
1576859151821,5468748.0
1576859151877,5476884.0
1576859151922,5482183.0
1576859151976,5497571.0
1576859152022,5508029.0
1576859152067,5478338.0
1576859152114,5451397.0
1576859152163,5444431.0
1576859152216,5439928.0
1576859152264,5436267.0
1576859152313,5436551.0
1576859152359,5443704.0
1576859152416,5448919.0
1576859152464,5464360.0
1576859152512,5474263.0
1576859152560,5485248.0
1576859152614,5498155.0
1576859152655,5510323.0
1576859152704,5523202.0
1576859152754,5535654.0
1576859152803,5546567.0
1576859152852,5527390.0
1576859152900,5504153.0
1576859152949,5499865.0
1576859153001,5495946.0
1576859153045,5496289.0
1576859153100,5500193.0
1576859153144,5502402.0
1576859153197,5504793.0
1576859153245,5515438.0
1576859153300,5527774.0
1576859153339,5542520.0
1576859153399,5548433.0
1576859153446,5565529.0
1576859153495,5571471.0
1576859153541,5585745.0
1576859153593,5600803.0
1576859153640,5614809.0
1576859153685,5625666.0
1576859153739,5645283.0
1576859153783,5628700.0
1576859153832,5601574.0
1576859153886,5592483.0
1576859153937,5587555.0
1576859153987,5591644.0
1576859154032,5586585.0
1576859154079,5587755.0
1576859154131,5590021.0
1576859154180,5599336.0
1576859154223,5604567.0
1576859154280,5611233.0
1576859154321,5621578.0
1576859154371,5635397.0
1576859154422,5644544.0
1576859154469,5653831.0
1576859154520,5663362.0
1576859154568,5681799.0
1576859154616,5685575.0
1576859154666,5662195.0
1576859154715,5643105.0
1576859154766,5634129.0
1576859154821,5637035.0
1576859154865,5628899.0
1576859154917,5628984.0
1576859154964,5629998.0
1576859155215,5630853.0
1576859155215,5639884.0
1576859155215,5645555.0
1576859155215,5653647.0
1576859155215,5659601.0
1576859155290,5675302.0
1576859155417,5701632.0
1576859155458,5714539.0
1576859155505,5725621.0
1576859155556,5733301.0
1576859155605,5712414.0
1576859155644,5685803.0
1576859155700,5680161.0
1576859155744,5680901.0
1576859155802,5682183.0
1576859155842,5682467.0
1576859155895,5678279.0
1576859155944,5681671.0
1576859155989,5685004.0
1576859156039,5695319.0
1576859156086,5705036.0
1576859156136,5713384.0
1576859156185,5722176.0
1576859156236,5732062.0
1576859156285,5741437.0
1576859156333,5748403.0
1576859156383,5759544.0
1576859156430,5768990.0
1576859156486,5763719.0
1576859156535,5739527.0
1576859156860,5725949.0
1576859156860,5717900.0
1576859156860,5723642.0
1576859156860,5723471.0
1576859156861,5726292.0
1576859156863,5730552.0
1576859156932,5776099.0
1576859157002,5815564.0
1576859157024,5842562.0
1576859157071,5884733.0
1576859157119,5919139.0
1576859157165,5978734.0
1576859157224,6061652.0
1576859157269,6156892.0
1576859157319,6202467.0
1576859157368,6154027.0
1576859157414,6098565.0
1576859157467,6081610.0
1576859157513,6063631.0
1576859157561,6052006.0
1576859157609,6036134.0
1576859157662,6027729.0
1576859157707,6020249.0
1576859157760,6023869.0
1576859157809,6016660.0
1576859157851,6016373.0
1576859157907,6018227.0
1576859157955,6013767.0
1576859158005,5997667.0
1576859158051,5977039.0
1576859158102,5969459.0
1576859158143,6000204.0
1576859158197,6069685.0
1576859158245,6123084.0
1576859158294,6121018.0
1576859158342,6119493.0
1576859158396,6105817.0
1576859158447,6083164.0
1576859158487,6053716.0
1576859158544,6038456.0
1576859158585,6017600.0
1576859158641,5997739.0
1576859158687,5951208.0
1576859158741,5916003.0
1576859158789,5897085.0
1576859158833,5887068.0
1576859158887,5865984.0
1576859158933,5846307.0
1576859158987,5834511.0
1576859159026,5832573.0
1576859159083,5824596.0
1576859159132,5817986.0
1576859159181,5801502.0
1576859159229,5784320.0
1576859159274,5742264.0
1576859159329,5724270.0
1576859159375,5720622.0
1576859159427,5776299.0
1576859159470,5867678.0
1576859159526,5966993.0
1576859159571,6025264.0
1576859159621,6063347.0
1576859159673,6129738.0
1576859159721,6197552.0
1576859159770,6263360.0
1576859159818,6247416.0
1576859159867,6246720.0
1576859159911,6181368.0
1576859159966,6109506.0
1576859160013,6062991.0
1576859160061,6034483.0
1576859160114,6034227.0
1576859160164,6002682.0
1576859160208,5978905.0
1576859160254,5939783.0
1576859160309,5909621.0
1576859160356,5866255.0
1576859160407,5823185.0
1576859160448,5784148.0
1576859160503,5781127.0
1576859160547,5796572.0
1576859160620,5847733.0
1576859160651,5924638.0
1576859160701,5922088.0
1576859160751,5923371.0
1576859160798,5912286.0
1576859160848,5919708.0
1576859160893,5910632.0
1576859160948,5910576.0
1576859160989,5914480.0
1576859161045,5914536.0
1576859161091,5912798.0
1576859161148,5913881.0
1576859161190,5915376.0
1576859161237,5912099.0
1576859161284,5896471.0
1576859161336,5856025.0
1576859161384,5832061.0
1576859161434,5819793.0
1576859161488,5811404.0
1576859161529,5801958.0
1576859161584,5794833.0
1576859161635,5791357.0
1576859161686,5786485.0
1576859161729,5784903.0
1576859161781,5774446.0
1576859161832,5774133.0
1576859161882,5767080.0
1576859161930,5768135.0
1576859161976,5762321.0
1576859162025,5761909.0
1576859162069,5758888.0
1576859162126,5729840.0
1576859162172,5716147.0
1576859162225,5697285.0
1576859162273,5698268.0
1576859162321,5700134.0
1576859162372,5700505.0
1576859162420,5703938.0
1576859162470,5704010.0
1576859162511,5708026.0
1576859162568,5715650.0
1576859162612,5725194.0
1576859162661,5747991.0
1576859162713,5764218.0
1576859162764,5769346.0
1576859162812,5799877.0
1576859162857,5808325.0
1576859162910,5814965.0
1576859162958,5813084.0
1576859163008,5830579.0
1576859163050,5834810.0
1576859163115,5845596.0
1576859163154,5835581.0
1576859163206,5852748.0
1576859163251,5823912.0
1576859163296,5828244.0
1576859163345,5816716.0
1576859163395,5820736.0
1576859163443,5823841.0
1576859163494,5819253.0
1576859163541,5815321.0
1576859163592,5799477.0
1576859163640,5782410.0
1576859163688,5774717.0
1576859163742,5772024.0
1576859163791,5766369.0
1576859163836,5752550.0
1576859163890,5746424.0
1576859163931,5740039.0
1576859163989,5743132.0
1576859164032,5748474.0
1576859164084,5746979.0
1576859164141,5750440.0
1576859164183,5763904.0
1576859164234,5780544.0
1576859164281,5782438.0
1576859164331,5784348.0
1576859164375,5778165.0
1576859164429,5776455.0
1576859164471,5784207.0
1576859164527,5788380.0
1576859164575,5784619.0
1576859164624,5792995.0
1576859164675,5810662.0
1576859164716,5835125.0
1576859164772,5827445.0
1576859164817,5823528.0
1576859164869,5797242.0
1576859164911,5785246.0
1576859164969,5779975.0
1576859165013,5800632.0
1576859165059,5816988.0
1576859165119,5838558.0
1576859165163,5856025.0
1576859165216,5899778.0
1576859165263,5920819.0
1576859165312,5943132.0
1576859165362,5958574.0
1576859165408,5975628.0
1576859165451,6005619.0
1576859165509,6034112.0
1576859165554,6064785.0
1576859165614,6110760.0
1576859165658,6156037.0
1576859165704,6220119.0
1576859165755,6282705.0
1576859165802,6330734.0
1576859165853,6382648.0
1576859165900,6407951.0
1576859165950,6430748.0
1576859165992,6438241.0
1576859166046,6425518.0
1576859166096,6389332.0
1576859166141,6367846.0
1576859166197,6331717.0
1576859166243,6304092.0
1576859166294,6277662.0
1576859166342,6261437.0
1576859166392,6245921.0
1576859166434,6231431.0
1576859166489,6235563.0
1576859166536,6228669.0
1576859166585,6212198.0
1576859166635,6201556.0
1576859166684,6201428.0
1576859166736,6196641.0
1576859166781,6190586.0
1576859166832,6192680.0
1576859166879,6198592.0
1576859166931,6195087.0
1576859166976,6182750.0
1576859167029,6191626.0
1576859167077,6186240.0
1576859167118,6185244.0
1576859167169,6177835.0
1576859167220,6171394.0
1576859167267,6161108.0
1576859167318,6149498.0
1576859167366,6151948.0
1576859167417,6162890.0
1576859167470,6180741.0
1576859167519,6204149.0
1576859167566,6226004.0
1576859167617,6250396.0
1576859167665,6285414.0
1576859167715,6310389.0
1576859167757,6340336.0
1576859167812,6356293.0
1576859167855,6371978.0
1576859167910,6377748.0
1576859167957,6372449.0
1576859168009,6356848.0
1576859168057,6352404.0
1576859168112,6349767.0
1576859168157,6339097.0
1576859168198,6316856.0
1576859168253,6300188.0
1576859168296,6281098.0
1576859168351,6269073.0
1576859168398,6265382.0
1576859168449,6253358.0
1576859168499,6246819.0
1576859168546,6229621.0
1576859168596,6228638.0
1576859168645,6221217.0
1576859168695,6202255.0
1576859168737,6188577.0
1576859168789,6172021.0
1576859168840,6170542.0
1576859168889,6162547.0
1576859168940,6157107.0
1576859168985,6156579.0
1576859169038,6156536.0
1576859169079,6162106.0
1576859169142,6168376.0
1576859169195,6171566.0
1576859169233,6173803.0
1576859169316,6187366.0
1576859169338,6181711.0
1576859169381,6164244.0
1576859169423,6162506.0
1576859169473,6158758.0
1576859169520,6162618.0
1576859169569,6160396.0
1576859169622,6147432.0
1576859169668,6142389.0
1576859169717,6139297.0
1576859169765,6138030.0
1576859169819,6133542.0
1576859169862,6125678.0
1576859169920,6124052.0
1576859169960,6115589.0
1576859170014,6096271.0
1576859170058,6063431.0
1576859170117,6049228.0
1576859170161,6042803.0
1576859170213,6035279.0
1576859170261,6028526.0
1576859170311,6023070.0
1576859170361,6030950.0
1576859170408,6050979.0
1576859170458,6087736.0
1576859170500,6129651.0
1576859170555,6175941.0
1576859170600,6222912.0
1576859170652,6271808.0
1576859170699,6301670.0
1576859170743,6298237.0
1576859170802,6285470.0
1576859170849,6263303.0
1576859170899,6236078.0
1576859170945,6202467.0
1576859170999,6181852.0
1576859171041,6148971.0
1576859171094,6136975.0
1576859171144,6118225.0
1576859171185,6110773.0
1576859171240,6094461.0
1576859171290,6072821.0
1576859171341,6053429.0
1576859171382,6048545.0
1576859171431,6033228.0
1576859171481,6016261.0
1576859171536,5985088.0
1576859171582,5967080.0
1576859171631,5967976.0
1576859171683,5989703.0
1576859171724,5999649.0
1576859171783,6006858.0
1576859171822,6022272.0
1576859171875,6022771.0
1576859171921,6030607.0
1576859171977,6028098.0
1576859172021,6027115.0
1576859172074,6022658.0
1576859172126,6029409.0
1576859172170,6022658.0
1576859172219,6010319.0
1576859172263,5986941.0
1576859172313,5978035.0
1576859172363,5955811.0
1576859172411,5933143.0
1576859172459,5923013.0
1576859172509,5917542.0
1576859172564,5921602.0
1576859172614,5928683.0
1576859172659,5928000.0
1576859172709,5933015.0
1576859172761,5940510.0
1576859172807,5944826.0
1576859172859,5953259.0
1576859172900,5957862.0
1576859172957,5963333.0
1576859173003,5970813.0
1576859173054,5979389.0
1576859173101,5980928.0
1576859173145,5971737.0
1576859173198,5963089.0
1576859173249,5955269.0
1576859173301,5953418.0
1576859173341,5944115.0
1576859173395,5940224.0
1576859173439,5936762.0
1576859173495,5941094.0
1576859173543,5941434.0
1576859173592,5937589.0
1576859173639,5945054.0
1576859173691,5944327.0
1576859173741,5938117.0
1576859173785,5946222.0
1576859173832,5959073.0
1576859173886,5964200.0
1576859173936,5972623.0
1576859173988,5967265.0
1576859174033,5958218.0
1576859174081,5958561.0
1576859174128,5964743.0
1576859174180,5962078.0
1576859174224,5951508.0
1576859174280,5943173.0
1576859174322,5940295.0
1576859174378,5940567.0
1576859174424,5943229.0
1576859174468,5946137.0
1576859174519,5951493.0
1576859174567,5953374.0
1576859174617,5957091.0
1576859174664,5961551.0
1576859174715,5964899.0
1576859174763,5973519.0
1576859174812,5962037.0
1576859174862,5934382.0
1576859174910,5921602.0
1576859174960,5913182.0
1576859175014,5911872.0
1576859175061,5901429.0
1576859175112,5896074.0
1576859175159,5896570.0
1576859175207,5899619.0
1576859175261,5895974.0
1576859175301,5899363.0
1576859175359,5898324.0
1576859175408,5903651.0
1576859175457,5914380.0
1576859175503,5921945.0
1576859175552,5932659.0
1576859175600,5940267.0
1576859175651,5946421.0
1576859175698,5951380.0
1576859175743,5951452.0
1576859175802,5953118.0
1576859175842,5963560.0
1576859175898,5964956.0
1576859175946,5969116.0
1576859175993,5977139.0
1576859176044,5993651.0
1576859176094,6009820.0
1576859176140,6020364.0
1576859176191,6015534.0
1576859176243,6021232.0
1576859176284,6016701.0
1576859176341,6009807.0
1576859176389,6002926.0
1576859176437,5984404.0
1576859176483,5978321.0
1576859176529,5972492.0
1576859176579,5965255.0
1576859176625,5956267.0
1576859176676,5937630.0
1576859176725,5925022.0
1576859176774,5931491.0
1576859176824,5943060.0
1576859176872,5955696.0
1576859176921,5973547.0
1576859176976,5988848.0
1576859177023,6001287.0
1576859177070,5994007.0
1576859177121,5990602.0
1576859177168,5981527.0
1576859177223,5964072.0
1576859177270,5972436.0
1576859177320,5982609.0
1576859177370,6008309.0
1576859177417,6021404.0
1576859177465,6036945.0
1576859177512,6032445.0
1576859177563,6050140.0
1576859177610,6068874.0
1576859177659,6101271.0
1576859177704,6128855.0
1576859177762,6136035.0
1576859177808,6138398.0
1576859177858,6123939.0
1576859177905,6131389.0
1576859177955,6116971.0
1576859178003,6060638.0
1576859178054,6022599.0
1576859178101,6004820.0
1576859178144,5985943.0
1576859178201,5954685.0
1576859178247,5929981.0
1576859178299,5913213.0
1576859178348,5898437.0
1576859178395,5899991.0
1576859178447,5893253.0
1576859178489,5888322.0
1576859178545,5888721.0
1576859178585,5884805.0
1576859178640,5880117.0
1576859178686,5881996.0
1576859178740,5854871.0
1576859178789,5840537.0
1576859178832,5829754.0
1576859178889,5830865.0
1576859178934,5820208.0
1576859178986,5810362.0
1576859179026,5803980.0
1576859179084,5792468.0
1576859179126,5791600.0
1576859179181,5779816.0
1576859179231,5777482.0
1576859179273,5775272.0
1576859179329,5774318.0
1576859179376,5770542.0
1576859179427,5754757.0
1576859179470,5728570.0
1576859179525,5716247.0
1576859179567,5707130.0
1576859179624,5701004.0
1576859179669,5689904.0
1576859179720,5682168.0
1576859179769,5681971.0
1576859179819,5677995.0
1576859179866,5671925.0
1576859179911,5678136.0
1576859179966,5675530.0
1576859180006,5675059.0
1576859180065,5676968.0
1576859180109,5675714.0
1576859180160,5654146.0
1576859180210,5636664.0
1576859180260,5631180.0
1576859180309,5631336.0
1576859180357,5626621.0
1576859180407,5624327.0
1576859180448,5612600.0
1576859180506,5614937.0
1576859180547,5616975.0
1576859180604,5619325.0
1576859180649,5617231.0
1576859180700,5621690.0
1576859180750,5631393.0
1576859180793,5636564.0
1576859180847,5632248.0
1576859180898,5615936.0
1576859180947,5599636.0
1576859180987,5599280.0
1576859181045,5596032.0
1576859181089,5583152.0
1576859181141,5567183.0
1576859181192,5559275.0
1576859181241,5554416.0
1576859181289,5540682.0
1576859181331,5538744.0
1576859181385,5531194.0
1576859181428,5528430.0
1576859181486,5523486.0
1576859181528,5524313.0
1576859181585,5516689.0
1576859181630,5493539.0
1576859181682,5480417.0
1576859181729,5472396.0
1576859181780,5465799.0
1576859181828,5457095.0
1576859181870,5454261.0
1576859181926,5458990.0
1576859181969,5463121.0
1576859182025,5468323.0
1576859182071,5470059.0
1576859182121,5469703.0
1576859182171,5476300.0
1576859182219,5481571.0
1576859182270,5485063.0
1576859182317,5493383.0
1576859182368,5488808.0
1576859182409,5482954.0
1576859182467,5471984.0
1576859182512,5469135.0
1576859182565,5473879.0
1576859182609,5471357.0
1576859182661,5466913.0
1576859182710,5468208.0
1576859182757,5461071.0
1576859182811,5466099.0
1576859182851,5470658.0
1576859182905,5475333.0
1576859182950,5504168.0
1576859183006,5515594.0
1576859183054,5524869.0
1576859183101,5530839.0
1576859183152,5543759.0
1576859183199,5552806.0
1576859183248,5566156.0
1576859183291,5589706.0
1576859183348,5616448.0
1576859183390,5625295.0
1576859183446,5640040.0
1576859183493,5644912.0
1576859183542,5640212.0
1576859183586,5644643.0
1576859183635,5634370.0
1576859183684,5647777.0
1576859183734,5647820.0
1576859183782,5652520.0
1576859183832,5651921.0
1576859183880,5632076.0
1576859183931,5614369.0
1576859183979,5606702.0
1576859184033,5610721.0
1576859184080,5605849.0
1576859184135,5617674.0
1576859184175,5610437.0
1576859184230,5622888.0
1576859184270,5619125.0
1576859184327,5626106.0
1576859184372,5649986.0
1576859184427,5676085.0
1576859184472,5704637.0
1576859184524,5726704.0
1576859184572,5734612.0
1576859184620,5738017.0
1576859184670,5725422.0
1576859184712,5718412.0
1576859184766,5741422.0
1576859184813,5796787.0
1576859184868,5831534.0
1576859184916,5857064.0
1576859184963,5861025.0
1576859185012,5857064.0
1576859185060,5854827.0
1576859185111,5845580.0
1576859185152,5845224.0
1576859185209,5858519.0
1576859185253,5863490.0
1576859185308,5882723.0
1576859185355,5891983.0
1576859185406,5883822.0
1576859185454,5863106.0
1576859185502,5844756.0
1576859185552,5812912.0
1576859185594,5799237.0
1576859185649,5779461.0
1576859185691,5762321.0
1576859185748,5748915.0
1576859185795,5733629.0
1576859185845,5726676.0
1576859185894,5728729.0
1576859185943,5727943.0
1576859185989,5726691.0
1576859186037,5718300.0
1576859186090,5734328.0
1576859186134,5732902.0
1576859186189,5741337.0
1576859186235,5755768.0
1576859186286,5767836.0
1576859186336,5794821.0
1576859186384,5818798.0
1576859186433,5855511.0
1576859186475,5879846.0
1576859186531,5892326.0
1576859186574,5921274.0
1576859186629,5933386.0
1576859186675,5918197.0
1576859186728,5920151.0
1576859186777,5922216.0
1576859186824,5922600.0
1576859186876,5908254.0
1576859186923,5880742.0
1576859186972,5869145.0
1576859187017,5857692.0
1576859187071,5883891.0
1576859187114,5900346.0
1576859187169,5929466.0
1576859187217,5959872.0
1576859187266,5969459.0
1576859187316,5989562.0
1576859187364,5996116.0
1576859187413,6011886.0
1576859187456,6010135.0
1576859187512,6007825.0
1576859187558,5981982.0
1576859187609,5946109.0
1576859187657,5919124.0
1576859187707,5896558.0
1576859187757,5924495.0
1576859187805,5966937.0
1576859187855,5995289.0
1576859187901,6019865.0
1576859187952,6024509.0
1576859187995,6024793.0
1576859188051,6011673.0
1576859188097,5998010.0
1576859188146,6019737.0
1576859188199,6014906.0
1576859188244,6019466.0
1576859188296,5999918.0
1576859188342,6016545.0
1576859188394,6027543.0
1576859188436,6029908.0
1576859188491,6019082.0
1576859188536,5999605.0
1576859188588,5980129.0
1576859188640,5958929.0
1576859188686,5948631.0
1576859188736,5929966.0
1576859188780,5920064.0
1576859188828,5908339.0
1576859188878,5891970.0
1576859188926,5854471.0
1576859188976,5825108.0
1576859189024,5800033.0
1576859189077,5776655.0
1576859189122,5767208.0
1576859189171,5761425.0
1576859189226,5753845.0
1576859189271,5766553.0
1576859189317,5774789.0
1576859189371,5786941.0
1576859189420,5808197.0
1576859189471,5829754.0
1576859189519,5840896.0
1576859189567,5838886.0
1576859189619,5828357.0
1576859189660,5826606.0
1576859189716,5840153.0
1576859189757,5842603.0
1576859189814,5861140.0
1576859189859,5876142.0
1576859189911,5907755.0
1576859189959,5926932.0
1576859190008,5969146.0
1576859190060,6008340.0
1576859190104,6044026.0
1576859190150,6054300.0
1576859190198,6054343.0
1576859190256,6031191.0
1576859190301,5987225.0
1576859190352,5962549.0
1576859190400,5941918.0
1576859190447,5932259.0
1576859190501,5935836.0
1576859190541,5928227.0
1576859190595,5920719.0
1576859190640,5901073.0
1576859190695,5884874.0
1576859190741,5887554.0
1576859190793,5868505.0
1576859190842,5874360.0
1576859190885,5889948.0
1576859190943,5883607.0
1576859190982,5860712.0
1576859191040,5843573.0
1576859191080,5836520.0
1576859191136,5841351.0
1576859191181,5860513.0
1576859191233,5859514.0
1576859191286,5852533.0
1576859191325,5848460.0
1576859191379,5836405.0
1576859191424,5830451.0
1576859191481,5835110.0
1576859191522,5846563.0
1576859191577,5884718.0
1576859191619,5940495.0
1576859191675,5976652.0
1576859191721,5994705.0
1576859191772,5992153.0
1576859191818,5994675.0
1576859191864,5997427.0
1576859191921,5991441.0
1576859191961,5975741.0
1576859192019,5973091.0
1576859192060,5963489.0
1576859192116,5958602.0
1576859192162,5946877.0
1576859192212,5946222.0
1576859192263,5947420.0
1576859192309,5967022.0
1576859192359,5972907.0
1576859192403,5970726.0
1576859192456,5977479.0
1576859192500,5992112.0
1576859192556,6007741.0
1576859192600,6026091.0
1576859192654,6040253.0
1576859192702,6048972.0
1576859192750,6050552.0
1576859192799,6052405.0
1576859192851,6060369.0
1576859192898,6076610.0
1576859192943,6101370.0
1576859192998,6114821.0
1576859193039,6107712.0
1576859193096,6111628.0
1576859193144,6133327.0
1576859193194,6148144.0
1576859193239,6155865.0
1576859193291,6159713.0
1576859193342,6161080.0
1576859193387,6173104.0
1576859193439,6172648.0
1576859193481,6186882.0
1576859193537,6192281.0
1576859193579,6200872.0
1576859193634,6208721.0
1576859193681,6207754.0
1576859193731,6210675.0
1576859193780,6220974.0
1576859193824,6238113.0
1576859193874,6255139.0
1576859193923,6277877.0
1576859193972,6293422.0
1576859194019,6310901.0
1576859194069,6320404.0
1576859194120,6326231.0
1576859194168,6331660.0
1576859194217,6326274.0
1576859194265,6309291.0
1576859194315,6273474.0
1576859194364,6236861.0
1576859194419,6212625.0
1576859194461,6198023.0
1576859194516,6191697.0
1576859194567,6188006.0
1576859194615,6192010.0
1576859194662,6192593.0
1576859194710,6190471.0
1576859194758,6176837.0
1576859194806,6160040.0
1576859194859,6149639.0
1576859194904,6134594.0
1576859194957,6124894.0
1576859195006,6091883.0
1576859195055,6056181.0
1576859195104,6044554.0
1576859195153,6052989.0
1576859195199,6081182.0
1576859195248,6102740.0
1576859195294,6095815.0
1576859195341,6065241.0
1576859195390,6064729.0
1576859195445,6070272.0
1576859195493,6054144.0
1576859195538,6042844.0
1576859195588,6039726.0
1576859195638,6033085.0
1576859195685,6024693.0
1576859195737,5990814.0
1576859195784,5938158.0
1576859195833,5898595.0
1576859195882,5868817.0
1576859195930,5846794.0
1576859195985,5824936.0
1576859196035,5803868.0
1576859196084,5780602.0
1576859196129,5764986.0
1576859196179,5749941.0
1576859196223,5739855.0
1576859196281,5721320.0
1576859196323,5716134.0
1576859196379,5707486.0
1576859196426,5699722.0
1576859196477,5693824.0
1576859196523,5682910.0
1576859196575,5664532.0
1576859196623,5631180.0
1576859196670,5595320.0
1576859196715,5576099.0
1576859196764,5559646.0
1576859196819,5545968.0
1576859196870,5536209.0
1576859196918,5527546.0
1576859196966,5519042.0
1576859197015,5520010.0
1576859197062,5527690.0
1576859197110,5534371.0
1576859197161,5528601.0
1576859197207,5528586.0
1576859197262,5532006.0
1576859197309,5535326.0
1576859197355,5547051.0
1576859197408,5571015.0
1576859197455,5589250.0
1576859197504,5602229.0
1576859197551,5624583.0
1576859197601,5634099.0
1576859197643,5621690.0
1576859197698,5618557.0
1576859197745,5623216.0
1576859197799,5621647.0
1576859197845,5634142.0
1576859197890,5648916.0
1576859197944,5656468.0
1576859197994,5672181.0
1576859198041,5703838.0
1576859198089,5750269.0
1576859198139,5790274.0
1576859198186,5815633.0
1576859198240,5829839.0
1576859198285,5814566.0
1576859198332,5792855.0
1576859198387,5764503.0
1576859198428,5759687.0
1576859198479,5747507.0
1576859198527,5742392.0
1576859198577,5734228.0
1576859198627,5727831.0
1576859198678,5720593.0
1576859198723,5710535.0
1576859198780,5702343.0
1576859198827,5702371.0
1576859198878,5702684.0
1576859198926,5699123.0
1576859198967,5696017.0
1576859199024,5708282.0
1576859199065,5716561.0
1576859199119,5685048.0
1576859199168,5675630.0
1576859199218,5665000.0
1576859199270,5652037.0
1576859199319,5643545.0
1576859199367,5635909.0
1576859199414,5634298.0
1576859199465,5626562.0
1576859199507,5668021.0
1576859199564,5687810.0
1576859199607,5701644.0
1576859199660,5710236.0
1576859199709,5723527.0
1576859199759,5716247.0
1576859199808,5715622.0
1576859199856,5704550.0
1576859199899,5686586.0
1576859199946,5646167.0
1576859200004,5642306.0
1576859200047,5662906.0
1576859200101,5663006.0
1576859200151,5669575.0
1576859200201,5665556.0
1576859200248,5669460.0
1576859200291,5681029.0
1576859200338,5671754.0
1576859200389,5668492.0
1576859200442,5664161.0
1576859200485,5657408.0
1576859200540,5648944.0
1576859200588,5649986.0
1576859200641,5633715.0
1576859200689,5620922.0
1576859200736,5608355.0
1576859200788,5595176.0
1576859200828,5586885.0
1576859200886,5570744.0
1576859200926,5554716.0
1576859200985,5545241.0
1576859201030,5532106.0
1576859201082,5523898.0
1576859201128,5514938.0
1576859201177,5503057.0
1576859201228,5508257.0
1576859201269,5522915.0
1576859201326,5541125.0
1576859201368,5565130.0
1576859201424,5603269.0
1576859201470,5655541.0
1576859201520,5699494.0
1576859201570,5702955.0
1576859201621,5701432.0
1576859201665,5692925.0
1576859201714,5673420.0
1576859201758,5665100.0
1576859201807,5653204.0
1576859201861,5651310.0
1576859201916,5644584.0
1576859201960,5618869.0
1576859202004,5589693.0
1576859202055,5566069.0
1576859202103,5549957.0
1576859202152,5557521.0
1576859202201,5569446.0
1576859202250,5607160.0
1576859202300,5666127.0
1576859202350,5697940.0
1576859202397,5693125.0
1576859202452,5682923.0
1576859202503,5691842.0
1576859202549,5691187.0
1576859202598,5692769.0
1576859202647,5659274.0
1576859202688,5666411.0
1576859202746,5665272.0
1576859202790,5651865.0
1576859202838,5637107.0
1576859202889,5626065.0
1576859202942,5600619.0
1576859202990,5580815.0
1576859203038,5555471.0
1576859203089,5555799.0
1576859203129,5570073.0
1576859203186,5577198.0
1576859203229,5576442.0
1576859203283,5553305.0
1576859203333,5526392.0
1576859203380,5510922.0
1576859203430,5502458.0
1576859203474,5489195.0
1576859203521,5465502.0
1576859203574,5444700.0
1576859203620,5435783.0
1576859203671,5426437.0
1576859203719,5422776.0
1576859203771,5420224.0
1576859203818,5419527.0
1576859203866,5415723.0
1576859203916,5411392.0
1576859203964,5405437.0
1576859204013,5368537.0
1576859204069,5334243.0
1576859204110,5314839.0
1576859204167,5302218.0
1576859204214,5286446.0
1576859204260,5257167.0
1576859204308,5241454.0
1576859204357,5239116.0
1576859204406,5248934.0
1576859204455,5251640.0
1576859204510,5249646.0
1576859204550,5252410.0
1576859204608,5262440.0
1576859204653,5265331.0
1576859204705,5260843.0
1576859204753,5237777.0
1576859204802,5211619.0
1576859204852,5208145.0
1576859204896,5240343.0
1576859204951,5278126.0
1576859204992,5292743.0
1576859205046,5292016.0
1576859205091,5289338.0
1576859205146,5300180.0
1576859205193,5302702.0
1576859205244,5300892.0
1576859205294,5311121.0
1576859205338,5308044.0
1576859205391,5296675.0
1576859205440,5296547.0
1576859205489,5297871.0
1576859205532,5281774.0
1576859205588,5258964.0
1576859205634,5244474.0
1576859205687,5232878.0
1576859205735,5225369.0
1576859205784,5224670.0
1576859205831,5234201.0
1576859205876,5254177.0
1576859205929,5274350.0
1576859205977,5292899.0
1576859206028,5322247.0
1576859206074,5348904.0
1576859206127,5387000.0
1576859206176,5408826.0
1576859206224,5424926.0
1576859206271,5433758.0
1576859206316,5437050.0
1576859206365,5413015.0
1576859206415,5361784.0
1576859206463,5321792.0
1576859206515,5305863.0
1576859206561,5293867.0
1576859206610,5293355.0
1576859206659,5290734.0
1576859206708,5297743.0
1576859206756,5288140.0
1576859206805,5261598.0
1576859206857,5257966.0
1576859206903,5257466.0
1576859206956,5258293.0
1576859207002,5268851.0
1576859207055,5266286.0
1576859207101,5266214.0
1576859207158,5257282.0
1576859207207,5227747.0
1576859207255,5185592.0
1576859207300,5159649.0
1576859207352,5153848.0
1576859207395,5147950.0
1576859207449,5123276.0
1576859207495,5137950.0
1576859207547,5154406.0
1576859207598,5197301.0
1576859207645,5242621.0
1576859207695,5289267.0
1576859207743,5358364.0
1576859207787,5410280.0
1576859207838,5477255.0
1576859207890,5559375.0
1576859207935,5657779.0
1576859207989,5761226.0
1576859208039,5887226.0
1576859208085,6023697.0
1576859208131,6109322.0
1576859208179,6204976.0
1576859208228,6288035.0
1576859208278,6322570.0
1576859208325,6284659.0
1576859208379,6240565.0
1576859208423,6203878.0
1576859208474,6176936.0
1576859208521,6164444.0
1576859208570,6172592.0
1576859208619,6184273.0
1576859208667,6208194.0
1576859208717,6206487.0
1576859208764,6152261.0
1576859208816,5997511.0
1576859208863,5874503.0
1576859208920,5788764.0
1576859208966,5733872.0
1576859209018,5685260.0
1576859209064,5630110.0
1576859209116,5573765.0
1576859209156,5535211.0
1576859209213,5504040.0
1576859209258,5456640.0
1576859209306,5429386.0
1576859209356,5408414.0
1576859209404,5392314.0
1576859209454,5379363.0
1576859209507,5347223.0
1576859209556,5302103.0
1576859209598,5259192.0
1576859209652,5235655.0
1576859209699,5227463.0
1576859209753,5225469.0
1576859209799,5199823.0
1576859209850,5164049.0
1576859209900,5125027.0
1576859209947,5100423.0
1576859209997,5075176.0
1576859210038,5049034.0
1576859210095,5025940.0
1576859210137,5007874.0
1576859210191,4998886.0
1576859210239,4966330.0
1576859210291,4913889.0
1576859210341,4867627.0
1576859210387,4849505.0
1576859210431,4841241.0
1576859210481,4829816.0
1576859210536,4806965.0
1576859210577,4788060.0
1576859210627,4780364.0
1576859210683,4775964.0
1576859210727,4776133.0
1576859210780,4775621.0
1576859210823,4763025.0
1576859210876,4751672.0
1576859210927,4738094.0
1576859210976,4720983.0
1576859211020,4675566.0
1576859211075,4647982.0
1576859211122,4613248.0
1576859211165,4644664.0
1576859211223,4680138.0
1576859211264,4719559.0
1576859211320,4763097.0
1576859211362,4809159.0
1576859211411,4871774.0
1576859211461,4941939.0
1576859211509,4986690.0
1576859211560,5010938.0
1576859211607,5054248.0
1576859211659,5077813.0
1576859211704,5063024.0
1576859211754,4985280.0
1576859211808,4929830.0
1576859211858,4901765.0
1576859211900,4897218.0
1576859211956,4888599.0
1576859212001,4862868.0
1576859212052,4849349.0
1576859212101,4844062.0
1576859212145,4853596.0
1576859212200,4854179.0
1576859212242,4855091.0
1576859212300,4857625.0
1576859212341,4846028.0
1576859212396,4811793.0
1576859212438,4778498.0
1576859212494,4762984.0
1576859212541,4755205.0
1576859212590,4747440.0
1576859212638,4731827.0
1576859212688,4714588.0
1576859212732,4722536.0
1576859212782,4758853.0
1576859212831,4789667.0
1576859212881,4802019.0
1576859212935,4825684.0
1576859212982,4852113.0
1576859213028,4852441.0
1576859213083,4799229.0
1576859213124,4754920.0
1576859213184,4736798.0
1576859213224,4738421.0
1576859213272,4735144.0
1576859213320,4727651.0
1576859213377,4718164.0
1576859213422,4717422.0
1576859213475,4720030.0
1576859213526,4724787.0
1576859213572,4724802.0
1576859213618,4729461.0
1576859213670,4740431.0
1576859213722,4744307.0
1576859213765,4727808.0
1576859213818,4697292.0
1576859213862,4698388.0
1576859213907,4730972.0
1576859213961,4789555.0
1576859214007,4841384.0
1576859214059,4862755.0
1576859214106,4884823.0
1576859214160,4904015.0
1576859214202,4911196.0
1576859214257,4920670.0
1576859214301,4907947.0
1576859214356,4902220.0
1576859214405,4916311.0
1576859214454,4966474.0
1576859214503,4990794.0
1576859214550,4977259.0
1576859214598,4971361.0
1576859214648,4944176.0
1576859214700,4949946.0
1576859214742,4951285.0
1576859214799,4953351.0
1576859214843,4949990.0
1576859214895,4955745.0
1576859214943,4973767.0
1576859214993,4985620.0
1576859215038,4998758.0
1576859215089,5014215.0
1576859215141,5039731.0
1576859215188,5049221.0
1576859215233,5044318.0
1576859215281,5042452.0
1576859215330,5055431.0
1576859215381,5083696.0
1576859215427,5113559.0
1576859215478,5144061.0
1576859215525,5163694.0
1576859215576,5180149.0
1576859215624,5204738.0
1576859215680,5242908.0
1576859215725,5262041.0
1576859215777,5282101.0
1576859215827,5294666.0
1576859215874,5288455.0
1576859215917,5284692.0
1576859215972,5292200.0
1576859216018,5340912.0
1576859216067,5361528.0
1576859216120,5371671.0
1576859216165,5376486.0
1576859216219,5390292.0
1576859216267,5406392.0
1576859216316,5405621.0
1576859216362,5408414.0
1576859216411,5411576.0
1576859216459,5411591.0
1576859216509,5435484.0
1576859216558,5434186.0
1576859216602,5429798.0
1576859216660,5445854.0
1576859216707,5451097.0
1576859216758,5461370.0
1576859216806,5461184.0
1576859216854,5444787.0
1576859216904,5438801.0
1576859216945,5421890.0
1576859216998,5426821.0
1576859217049,5431907.0
1576859217102,5428958.0
1576859217147,5460387.0
1576859217192,5482954.0
1576859217247,5486346.0
1576859217298,5475374.0
1576859217344,5488837.0
1576859217392,5493140.0
1576859217443,5486574.0
1576859217485,5473167.0
1576859217538,5454246.0
1576859217587,5441323.0
1576859217636,5428815.0
1576859217687,5427333.0
1576859217736,5440811.0
1576859217786,5447736.0
1576859217828,5476444.0
1576859217883,5522631.0
1576859217933,5527375.0
1576859217978,5540098.0
1576859218027,5546040.0
1576859218080,5565972.0
1576859218126,5574033.0
1576859218178,5558663.0
1576859218227,5544273.0
1576859218274,5525708.0
1576859218324,5493911.0
1576859218371,5473208.0
1576859218422,5454758.0
1576859218463,5443660.0
1576859218518,5429585.0
1576859218565,5421465.0
1576859218620,5416378.0
1576859218667,5432448.0
1576859218713,5460259.0
1576859218765,5490362.0
1576859218808,5525324.0
1576859218859,5565217.0
1576859218904,5623557.0
1576859218958,5682995.0
1576859219007,5723356.0
1576859219060,5735339.0
1576859219108,5731363.0
1576859219155,5735966.0
1576859219206,5754344.0
1576859219248,5755028.0
1576859219304,5735296.0
1576859219345,5709224.0
1576859219394,5695690.0
1576859219445,5698938.0
1576859219495,5697072.0
1576859219541,5694935.0
1576859219593,5688921.0
1576859219640,5691642.0
1576859219689,5692940.0
1576859219745,5700062.0
1576859219786,5704394.0
1576859219836,5714608.0
1576859219887,5720578.0
1576859219940,5727303.0
1576859219988,5710776.0
1576859220036,5688880.0
1576859220084,5676840.0
1576859220129,5676528.0
1576859220185,5673592.0
1576859220226,5674974.0
1576859220284,5666526.0
1576859220330,5665656.0
1576859220380,5667837.0
1576859220429,5686855.0
1576859220479,5695930.0
1576859220527,5697868.0
1576859220573,5711918.0
1576859220626,5722744.0
1576859220667,5727247.0
1576859220722,5713013.0
1576859220768,5699095.0
1576859220819,5701844.0
1576859220869,5707998.0
1576859220914,5703682.0
1576859220968,5693795.0
1576859221011,5686000.0
1576859221067,5681684.0
1576859221106,5687897.0
1576859221165,5705661.0
1576859221211,5737889.0
1576859221260,5766740.0
1576859221309,5788723.0
1576859221353,5794790.0
1576859221402,5768407.0
1576859221452,5733230.0
1576859221500,5702827.0
1576859221547,5677196.0
1576859221599,5659317.0
1576859221649,5628160.0
1576859221697,5607928.0
1576859221745,5600348.0
1576859221801,5609694.0
1576859221849,5624427.0
1576859221895,5639997.0
1576859221944,5645982.0
1576859221991,5651082.0
1576859222046,5654786.0
1576859222088,5651397.0
1576859222144,5629570.0
1576859222191,5614581.0
1576859222237,5614653.0
1576859222291,5615452.0
1576859222338,5627704.0
1576859222388,5630210.0
1576859222435,5628856.0
1576859222486,5627632.0
1576859222528,5620707.0
1576859222586,5618442.0
1576859222632,5622103.0
1576859222684,5625807.0
1576859222723,5630353.0
1576859222783,5633730.0
1576859222823,5634926.0
1576859222878,5608327.0
1576859222920,5584291.0
1576859222969,5568535.0
1576859223026,5568478.0
1576859223070,5564390.0
1576859223124,5540382.0
1576859223169,5531138.0
1576859223216,5522319.0
1576859223271,5510691.0
1576859223318,5506219.0
1576859223369,5500405.0
1576859223409,5502202.0
1576859223464,5493724.0
1576859223511,5479948.0
1576859223565,5471897.0
1576859223613,5456156.0
1576859223662,5435256.0
1576859223711,5440184.0
1576859223760,5459445.0
1576859223809,5486246.0
1576859223856,5501460.0
1576859223907,5523302.0
1576859223950,5550243.0
1576859224006,5588922.0
1576859224052,5622474.0
1576859224102,5651310.0
1576859224151,5682923.0
1576859224202,5701760.0
1576859224250,5721960.0
1576859224291,5731463.0
1576859224348,5738872.0
1576859224391,5713953.0
1576859224447,5679861.0
1576859224492,5677468.0
1576859224544,5692541.0
1576859224594,5706160.0
1576859224639,5701532.0
1576859224689,5694208.0
1576859224740,5697100.0
1576859224789,5716761.0
1576859224830,5749813.0
1576859224887,5797084.0
1576859224932,5844869.0
1576859224984,5886771.0
1576859225026,5923399.0
1576859225076,5950141.0
1576859225125,5946250.0
1576859225176,5945794.0
1576859225223,5943388.0
1576859225271,5946449.0
1576859225321,5946178.0
1576859225371,5933657.0
1576859225420,5922844.0
1576859225469,5918241.0
1576859225518,5919523.0
1576859225567,5916659.0
1576859225616,5925265.0
1576859225664,5918341.0
1576859225713,5922316.0
1576859225769,5918169.0
1576859225812,5905318.0
1576859225866,5871994.0
1576859225914,5859215.0
1576859225965,5852234.0
1576859226014,5853332.0
1576859226061,5850923.0
1576859226111,5836008.0
1576859226159,5826019.0
1576859226211,5828357.0
1576859226257,5829440.0
1576859226308,5830039.0
1576859226355,5836008.0
1576859226405,5829795.0
1576859226454,5820392.0
1576859226503,5812956.0
1576859226548,5789534.0
1576859226593,5752719.0
1576859226650,5731819.0
1576859226693,5721233.0
1576859226748,5709824.0
1576859226796,5699294.0
1576859226843,5684805.0
1576859226895,5677724.0
1576859226945,5669288.0
1576859226994,5670016.0
1576859227034,5667110.0
1576859227090,5664161.0
1576859227133,5667453.0
1576859227188,5664588.0
1576859227237,5658734.0
1576859227286,5630067.0
1576859227336,5613798.0
1576859227384,5605378.0
1576859227434,5612515.0
1576859227482,5616064.0
1576859227531,5618741.0
1576859227575,5622801.0
1576859227629,5625282.0
1576859227675,5636892.0
1576859227726,5677396.0
1576859227775,5711774.0
1576859227824,5765885.0
1576859227874,5809195.0
1576859227918,5863490.0
1576859227972,5915248.0
1576859228013,5953318.0
1576859228067,5971325.0
1576859228114,6018155.0
1576859228161,6037701.0
1576859228211,6064030.0
1576859228260,6048586.0
1576859228309,6007969.0
1576859228359,5980572.0
1576859228407,5964771.0
1576859228456,5970813.0
1576859228504,5983933.0
1576859228556,6010718.0
1576859228602,6023982.0
1576859228652,6033927.0
1576859228700,6042746.0
1576859228749,6049528.0
1576859228799,6047562.0
1576859228847,6067906.0
1576859228896,6108039.0
1576859228944,6134694.0
1576859228996,6170954.0
1576859229042,6173504.0
1576859229093,6183677.0
1576859229141,6178462.0
1576859229190,6190814.0
1576859229239,6187394.0
1576859229288,6186227.0
1576859229337,6170926.0
1576859229385,6165240.0
1576859229436,6158059.0
1576859229483,6152476.0
1576859229533,6123425.0
1576859229581,6102653.0
1576859229630,6099632.0
1576859229679,6103523.0
1576859229728,6101242.0
1576859229779,6079774.0
1576859229826,6069829.0
1576859229877,6059200.0
1576859229923,6061109.0
1576859229980,6068989.0
1576859230022,6068817.0
1576859230077,6058088.0
1576859230118,6043985.0
1576859230174,6045337.0
1576859230220,6022671.0
1576859230274,5974190.0
1576859230317,5964060.0
1576859230364,5976583.0
1576859230414,6007882.0
1576859230462,6019095.0
1576859230512,6008680.0
1576859230560,5983892.0
1576859230609,5939968.0
1576859230658,5921246.0
1576859230707,5899335.0
1576859230763,5889461.0
1576859230804,5880314.0
1576859230858,5868718.0
1576859230902,5850055.0
1576859230959,5808752.0
1576859231000,5767224.0
1576859231058,5749913.0
1576859231100,5733045.0
1576859231151,5716062.0
1576859231200,5696289.0
1576859231245,5667609.0
1576859231296,5653504.0
1576859231343,5646223.0
1576859231394,5642178.0
1576859231441,5640911.0
1576859231491,5644444.0
1576859231540,5654914.0
1576859231589,5672296.0
1576859231640,5651637.0
1576859231691,5632847.0
1576859231741,5621975.0
1576859231785,5613798.0
1576859231835,5618542.0
1576859231881,5602741.0
1576859231932,5605634.0
1576859231981,5603384.0
1576859232037,5631265.0
1576859232078,5622717.0
1576859232136,5615720.0
1576859232181,5606589.0
1576859232225,5587256.0
1576859232278,5577241.0
1576859232331,5547778.0
1576859232378,5494138.0
1576859232420,5464504.0
1576859232478,5444971.0
1576859232519,5442506.0
1576859232575,5429442.0
1576859232618,5417717.0
1576859232675,5410964.0
1576859232717,5413342.0
1576859232769,5411619.0
1576859232817,5414041.0
1576859232866,5410337.0
1576859232920,5419212.0
1576859232960,5413130.0
1576859233017,5385617.0
1576859233062,5354347.0
1576859233113,5345157.0
1576859233160,5345428.0
1576859233209,5348948.0
1576859233259,5350387.0
1576859233305,5357568.0
1576859233359,5371427.0
1576859233400,5380405.0
1576859233457,5390776.0
1576859233502,5398297.0
1576859233554,5404011.0
1576859233604,5410053.0
1576859233652,5412746.0
1576859233698,5392629.0
1576859233747,5364546.0
1576859233800,5357209.0
1576859233846,5354403.0
1576859233899,5354132.0
1576859233946,5358064.0
1576859233995,5358023.0
1576859234046,5385448.0
1576859234092,5408314.0
1576859234139,5445186.0
1576859234184,5481927.0
1576859234241,5501288.0
1576859234281,5517716.0
1576859234339,5540398.0
1576859234382,5559603.0
1576859234435,5558891.0
1576859234483,5576130.0
1576859234530,5598824.0
1576859234579,5621519.0
1576859234629,5637647.0
1576859234677,5664373.0
1576859234726,5717588.0
1576859234779,5771968.0
1576859234819,5823229.0
1576859234869,5852249.0
1576859234923,5920719.0
1576859234974,5958046.0
1576859235021,5984688.0
1576859235071,5993963.0
1576859235118,5957350.0
1576859235168,5923555.0
1576859235223,5900761.0
1576859235260,5895260.0
1576859235318,5889077.0
1576859235366,5885757.0
1576859235415,5875343.0
1576859235462,5875998.0
1576859235513,5883678.0
1576859235558,5899092.0
1576859235608,5920463.0
1576859235658,5940922.0
1576859235703,5957591.0
1576859235755,5969602.0
1576859235802,5984875.0
1576859235855,5987681.0
1576859235902,5973903.0
1576859235954,5957662.0
1576859236000,5939584.0
1576859236049,5918085.0
1576859236099,5906759.0
1576859236142,5894264.0
1576859236200,5882012.0
1576859236249,5873077.0
1576859236297,5868917.0
1576859236343,5857093.0
1576859236394,5847705.0
1576859236443,5838315.0
1576859236489,5815592.0
1576859236537,5774533.0
1576859236583,5752391.0
1576859236640,5736634.0
1576859236686,5731763.0
1576859236737,5717089.0
1576859236785,5701160.0
1576859236828,5686999.0
1576859236882,5668464.0
1576859236926,5663390.0
1576859236977,5666083.0
1576859237023,5653903.0
1576859237074,5653204.0
1576859237123,5659630.0
1576859237171,5666112.0
1576859237220,5676925.0
1576859237268,5671070.0
1576859237318,5650513.0
1576859237366,5637690.0
1576859237416,5625239.0
1576859237462,5619297.0
1576859237521,5601674.0
1576859237564,5593710.0
1576859237616,5578452.0
1576859237666,5579264.0
1576859237713,5571215.0
1576859237765,5562324.0
1576859237806,5557194.0
1576859237859,5558192.0
1576859237905,5548106.0
1576859237961,5546851.0
1576859238009,5543859.0
1576859238058,5516106.0
1576859238107,5496616.0
1576859238155,5492313.0
1576859238205,5494522.0
1576859238251,5488768.0
1576859238306,5484792.0
1576859238345,5478822.0
1576859238393,5478622.0
1576859238444,5486315.0
1576859238491,5493683.0
1576859238538,5506462.0
1576859238588,5516505.0
1576859238637,5528317.0
1576859238685,5542264.0
1576859238736,5556083.0
1576859238788,5569804.0
1576859238835,5553689.0
1576859238885,5530211.0
1576859238934,5512601.0
1576859238987,5514012.0
1576859239031,5505008.0
1576859239086,5495093.0
1576859239132,5488808.0
1576859239181,5480760.0
1576859239224,5470658.0
1576859239275,5457210.0
1576859239326,5443532.0
1576859239381,5435240.0
1576859239427,5428858.0
1576859239472,5425482.0
1576859239523,5423331.0
1576859239571,5427320.0
1576859239625,5403783.0
1576859239666,5369989.0
1576859239724,5373137.0
1576859239765,5377669.0
1576859239820,5379051.0
1576859239868,5367953.0
1576859239918,5354816.0
1576859239968,5357153.0
1576859240015,5359774.0
1576859240063,5362680.0
1576859240111,5377326.0
1576859240164,5384550.0
1576859240207,5392030.0
1576859240260,5390776.0
1576859240310,5392913.0
1576859240358,5398796.0
1576859240408,5393013.0
1576859240455,5366855.0
1576859240506,5347578.0
1576859240547,5338319.0
1576859240605,5337676.0
1576859240648,5331709.0
1576859240703,5325711.0
1576859240747,5316848.0
1576859240801,5310110.0
1576859240847,5309255.0
1576859240895,5307929.0
1576859240939,5307146.0
1576859240994,5305523.0
1576859241045,5296404.0
1576859241087,5291645.0
1576859241139,5293511.0
1576859241188,5279920.0
1576859241240,5253721.0
1576859241285,5225925.0
1576859241330,5207887.0
1576859241387,5208898.0
1576859241427,5209226.0
1576859241485,5198599.0
1576859241527,5190251.0
1576859241584,5183370.0
1576859241630,5186759.0
1576859241679,5182159.0
1576859241729,5189109.0
1576859241772,5190663.0
1576859241827,5188554.0
1576859241877,5194979.0
1576859241923,5203486.0
1576859241967,5201192.0
1576859242024,5178155.0
1576859242069,5161871.0
1576859242121,5163622.0
1576859242171,5174691.0
1576859242219,5182187.0
1576859242267,5193469.0
1576859242310,5204142.0
1576859242366,5214256.0
1576859242409,5231339.0
1576859242465,5239672.0
1576859242510,5259619.0
1576859242563,5270461.0
1576859242610,5278082.0
1576859242659,5294382.0
1576859242708,5305694.0
1576859242750,5302502.0
1576859242806,5282785.0
1576859242850,5280263.0
1576859242905,5284651.0
1576859242956,5298585.0
1576859243002,5312760.0
1576859243052,5311877.0
1576859243100,5308756.0
1576859243146,5309539.0
1576859243193,5310323.0
1576859243248,5315781.0
1576859243289,5322890.0
1576859243346,5323345.0
1576859243392,5324756.0
1576859243441,5323374.0
1576859243492,5300692.0
1576859243534,5276144.0
1576859243584,5273638.0
1576859243634,5280775.0
1576859243683,5292871.0
1576859243730,5305551.0
1576859243779,5319257.0
1576859243829,5340257.0
1576859243885,5378112.0
1576859243933,5424555.0
1576859243979,5458590.0
1576859244030,5479265.0
1576859244080,5507630.0
1576859244129,5531407.0
1576859244169,5564403.0
1576859244231,5604152.0
1576859244273,5653219.0
1576859244325,5695390.0
1576859244371,5724126.0
1576859244415,5710151.0
1576859244464,5688465.0
1576859244515,5668848.0
1576859244563,5652136.0
1576859244614,5636423.0
1576859244661,5627005.0
1576859244710,5624284.0
1576859244759,5661911.0
1576859244808,5713413.0
1576859244864,5782965.0
1576859244911,5823214.0
1576859244958,5830010.0
1576859245009,5824240.0
1576859245050,5817630.0
1576859245108,5824839.0
1576859245154,5826191.0
1576859245197,5796986.0
1576859245249,5782909.0
1576859245300,5766481.0
1576859245347,5770941.0
1576859245398,5774517.0
1576859245449,5768079.0
1576859245491,5765214.0
1576859245548,5765186.0
1576859245594,5771297.0
1576859245647,5772423.0
1576859245696,5756779.0
1576859245742,5723215.0
1576859245793,5699266.0
1576859245834,5687070.0
1576859245888,5676085.0
1576859245934,5656596.0
1576859245989,5635737.0
1576859246033,5615421.0
1576859246088,5612359.0
1576859246136,5616504.0
1576859246185,5632660.0
1576859246227,5638686.0
1576859246279,5631093.0
1576859246332,5621491.0
1576859246375,5622430.0
1576859246429,5598597.0
1576859246473,5564789.0
1576859246525,5547850.0
1576859246572,5534328.0
1576859246624,5530024.0
1576859246675,5516789.0
1576859246722,5495178.0
1576859246771,5480588.0
1576859246814,5469291.0
1576859246869,5459261.0
1576859246913,5451013.0
1576859246967,5439088.0
1576859247017,5430725.0
1576859247064,5425922.0
1576859247114,5430768.0
1576859247157,5426465.0
1576859247206,5398213.0
1576859247258,5384194.0
1576859247304,5373680.0
1576859247355,5374336.0
1576859247401,5363507.0
1576859247451,5360985.0
1576859247500,5368322.0
1576859247550,5384622.0
1576859247602,5395676.0
1576859247653,5402800.0
1576859247695,5410109.0
1576859247749,5416263.0
1576859247795,5426549.0
1576859247849,5425981.0
1576859247897,5407244.0
1576859247941,5397857.0
1576859247995,5399667.0
1576859248040,5408642.0
1576859248094,5418557.0
1576859248134,5408698.0
1576859248191,5404838.0
1576859248237,5410508.0
1576859248288,5424256.0
1576859248339,5431580.0
1576859248388,5442777.0
1576859248438,5453790.0
1576859248485,5479705.0
1576859248534,5494978.0
1576859248575,5488081.0
1576859248632,5475146.0
1576859248675,5475901.0
1576859248721,5485690.0
1576859248774,5490890.0
1576859248818,5483453.0
1576859248868,5491786.0
1576859248918,5495577.0
1576859248971,5510036.0
1576859249017,5515422.0
1576859249072,5531635.0
1576859249118,5538516.0
1576859249169,5543831.0
1576859249218,5556938.0
1576859249264,5559516.0
1576859249319,5531566.0
1576859249358,5508413.0
1576859249415,5499194.0
1576859249458,5495206.0
1576859249507,5489950.0
1576859249557,5480460.0
1576859249604,5475317.0
1576859249658,5476400.0
1576859249702,5491002.0
1576859249752,5497699.0
1576859249800,5511974.0
1576859249849,5520965.0
1576859249901,5537006.0
1576859249947,5554060.0
1576859249999,5559488.0
1576859250051,5542248.0
1576859250098,5528913.0
1576859250147,5530096.0
1576859250196,5534712.0
1576859250239,5531978.0
1576859250289,5527206.0
1576859250338,5508797.0
1576859250389,5501560.0
1576859250440,5507873.0
1576859250486,5517104.0
1576859250543,5530183.0
1576859250588,5542748.0
1576859250638,5560742.0
1576859250680,5579107.0
1576859250739,5597086.0
1576859250779,5611944.0
1576859250831,5592655.0
1576859250879,5585602.0
1576859250931,5582097.0
1576859250983,5593070.0
1576859251028,5591203.0
1576859251080,5591500.0
1576859251127,5592199.0
1576859251179,5598525.0
1576859251221,5601346.0
1576859251269,5611432.0
1576859251319,5624000.0
1576859251374,5639413.0
1576859251421,5650526.0
1576859251468,5661196.0
1576859251515,5669319.0
1576859251563,5674091.0
1576859251619,5664604.0
1576859251659,5659046.0
1576859251717,5660113.0
1576859251764,5658775.0
1576859251814,5656808.0
1576859251860,5657123.0
1576859251910,5650611.0
1576859251960,5655370.0
1576859252006,5663605.0
1576859252059,5666355.0
1576859252102,5675287.0
1576859252152,5677056.0
1576859252200,5684648.0
1576859252250,5688837.0
1576859252299,5690688.0
1576859252348,5682682.0
1576859252401,5660001.0
1576859252445,5655342.0
1576859252495,5659246.0
1576859252543,5657236.0
1576859252600,5651824.0
1576859252641,5646110.0
1576859252696,5649699.0
1576859252738,5658490.0
1576859252795,5675402.0
1576859252842,5679874.0
1576859252891,5690204.0
1576859252938,5702755.0
1576859252988,5707399.0
1576859253040,5704350.0
1576859253081,5678679.0
1576859253138,5673907.0
1576859253178,5674007.0
1576859253236,5679034.0
1576859253281,5674790.0
1576859253330,5668193.0
1576859253378,5664844.0
1576859253428,5663321.0
1576859253480,5661683.0
1576859253522,5661811.0
1576859253575,5662594.0
1576859253619,5661667.0
1576859253676,5661852.0
1576859253724,5645611.0
1576859253767,5625351.0
1576859253820,5611304.0
1576859253864,5604295.0
1576859253916,5617687.0
1576859253962,5600535.0
1576859254012,5589137.0
1576859254059,5584578.0
1576859254109,5576727.0
1576859254161,5571471.0
1576859254207,5565585.0
1576859254257,5565900.0
1576859254305,5572311.0
1576859254358,5573921.0
1576859254405,5574305.0
1576859254459,5557849.0
1576859254502,5547463.0
1576859254556,5541580.0
1576859254606,5531778.0
1576859254647,5524769.0
1576859254702,5517232.0
1576859254752,5510906.0
1576859254798,5512460.0
1576859254850,5510822.0
1576859254898,5508956.0
1576859254942,5507929.0
1576859254999,5514711.0
1576859255046,5517831.0
1576859255095,5505763.0
1576859255145,5495434.0
1576859255193,5490035.0
1576859255242,5493196.0
1576859255293,5500748.0
1576859255338,5510323.0
1576859255383,5514040.0
1576859255439,5515338.0
1576859255480,5526223.0
1576859255538,5529927.0
1576859255581,5533145.0
1576859255636,5543774.0
1576859255680,5551682.0
1576859255730,5548290.0
1576859255783,5535183.0
1576859255824,5522275.0
1576859255877,5526036.0
1576859255923,5534771.0
1576859255979,5539770.0
1576859256027,5539443.0
1576859256076,5550855.0
1576859256124,5562780.0
1576859256174,5568051.0
1576859256223,5574348.0
1576859256270,5584235.0
1576859256317,5595105.0
1576859256367,5592071.0
1576859256420,5590745.0
1576859256468,5584235.0
1576859256518,5583367.0
1576859256569,5592314.0
1576859256615,5599296.0
1576859256662,5601802.0
1576859256707,5596986.0
1576859256761,5615779.0
1576859256807,5643688.0
1576859256857,5697628.0
1576859256906,5777553.0
1576859256953,5886228.0
1576859257008,5963217.0
1576859257057,6058375.0
1576859257103,6156549.0
1576859257152,6225305.0
1576859257201,6291028.0
1576859257249,6353843.0
1576859257299,6402196.0
1576859257343,6443584.0
1576859257401,6471992.0
1576859257445,6488176.0
1576859257498,6491297.0
1576859257545,6491581.0
1576859257594,6500556.0
1576859257644,6513323.0
1576859257686,6523809.0
1576859257743,6537756.0
1576859257782,6553228.0
1576859257835,6568046.0
1576859257883,6589145.0
1576859257938,6602521.0
1576859257986,6612111.0
1576859258033,6623137.0
1576859258085,6633310.0
1576859258127,6641786.0
1576859258178,6656947.0
1576859258222,6676392.0
1576859258281,6703662.0
1576859258325,6726172.0
1576859258378,6752143.0
1576859258426,6771420.0
1576859258474,6780439.0
1576859258524,6796352.0
1576859258566,6780139.0
1576859258617,6790325.0
1576859258665,6780695.0
1576859258719,6797235.0
1576859258768,6844408.0
1576859258818,6905157.0
1576859258867,6944207.0
1576859258914,6963783.0
1576859258959,6913477.0
1576859259012,6852328.0
1576859259065,6766720.0
1576859259106,6730903.0
1576859259159,6746588.0
1576859259208,6751431.0
1576859259258,6759339.0
1576859259303,6735546.0
1576859259356,6742612.0
1576859259406,6741130.0
1576859259451,6725788.0
