time,value
1574254854397,6378312.0
1574254854450,6347502.0
1574254854492,6272802.0
1574254854545,6192616.0
1574254854642,6104657.0
1574254854661,6050746.0
1574254854728,5978830.0
1574254854749,5864418.0
1574254854825,5764058.0
1574254854842,5714664.0
1574254854877,5676084.0
1574254854927,5592561.0
1574254854979,5554772.0
1574254855027,5517730.0
1574254855075,5472352.0
1574254855124,5423848.0
1574254855172,5390286.0
1574254855221,5349713.0
1574254855269,5308154.0
1574254855319,5281102.0
1574254855369,5249728.0
1574254855415,5219208.0
1574254855465,5172032.0
1574254855515,4853292.0
1574254855562,4712554.0
1574254855608,4645218.0
1574254855658,4602099.0
1574254855710,4569484.0
1574254855757,4538615.0
1574254855806,4512960.0
1574254855853,4486282.0
1574254855907,4464497.0
1574254855962,4433521.0
1574254856003,4388987.0
1574254856049,4361337.0
1574254856103,4358771.0
1574254856152,4361538.0
1574254856198,4355686.0
1574254856248,4411106.0
1574254856292,4437367.0
1574254856345,4486532.0
1574254856388,4530269.0
1574254856447,4590035.0
1574254856496,4318796.0
1574254856540,4297320.0
1574254856589,4549028.0
1574254856638,4364827.0
1574254856686,4516320.0
1574254856731,4548209.0
1574254856784,4601124.0
1574254856836,4496908.0
1574254856881,4492846.0
1574254856930,4443968.0
1574254856980,4384832.0
1574254857028,4319865.0
1574254857069,4314013.0
1574254857124,4316695.0
1574254857176,4270820.0
1574254857221,4150813.0
1574254857269,4101734.0
1574254857321,4080149.0
1574254857363,4086299.0
1574254857417,4080505.0
1574254857461,4031769.0
1574254857513,4025499.0
1574254857559,4010530.0
1574254857606,4014732.0
1574254857656,4012096.0
1574254857705,4006634.0
1574254857753,3978472.0
1574254857802,3906882.0
1574254857851,3822314.0
1574254857904,3828558.0
1574254857957,3971694.0
1574254858001,4054421.0
1574254858050,4228305.0
1574254858099,4199016.0
1574254858147,4351208.0
1574254858189,4395874.0
1574254858245,4421186.0
1574254858294,4393915.0
1574254858343,4354295.0
1574254858391,4299980.0
1574254858443,4276567.0
1574254858496,4261109.0
1574254858536,4299351.0
1574254858586,4154542.0
1574254858635,4180625.0
1574254858684,4101851.0
1574254858732,4143488.0
1574254858781,4160228.0
1574254858830,4149568.0
1574254858878,4109676.0
1574254858927,4086892.0
1574254858976,4078084.0
1574254859027,4076136.0
1574254859073,4071754.0
1574254859121,4063065.0
1574254859170,4082560.0
1574254859221,4079686.0
1574254859268,4067874.0
1574254859313,4035769.0
1574254859366,4034534.0
1574254859418,4037693.0
1574254859459,4035485.0
1574254859512,4078950.0
1574254859561,4164620.0
1574254859608,4149568.0
1574254859654,4225267.0
1574254859705,4340964.0
1574254859758,4413540.0
1574254859797,4507106.0
1574254859845,4530376.0
1574254859902,4488859.0
1574254859954,4511025.0
1574254860010,4532288.0
1574254860040,4509077.0
1574254860092,4490592.0
1574254860139,4513766.0
1574254860193,4605862.0
1574254860240,4613318.0
1574254860289,4657945.0
1574254860337,4712915.0
1574254860387,4709378.0
1574254860440,4660106.0
1574254860481,4587150.0
1574254860531,4527859.0
1574254860579,4481378.0
1574254860627,4464211.0
1574254860676,4443291.0
1574254860728,4424320.0
1574254860777,4398675.0
1574254860821,4386660.0
1574254860871,4368234.0
1574254860924,4357478.0
1574254860976,4332106.0
1574254861022,4290720.0
1574254861070,4254745.0
1574254861115,4231035.0
1574254861167,4235927.0
1574254861219,4239810.0
1574254861265,4236960.0
1574254861314,4228068.0
1574254861363,4218250.0
1574254861406,4210188.0
1574254861468,4212490.0
1574254861510,4209429.0
1574254861560,4187797.0
1574254861606,4170807.0
1574254861654,4168064.0
1574254861704,4170214.0
1574254861745,4181966.0
1574254861821,4189815.0
1574254861849,4188603.0
1574254861897,4182299.0
1574254862001,4180484.0
1574254862004,4189422.0
1574254862072,4167923.0
1574254862090,4137422.0
1574254862137,4125002.0
1574254862187,4128185.0
1574254862237,4134466.0
1574254862283,4145625.0
1574254862337,4155266.0
1574254862382,4161440.0
1574254862430,4161783.0
1574254862482,4173442.0
1574254862529,4187025.0
1574254862578,4162045.0
1574254862630,4136187.0
1574254862680,4129787.0
1574254862729,4136674.0
1574254862770,4136757.0
1574254862822,4144686.0
1574254862870,4167293.0
1574254862922,4207351.0
1574254862967,4187274.0
1574254863020,4422242.0
1574254863063,4689563.0
1574254863113,4865322.0
1574254863161,5022086.0
1574254863211,5111735.0
1574254863261,5165981.0
1574254863307,5199116.0
1574254863358,5216996.0
1574254863404,5246250.0
1574254863460,5262954.0
1574254863502,5272215.0
1574254863555,5290690.0
1574254863600,5312012.0
1574254863650,5325463.0
1574254863701,5353422.0
1574254863746,5374662.0
1574254863798,5394918.0
1574254863843,5419065.0
1574254863893,5436827.0
1574254863941,5458090.0
1574254863996,5470534.0
1574254864041,5484874.0
1574254864086,5497602.0
1574254864142,5504608.0
1574254864184,5517785.0
1574254864239,5529730.0
1574254864282,5541269.0
1574254864336,5551776.0
1574254864384,5562368.0
1574254864433,5577800.0
1574254864488,5587763.0
1574254864522,5603837.0
1574254864579,5608076.0
1574254864623,5620375.0
1574254864676,5631357.0
1574254864728,5644179.0
1574254864772,5651268.0
1574254864825,5661632.0
1574254864867,5673290.0
1574254864919,5684915.0
1574254864965,5691788.0
1574254865018,5699138.0
1574254865068,5707140.0
1574254865113,5713408.0
1574254865161,5720840.0
1574254865210,5728795.0
1574254865257,5734730.0
1574254865302,5745190.0
1574254865358,5751494.0
1574254865400,5761324.0
1574254865457,5769779.0
1574254865510,5773638.0
1574254865552,5779313.0
1574254865603,5781710.0
1574254865643,5784584.0
1574254865698,5793250.0
1574254865747,5794141.0
1574254865795,5803840.0
1574254865843,5811345.0
1574254865893,5819607.0
1574254865944,5828049.0
1574254865986,5832595.0
1574254866040,5844040.0
1574254866086,5851189.0
1574254866137,5857053.0
1574254866181,5863761.0
1574254866233,5865565.0
1574254866288,5870350.0
1574254866333,5873034.0
1574254866380,5877996.0
1574254866428,5873258.0
1574254866483,5879991.0
1574254866522,5884288.0
1574254866574,5886188.0
1574254866626,5893122.0
1574254866670,5894368.0
1574254866724,5897098.0
1574254866761,5890557.0
1574254866818,5891946.0
1574254866861,5890451.0
1574254866915,5896185.0
1574254866966,5903758.0
1574254867004,5900424.0
1574254867061,5904994.0
1574254867103,5911464.0
1574254867155,5919430.0
1574254867202,5929047.0
1574254867255,5929070.0
1574254867305,5935185.0
1574254867351,5941941.0
1574254867402,5947259.0
1574254867444,5953696.0
1574254867500,5952876.0
1574254867548,5956021.0
1574254867595,5956676.0
1574254867647,5962801.0
1574254867692,5969401.0
1574254867743,5972465.0
1574254867792,5971065.0
1574254867833,5968832.0
1574254867881,5964130.0
1574254867931,5967383.0
1574254867985,5965568.0
1574254868030,5964629.0
1574254868083,5969294.0
1574254868133,5983530.0
1574254868181,5989312.0
1574254868224,5998003.0
1574254868277,6006551.0
1574254868329,6014304.0
1574254868373,6022995.0
1574254868423,6030521.0
1574254868465,6044721.0
1574254868524,6054385.0
1574254868573,6063172.0
1574254868619,6077548.0
1574254868668,6091059.0
1574254868715,6097209.0
1574254868765,6099987.0
1574254868811,6108012.0
1574254868862,6116823.0
1574254868904,6133467.0
1574254868958,6143251.0
1574254869008,6146515.0
1574254869056,6157486.0
1574254869100,6158126.0
1574254869151,6155989.0
1574254869201,6155229.0
1574254869243,6165166.0
1574254869300,6161510.0
1574254869347,6166758.0
1574254869395,6167434.0
1574254869446,6167637.0
1574254869490,6173632.0
1574254869542,6179332.0
1574254869584,6181171.0
1574254869640,6192686.0
1574254869687,6202210.0
1574254869739,6187168.0
1574254869786,6181314.0
1574254869829,6177371.0
1574254869882,6173597.0
1574254869934,6178606.0
1574254869982,6181706.0
1574254870025,6184520.0
1574254870082,6192450.0
1574254870126,6197282.0
1574254870174,6197248.0
1574254870223,6195940.0
1574254870270,6199016.0
1574254870325,6203895.0
1574254870366,6209629.0
1574254870418,6215020.0
1574254870471,6222963.0
1574254870513,6228401.0
1574254870563,6231950.0
1574254870610,6231938.0
1574254870657,6226856.0
1574254870710,6228864.0
1574254870756,6231202.0
1574254870803,6233446.0
1574254870852,6233100.0
1574254870899,6224672.0
1574254870950,6220315.0
1574254870997,6217038.0
1574254871048,6208347.0
1574254871095,6211315.0
1574254871145,6211754.0
1574254871190,6221715.0
1574254871239,6215008.0
1574254871288,6221644.0
1574254871338,6222203.0
1574254871388,6226702.0
1574254871435,6227012.0
1574254871486,6227995.0
1574254871532,6229277.0
1574254871583,6231571.0
1574254871631,6230442.0
1574254871679,6226097.0
1574254871730,6230715.0
1574254871782,6223556.0
1574254871827,6218498.0
1574254871879,6213452.0
1574254871927,6217728.0
1574254871975,6212313.0
1574254872032,6212230.0
1574254872073,6206116.0
1574254872123,6200119.0
1574254872171,6194611.0
1574254872224,6192486.0
1574254872271,6189969.0
1574254872318,6186406.0
1574254872363,6158982.0
1574254872411,6130357.0
1574254872477,6120930.0
1574254872509,6107123.0
1574254872565,6086656.0
1574254872612,6059050.0
1574254872661,6031140.0
1574254872705,5990214.0
1574254872749,5938178.0
1574254872804,5843138.0
1574254872867,5724710.0
1574254873029,5567270.0
1574254873030,5282378.0
1574254873033,4972435.0
1574254873064,4738656.0
1574254873099,4588812.0
1574254873137,4468473.0
1574254873186,4349998.0
1574254873237,4222916.0
1574254873288,4089670.0
1574254873336,3973094.0
1574254873380,3865388.0
1574254873431,3785926.0
1574254873480,3712198.0
1574254873529,3582824.0
1574254873578,3372164.0
1574254873627,3329775.0
1574254873675,3449534.0
1574254873723,3601901.0
1574254873771,3755782.0
1574254873821,3895421.0
1574254873869,3961799.0
1574254873919,4033300.0
1574254873975,4108214.0
1574254874019,4180274.0
1574254874064,4241267.0
1574254874113,4308364.0
1574254874162,4340183.0
1574254874209,4370228.0
1574254874259,4388441.0
1574254874310,4429927.0
1574254874356,4456064.0
1574254874405,4493092.0
1574254874456,4517814.0
1574254874505,4537624.0
1574254874551,4644933.0
1574254874601,4646993.0
1574254874650,4616126.0
1574254874696,4581166.0
1574254874748,4524332.0
1574254874798,4446675.0
1574254874847,4310101.0
1574254874895,4321444.0
1574254874943,4217077.0
1574254875003,4089567.0
1574254875042,4013328.0
1574254875093,3942450.0
1574254875140,3822933.0
1574254875189,3670834.0
1574254875238,3547274.0
1574254875285,3497372.0
1574254875329,3445790.0
1574254875384,3352738.0
1574254875432,3360759.0
1574254875480,3399178.0
1574254875534,3406480.0
1574254875578,3423955.0
1574254875627,3428435.0
1574254875675,3384135.0
1574254875725,3336974.0
1574254875770,3334144.0
1574254875822,3295053.0
1574254875870,3213683.0
1574254875920,3135874.0
1574254875971,3112338.0
1574254876013,3115461.0
1574254876065,3207300.0
1574254876115,3275660.0
1574254876162,3238922.0
1574254876211,3178166.0
1574254876261,3223562.0
1574254876308,3250058.0
1574254876357,3258211.0
1574254876406,3192943.0
1574254876459,3140289.0
1574254876508,3139730.0
1574254876552,3180598.0
1574254876601,3209526.0
1574254876648,3229742.0
1574254876694,3263207.0
1574254876747,3290489.0
1574254876789,3303226.0
1574254876843,3285158.0
1574254876892,3277785.0
1574254876943,3342848.0
1574254876991,3433831.0
1574254877033,3440753.0
1574254877087,3436860.0
1574254877133,3523332.0
1574254877186,3602795.0
1574254877238,3728093.0
1574254877281,3875289.0
1574254877329,3983353.0
1574254877380,4111059.0
1574254877428,4198716.0
1574254877477,4292699.0
1574254877525,4376929.0
1574254877576,4449952.0
1574254877623,4515189.0
1574254877671,4567180.0
1574254877721,4614993.0
1574254877768,4703796.0
1574254877815,4754340.0
1574254877865,4752780.0
1574254877913,4735995.0
1574254877963,4702317.0
1574254878012,4659565.0
1574254878055,4628508.0
1574254878102,4563323.0
1574254878157,4461368.0
1574254878206,4358373.0
1574254878259,4249297.0
1574254878297,4157543.0
1574254878352,4085365.0
1574254878401,4002706.0
1574254878449,3951963.0
1574254878496,3950963.0
1574254878548,3950902.0
1574254878599,3873454.0
1574254878644,3800047.0
1574254878693,3748433.0
1574254878739,3731840.0
1574254878786,3719976.0
1574254878838,3716475.0
1574254878883,3699321.0
1574254878939,3647449.0
1574254878989,3631526.0
1574254879035,3651210.0
1574254879083,3667744.0
1574254879131,3627485.0
1574254879176,3594396.0
1574254879228,3717447.0
1574254879275,3786422.0
1574254879322,3777881.0
1574254879375,3983420.0
1574254879426,4081696.0
1574254879477,4142600.0
1574254879521,4086786.0
1574254879569,3950464.0
1574254879616,3955594.0
1574254879667,3943480.0
1574254879717,4006597.0
1574254879764,4162765.0
1574254879813,4341038.0
1574254879863,4394152.0
1574254879909,4276782.0
1574254879969,4121606.0
1574254880008,4080434.0
1574254880061,4142309.0
1574254880100,4164526.0
1574254880154,4126746.0
1574254880203,4131368.0
1574254880251,4146391.0
1574254880298,4114602.0
1574254880348,4065470.0
1574254880397,4012328.0
1574254880446,3976529.0
1574254880497,3964826.0
1574254880542,3979450.0
1574254880591,3989894.0
1574254880639,4000006.0
1574254880688,3992104.0
1574254880737,4003937.0
1574254880781,4190171.0
1574254880834,4304910.0
1574254880884,4290907.0
1574254880932,4321704.0
1574254880981,4344350.0
1574254881024,4354921.0
1574254881076,4364283.0
1574254881122,4347119.0
1574254881172,4286165.0
1574254881220,4311972.0
1574254881272,4265309.0
1574254881318,4237984.0
1574254881369,4255297.0
1574254881419,4252216.0
1574254881471,4238663.0
1574254881517,4211606.0
1574254881566,4262050.0
1574254881612,4353631.0
1574254881659,4398843.0
1574254881710,4435551.0
1574254881762,4442514.0
1574254881807,4438883.0
1574254881857,4420819.0
1574254881901,4423848.0
1574254881966,4376047.0
1574254881999,4351020.0
1574254882044,4344679.0
1574254882097,4348980.0
1574254882141,4358233.0
1574254882197,4334147.0
1574254882247,4345230.0
1574254882293,4335536.0
1574254882342,4281094.0
1574254882390,4264809.0
1574254882448,4258427.0
1574254882493,4271191.0
1574254882532,4281295.0
1574254882583,4299729.0
1574254882634,4286065.0
1574254882679,4296267.0
1574254882732,4285204.0
1574254882786,4290096.0
1574254882829,4287766.0
1574254882879,4287185.0
1574254882925,4304109.0
1574254882978,4286346.0
1574254883027,4287656.0
1574254883072,4283034.0
1574254883126,4287666.0
1574254883164,4321363.0
1574254883220,4350640.0
1574254883267,4383370.0
1574254883315,4403403.0
1574254883361,4385259.0
1574254883412,4385779.0
1574254883465,4385649.0
1574254883506,4334657.0
1574254883561,4331477.0
1574254883605,4352392.0
1574254883656,4387911.0
1574254883701,4384589.0
1574254883747,4388370.0
1574254883802,4405394.0
1574254883845,4393431.0
1574254883897,4367465.0
1574254883945,4419238.0
1574254883998,4471781.0
1574254884040,4479471.0
1574254884094,4473981.0
1574254884145,4454727.0
1574254884190,4462187.0
1574254884240,4459008.0
1574254884287,4439291.0
1574254884337,4443643.0
1574254884384,4481233.0
1574254884431,4488234.0
1574254884486,4509379.0
1574254884527,4484463.0
1574254884580,4480042.0
1574254884629,4470249.0
1574254884678,4457177.0
1574254884719,4536907.0
1574254884774,4641001.0
1574254884823,4709999.0
1574254884871,4744338.0
1574254884919,4711489.0
1574254884962,4737046.0
1574254885020,4762810.0
1574254885064,4740975.0
1574254885111,4683631.0
1574254885166,4722391.0
1574254885212,4672560.0
1574254885262,4711109.0
1574254885310,4703697.0
1574254885360,4695296.0
1574254885407,4677721.0
1574254885460,4652375.0
1574254885507,4644043.0
1574254885552,4644152.0
1574254885602,4751049.0
1574254885649,4807332.0
1574254885700,4855895.0
1574254885743,4893033.0
1574254885796,4912288.0
1574254885843,4907696.0
1574254885893,4878709.0
1574254885946,4867177.0
1574254885987,4877779.0
1574254886041,4843532.0
1574254886088,4866667.0
1574254886137,4841480.0
1574254886183,4819045.0
1574254886234,4796759.0
1574254886285,4775044.0
1574254886330,4856443.0
1574254886381,4929462.0
1574254886430,5045109.0
1574254886483,5048352.0
1574254886526,5036759.0
1574254886577,5025214.0
1574254886627,5007652.0
1574254886674,4982844.0
1574254886723,4951578.0
1574254886764,5034327.0
1574254886820,4969331.0
1574254886866,5014962.0
1574254886917,4992308.0
1574254886969,4964880.0
1574254887012,4944967.0
1574254887057,4900626.0
1574254887106,4947667.0
1574254887158,5039979.0
1574254887205,5128951.0
1574254887255,5128380.0
1574254887302,5079568.0
1574254887355,5111897.0
1574254887398,5108656.0
1574254887449,5090092.0
1574254887498,5032557.0
1574254887546,5052363.0
1574254887597,5059624.0
1574254887641,5081959.0
1574254887695,5059744.0
1574254887748,5033918.0
1574254887793,4999560.0
1574254887842,4954648.0
1574254887883,5043210.0
1574254887942,5097094.0
1574254887984,5127371.0
1574254888038,5135162.0
1574254888087,5110135.0
1574254888134,5069555.0
1574254888176,5066536.0
1574254888224,5072857.0
1574254888273,5031407.0
1574254888322,5007611.0
1574254888371,5009871.0
1574254888423,5031968.0
1574254888471,5028386.0
1574254888525,5014103.0
1574254888571,4946336.0
1574254888620,4990608.0
1574254888668,5069246.0
1574254888717,5118488.0
1574254888769,5169690.0
1574254888814,5159968.0
1574254888863,5141613.0
1574254888910,5137684.0
1574254888963,5136262.0
1574254889006,5068716.0
1574254889060,5167599.0
1574254889109,5104776.0
1574254889155,5147105.0
1574254889205,5111436.0
1574254889253,5103355.0
1574254889303,5052893.0
1574254889344,5010822.0
1574254889400,5051962.0
1574254889450,5164099.0
1574254889501,5228365.0
1574254889547,5233946.0
1574254889604,5207950.0
1574254889642,5238497.0
1574254889685,5250710.0
1574254889740,5184154.0
1574254889788,5166110.0
1574254889840,5255202.0
1574254889889,5227985.0
1574254889933,5249481.0
1574254889987,5236837.0
1574254890031,5216132.0
1574254890083,5166860.0
1574254890127,5114278.0
1574254890181,5099914.0
1574254890229,5160529.0
1574254890275,5206970.0
1574254890327,5304293.0
1574254890368,5292950.0
1574254890425,5343504.0
1574254890470,5385474.0
1574254890520,5341612.0
1574254890569,5339241.0
1574254890616,5311886.0
1574254890668,5363878.0
1574254890707,5403438.0
1574254890764,5429715.0
1574254890809,5394757.0
1574254890856,5337632.0
1574254890901,5290061.0
1574254890957,5224254.0
1574254891001,5253361.0
1574254891048,5324458.0
1574254891106,5398877.0
1574254891149,5397306.0
1574254891201,5438817.0
1574254891250,5493430.0
1574254891297,5500891.0
1574254891347,5463682.0
1574254891391,5377062.0
1574254891447,5444768.0
1574254891492,5385713.0
1574254891536,5400267.0
1574254891592,5375181.0
1574254891639,5344182.0
1574254891689,5314466.0
1574254891730,5280268.0
1574254891786,5295872.0
1574254891827,5394145.0
1574254891882,5462322.0
1574254891928,5427134.0
1574254891979,5440556.0
1574254892029,5451280.0
1574254892072,5467073.0
1574254892121,5397776.0
1574254892167,5369189.0
1574254892218,5371910.0
1574254892271,5377011.0
1574254892315,5375191.0
1574254892365,5338563.0
1574254892414,5323969.0
1574254892470,5287519.0
1574254892509,5240718.0
1574254892566,5300792.0
1574254892612,5348644.0
1574254892661,5376802.0
1574254892711,5385803.0
1574254892759,5369630.0
1574254892800,5342193.0
1574254892852,5339251.0
1574254892901,5311876.0
1574254892950,5246529.0
1574254892997,5244680.0
1574254893053,5289959.0
1574254893098,5294640.0
1574254893150,5271885.0
1574254893191,5258583.0
1574254893247,5234566.0
1574254893289,5151786.0
1574254893341,5199798.0
1574254893389,5201328.0
1574254893438,5234807.0
1574254893494,5203179.0
1574254893531,5172931.0
1574254893588,5142013.0
1574254893630,5135902.0
1574254893687,5115377.0
1574254893732,5084501.0
1574254893781,5104006.0
1574254893830,5100273.0
1574254893872,5083379.0
1574254893929,5090692.0
1574254893971,5091783.0
1574254894017,5065035.0
1574254894068,5024195.0
1574254894116,5062515.0
1574254894164,5055433.0
1574254894214,5073206.0
1574254894262,5047361.0
1574254894312,5034888.0
1574254894360,5028376.0
1574254894408,5020525.0
1574254894457,4991817.0
1574254894505,4971753.0
1574254894554,4970542.0
1574254894602,4973513.0
1574254894652,4941196.0
1574254894700,4928412.0
1574254894748,4919269.0
1574254894798,4896304.0
1574254894845,4916360.0
1574254894894,4985065.0
1574254894943,4995898.0
1574254894991,5024536.0
1574254895047,4958870.0
1574254895096,4929822.0
1574254895144,4882771.0
1574254895192,4866476.0
1574254895234,4857325.0
1574254895289,4836530.0
1574254895331,4828357.0
1574254895387,4835340.0
1574254895436,4838020.0
1574254895483,4825197.0
1574254895532,4804551.0
1574254895576,4776586.0
1574254895630,4862295.0
1574254895673,4964760.0
1574254895727,5024256.0
1574254895777,4998209.0
1574254895817,5016084.0
1574254895873,5004460.0
1574254895915,4993517.0
1574254895963,4925982.0
1574254896015,4915078.0
1574254896068,4932473.0
1574254896117,4921551.0
1574254896165,4909307.0
1574254896214,4881430.0
1574254896256,4862935.0
1574254896311,4852713.0
1574254896352,4866277.0
1574254896408,4938154.0
1574254896456,4918899.0
1574254896503,4909568.0
1574254896555,4881399.0
1574254896601,4876609.0
1574254896651,4887001.0
1574254896693,4827176.0
1574254896749,4798189.0
1574254896796,4800410.0
1574254896847,4777705.0
1574254896896,4755850.0
1574254896942,4730894.0
1574254896991,4726292.0
1574254897034,4699666.0
1574254897090,4663968.0
1574254897136,4727793.0
1574254897186,4700617.0
1574254897229,4718441.0
1574254897276,4710909.0
1574254897333,4715129.0
1574254897376,4702567.0
1574254897431,4696035.0
1574254897477,4665037.0
1574254897522,4697825.0
1574254897568,4678272.0
1574254897618,4700265.0
1574254897668,4679141.0
1574254897719,4687874.0
1574254897765,4651014.0
1574254897816,4628278.0
1574254897863,4681341.0
1574254897912,4774725.0
1574254897961,4882031.0
1574254898007,4937175.0
1574254898057,4965971.0
1574254898112,4943725.0
1574254898158,4968701.0
1574254898208,4911148.0
1574254898258,4896054.0
1574254898305,4945026.0
1574254898355,4965560.0
1574254898397,4965912.0
1574254898445,4918280.0
1574254898500,4883220.0
1574254898543,4856194.0
1574254898599,4872399.0
1574254898645,4903035.0
1574254898696,4974173.0
1574254898745,5112657.0
1574254898793,5077627.0
1574254898837,5089881.0
1574254898888,5153426.0
1574254898939,5119758.0
1574254898981,5103634.0
1574254899036,5077778.0
1574254899077,5075338.0
1574254899131,5100594.0
1574254899179,5087951.0
1574254899229,5047740.0
1574254899279,5018695.0
1574254899324,4998999.0
1574254899377,4958500.0
1574254899418,4974392.0
1574254899475,4958638.0
1574254899520,4937723.0
1574254899569,4948366.0
1574254899622,4904986.0
1574254899666,4888892.0
1574254899717,4881310.0
1574254899759,4850533.0
1574254899808,4825417.0
1574254899859,4814214.0
1574254899912,4805063.0
1574254899962,4794678.0
1574254900003,4761742.0
1574254900057,4747597.0
1574254900099,4726962.0
1574254900155,4679121.0
1574254900199,4717531.0
1574254900252,4781616.0
1574254900303,4798760.0
1574254900341,4873728.0
1574254900399,4850054.0
1574254900441,4830988.0
1574254900499,4836520.0
1574254900547,4834159.0
1574254900584,4779125.0
1574254900643,4839560.0
1574254900684,4811684.0
1574254900739,4845001.0
1574254900781,4827587.0
1574254900828,4804522.0
1574254900883,4774154.0
1574254900927,4772063.0
1574254900985,4846982.0
1574254901031,4953057.0
1574254901074,5032037.0
1574254901123,5053003.0
1574254901178,5069007.0
1574254901221,5087611.0
1574254901276,5069236.0
1574254901323,5035377.0
1574254901370,5002000.0
1574254901420,5064955.0
1574254901462,5049031.0
1574254901521,5091171.0
1574254901561,5048510.0
1574254901616,5019434.0
1574254901662,4984606.0
1574254901711,4950788.0
1574254901759,4962460.0
1574254901805,4996538.0
1574254901859,5120308.0
1574254901902,5172951.0
1574254901957,5276456.0
1574254902005,5353516.0
1574254902051,5362708.0
1574254902099,5279307.0
1574254902147,5219622.0
1574254902202,5268114.0
1574254902241,5230726.0
1574254902298,5271196.0
1574254902339,5247469.0
1574254902389,5221243.0
1574254902440,5189185.0
1574254902484,5153158.0
1574254902534,5128541.0
1574254902584,5195337.0
1574254902639,5277728.0
1574254902680,5333321.0
1574254902736,5368118.0
1574254902782,5440536.0
1574254902831,5503262.0
1574254902879,5488729.0
1574254902921,5353406.0
1574254902970,5371170.0
1574254903019,5323387.0
1574254903067,5388635.0
1574254903122,5388875.0
1574254903167,5361688.0
1574254903218,5299122.0
1574254903265,5309305.0
1574254903320,5316656.0
1574254903361,5337821.0
1574254903417,5321108.0
1574254903466,5326949.0
1574254903513,5319527.0
1574254903560,5308495.0
1574254903606,5282919.0
1574254903654,5209400.0
1574254903701,5209191.0
1574254903757,5230185.0
1574254903807,5236256.0
1574254903854,5218612.0
1574254903899,5178012.0
1574254903949,5184394.0
1574254904001,5162158.0
1574254904042,5157357.0
1574254904097,5082280.0
1574254904143,5072467.0
1574254904195,5100724.0
1574254904243,5090490.0
1574254904289,5089432.0
1574254904339,5063375.0
1574254904388,5047840.0
1574254904439,5014552.0
1574254904490,5013562.0
1574254904528,5017573.0
1574254904582,5022976.0
1574254904630,5021104.0
1574254904679,4976633.0
1574254904726,4946685.0
1574254904779,4917548.0
1574254904828,4878169.0
1574254904876,4917650.0
1574254904919,4944146.0
1574254904974,4941805.0
1574254905019,4899644.0
1574254905064,4904076.0
1574254905121,4894634.0
1574254905170,4871547.0
1574254905217,4814425.0
1574254905266,4826286.0
1574254905314,4843891.0
1574254905360,4855564.0
1574254905405,4828147.0
1574254905461,4819846.0
1574254905509,4802312.0
1574254905558,4780525.0
1574254905604,4696764.0
1574254905654,4680411.0
1574254905700,4664738.0
1574254905749,4649474.0
1574254905803,4607292.0
1574254905846,4574246.0
1574254905900,4576936.0
1574254905945,4559372.0
1574254905996,4506428.0
1574254906046,4477072.0
1574254906089,4481013.0
1574254906141,4448985.0
1574254906186,4412015.0
1574254906238,4430260.0
1574254906288,4427239.0
1574254906335,4415317.0
1574254906384,4399093.0
1574254906427,4380598.0
1574254906478,4368855.0
1574254906526,4370255.0
1574254906580,4369296.0
1574254906629,4347320.0
1574254906677,4345449.0
1574254906717,4342438.0
1574254906772,4281453.0
1574254906820,4296368.0
1574254906864,4279273.0
1574254906920,4253437.0
1574254906968,4246584.0
1574254907016,4245335.0
1574254907064,4242474.0
1574254907112,4221840.0
1574254907162,4234812.0
1574254907208,4217439.0
1574254907260,4211157.0
1574254907308,4247755.0
1574254907355,4389441.0
1574254907406,4445574.0
1574254907447,4437652.0
1574254907495,4428830.0
1574254907544,4397393.0
1574254907603,4327275.0
1574254907648,4329415.0
1574254907691,4370716.0
1574254907747,4389471.0
1574254907787,4405024.0
1574254907845,4438131.0
1574254907886,4445994.0
1574254907939,4428040.0
1574254907988,4476491.0
1574254908038,4462778.0
1574254908089,4519883.0
1574254908129,4616647.0
1574254908177,4638181.0
1574254908226,4659846.0
1574254908277,4719660.0
1574254908325,4764521.0
1574254908374,4592339.0
1574254908422,4562243.0
1574254908475,4634000.0
1574254908528,4634749.0
1574254908567,4602723.0
1574254908622,4603912.0
1574254908668,4590569.0
1574254908720,4557651.0
1574254908762,4572084.0
1574254908814,4612134.0
1574254908866,4679651.0
1574254908907,4667517.0
1574254908960,4640991.0
1574254909011,4634140.0
1574254909058,4638541.0
1574254909110,4623297.0
1574254909156,4582808.0
1574254909208,4576686.0
1574254909247,4626249.0
1574254909304,4628278.0
1574254909348,4625787.0
1574254909402,4595421.0
1574254909450,4583397.0
1574254909497,4604763.0
1574254909547,4749748.0
1574254909589,4766803.0
1574254909647,4737706.0
1574254909687,4723752.0
1574254909741,4722771.0
1574254909790,4707618.0
1574254909837,4709558.0
1574254909890,4704938.0
1574254909929,4747188.0
1574254909987,4772545.0
1574254910027,4811182.0
1574254910082,4782236.0
1574254910131,4750238.0
1574254910181,4705958.0
1574254910230,4664078.0
1574254910270,4655565.0
1574254910326,4814764.0
1574254910368,4884650.0
1574254910426,4933664.0
1574254910470,4915279.0
1574254910521,4905106.0
1574254910571,4914308.0
1574254910612,4876239.0
1574254910667,4873409.0
1574254910709,4857595.0
1574254910758,4866606.0
1574254910811,4851512.0
1574254910857,4844822.0
1574254910905,4808653.0
1574254910954,4780625.0
1574254911009,4739746.0
1574254911049,4709749.0
1574254911106,4787458.0
1574254911152,4786598.0
1574254911203,4848593.0
1574254911251,4835689.0
1574254911298,4811664.0
1574254911342,4798959.0
1574254911389,4804012.0
1574254911447,4789298.0
1574254911491,4782065.0
1574254911544,4782567.0
1574254911592,4771563.0
1574254911635,4771614.0
1574254911690,4767022.0
1574254911731,4758741.0
1574254911788,4729933.0
1574254911832,4757451.0
1574254911884,4832709.0
1574254911932,4843542.0
1574254911975,4863595.0
1574254912029,4851453.0
1574254912071,4845131.0
1574254912127,4854113.0
1574254912172,4881830.0
1574254912227,4761821.0
1574254912272,4759671.0
1574254912321,4819466.0
1574254912370,4890812.0
1574254912411,4856563.0
1574254912468,4859985.0
1574254912517,4831648.0
1574254912566,4816605.0
1574254912607,4783776.0
1574254912660,4822836.0
1574254912711,4854294.0
1574254912752,4876728.0
1574254912808,4896514.0
1574254912854,4882692.0
1574254912906,4950367.0
1574254912954,4950788.0
1574254913002,4944566.0
1574254913051,4829488.0
1574254913094,4881351.0
1574254913148,4944906.0
1574254913193,4908797.0
1574254913247,4913038.0
1574254913295,4903025.0
1574254913341,4842550.0
1574254913391,4851614.0
1574254913433,4945617.0
1574254913489,5045390.0
1574254913534,5053943.0
1574254913586,5007892.0
1574254913635,5025066.0
1574254913684,5057824.0
1574254913732,5016844.0
1574254913774,5005630.0
1574254913830,4961340.0
1574254913873,4983354.0
1574254913928,4966781.0
1574254913976,4971942.0
1574254914025,4954819.0
1574254914073,4934243.0
1574254914116,4887452.0
1574254914171,4966402.0
1574254914213,4954158.0
1574254914269,4959920.0
1574254914315,4927922.0
1574254914364,4930893.0
1574254914414,4956879.0
1574254914461,4887602.0
1574254914512,4902355.0
1574254914555,4891192.0
1574254914609,4974772.0
1574254914656,4951237.0
1574254914706,4917418.0
1574254914755,4882860.0
1574254914800,4862305.0
1574254914851,4862526.0
1574254914893,4923790.0
1574254914948,4939375.0
1574254914996,4947106.0
1574254915040,4904626.0
1574254915089,4914728.0
1574254915137,4924172.0
1574254915186,4900654.0
1574254915238,4824456.0
1574254915283,4853564.0
1574254915334,4846291.0
1574254915381,4905266.0
1574254915430,4886091.0
1574254915479,4887161.0
1574254915527,4865757.0
1574254915577,4828178.0
1574254915625,4882090.0
1574254915673,4952817.0
1574254915722,4972873.0
1574254915769,4969341.0
1574254915818,4933552.0
1574254915868,4918150.0
1574254915919,4914748.0
1574254915966,4891032.0
1574254916017,4819805.0
1574254916070,4792078.0
1574254916119,4829208.0
1574254916167,4825027.0
1574254916215,4761411.0
1574254916261,4817865.0
1574254916313,4815223.0
1574254916356,4838570.0
1574254916409,4796259.0
1574254916456,4762112.0
1574254916507,4729823.0
1574254916557,4695015.0
1574254916597,4649155.0
1574254916654,4642661.0
1574254916697,4657426.0
1574254916752,4650353.0
1574254916798,4585587.0
1574254916848,4603922.0
1574254916898,4606273.0
1574254916942,4626027.0
1574254916995,4536927.0
1574254917037,4547600.0
1574254917092,4545389.0
1574254917135,4503468.0
1574254917181,4478232.0
1574254917232,4471361.0
1574254917279,4550950.0
1574254917329,4527815.0
1574254917377,4500898.0
1574254917432,4502007.0
1574254917478,4506900.0
1574254917524,4473281.0
1574254917578,4423608.0
1574254917620,4433302.0
1574254917675,4440783.0
1574254917721,4430520.0
1574254917773,4432940.0
1574254917818,4432491.0
1574254917870,4428101.0
1574254917919,4447544.0
1574254917962,4521573.0
1574254918016,4525724.0
1574254918059,4554991.0
1574254918114,4543087.0
1574254918160,4517471.0
1574254918208,4537626.0
1574254918260,4532935.0
1574254918302,4463737.0
1574254918354,4464719.0
1574254918400,4479043.0
1574254918454,4480203.0
1574254918503,4480763.0
1574254918551,4484303.0
1574254918599,4471720.0
1574254918642,4456086.0
1574254918690,4550410.0
1574254918741,4664947.0
1574254918797,4685393.0
1574254918844,4719851.0
1574254918889,4693315.0
1574254918942,4647054.0
1574254918981,4631409.0
1574254919037,4600332.0
1574254919081,4508690.0
1574254919137,4515360.0
1574254919183,4507749.0
1574254919231,4496436.0
1574254919279,4456736.0
1574254919324,4460288.0
1574254919379,4475111.0
1574254919421,4482933.0
1574254919476,4482714.0
1574254919524,4555101.0
1574254919571,4544089.0
1574254919620,4490435.0
1574254919663,4492976.0
1574254919713,4543008.0
1574254919762,4564354.0
1574254919818,4638650.0
1574254919861,4575825.0
1574254919914,4619727.0
1574254919964,4632029.0
1574254920008,4577877.0
1574254920053,4572285.0
1574254920101,4602463.0
1574254920149,4639471.0
1574254920200,4732464.0
1574254920254,4690834.0
1574254920301,4676931.0
1574254920350,4611584.0
1574254920397,4594980.0
1574254920448,4583137.0
1574254920499,4588359.0
1574254920547,4614936.0
1574254920594,4672958.0
1574254920642,4542988.0
1574254920687,4610454.0
1574254920740,4645302.0
1574254920784,4656865.0
1574254920836,4726253.0
1574254920881,4732495.0
1574254920932,4682471.0
1574254920979,4734654.0
1574254921029,4789158.0
1574254921076,4802982.0
1574254921129,4835100.0
1574254921179,4819415.0
1574254921224,4825088.0
1574254921279,4820675.0
1574254921319,4778256.0
1574254921376,4750138.0
1574254921427,4752199.0
1574254921472,4824836.0
1574254921521,4814894.0
1574254921563,4804022.0
1574254921620,4822087.0
1574254921662,4794189.0
1574254921716,4800321.0
1574254921766,4846663.0
1574254921814,4919409.0
1574254921858,5036478.0
1574254921908,5124079.0
1574254921960,5149295.0
1574254922001,5133622.0
1574254922049,4978564.0
1574254922108,5044171.0
1574254922145,5061595.0
1574254922197,5026295.0
1574254922244,5056914.0
1574254922295,5061605.0
1574254922340,5082168.0
1574254922397,5045971.0
1574254922448,5003830.0
1574254922491,4998930.0
1574254922541,5063925.0
1574254922590,5142885.0
1574254922642,5187514.0
1574254922683,5149395.0
1574254922737,5206170.0
1574254922787,5284610.0
1574254922829,5258973.0
1574254922884,5177833.0
1574254922929,5351365.0
1574254922979,5259843.0
1574254923026,5310965.0
1574254923079,5257413.0
1574254923127,5221432.0
1574254923176,5161469.0
1574254923223,5125950.0
1574254923275,5140433.0
1574254923318,5219382.0
1574254923367,5281948.0
1574254923421,5267104.0
1574254923470,5298092.0
1574254923517,5316266.0
1574254923565,5343114.0
1574254923613,5301254.0
1574254923659,5250421.0
1574254923705,5286920.0
1574254923761,5222444.0
1574254923808,5252181.0
1574254923857,5242678.0
1574254923905,5210061.0
1574254923954,5157398.0
1574254924004,5099593.0
1574254924043,5141715.0
1574254924092,5121670.0
1574254924142,5157487.0
1574254924189,5158298.0
1574254924247,5146465.0
1574254924294,5146435.0
1574254924340,5101543.0
1574254924389,5081258.0
1574254924440,5117318.0
1574254924486,5058574.0
1574254924531,5065055.0
1574254924587,5036369.0
1574254924634,5027746.0
1574254924682,5022124.0
1574254924726,5007081.0
1574254924779,4964630.0
1574254924826,5002780.0
1574254924879,4985236.0
1574254924929,4968862.0
1574254924976,4972783.0
1574254925017,4963449.0
1574254925064,4983976.0
1574254925114,4965540.0
1574254925162,4913078.0
1574254925211,4939605.0
1574254925259,4924350.0
1574254925308,4933623.0
1574254925357,4916648.0
1574254925408,4889053.0
1574254925464,4840360.0
1574254925506,4808582.0
1574254925560,4810272.0
1574254925609,4896414.0
1574254925651,4990646.0
1574254925707,5017394.0
1574254925747,5005832.0
1574254925804,5021165.0
1574254925847,5038679.0
1574254925902,4960040.0
1574254925952,4996449.0
1574254925989,5053293.0
1574254926047,5089481.0
1574254926094,5119219.0
1574254926138,5092581.0
1574254926187,5062475.0
1574254926241,5025426.0
1574254926290,5005791.0
1574254926330,5008501.0
1574254926388,5093632.0
1574254926430,5143803.0
1574254926486,5168471.0
1574254926529,5147556.0
1574254926581,5136012.0
1574254926629,5145104.0
1574254926673,5123240.0
1574254926721,5096882.0
1574254926768,5135402.0
1574254926820,5154828.0
1574254926867,5213592.0
1574254926918,5197307.0
1574254926966,5171972.0
1574254927020,5142844.0
1574254927065,5097504.0
1574254927113,5067207.0
1574254927165,5135741.0
1574254927209,5159998.0
1574254927259,5156898.0
1574254927309,5111035.0
1574254927357,5110857.0
1574254927401,5123789.0
1574254927453,5107955.0
1574254927507,5075437.0
1574254927549,5101303.0
1574254927604,5160208.0
1574254927651,5159068.0
1574254927703,5195977.0
1574254927749,5156937.0
1574254927797,5142324.0
1574254927848,5112356.0
1574254927887,5065335.0
1574254927947,5068416.0
1574254927989,5165980.0
1574254928042,5132251.0
1574254928090,5102675.0
1574254928132,5121800.0
1574254928188,5211282.0
1574254928229,5270135.0
1574254928286,5170941.0
1574254928330,5125239.0
1574254928382,5149586.0
1574254928432,5132222.0
1574254928481,5298533.0
1574254928532,5296272.0
1574254928570,5327859.0
1574254928626,5347334.0
1574254928668,5333530.0
1574254928725,5239247.0
1574254928770,5252601.0
1574254928822,5197108.0
1574254928871,5195966.0
1574254928916,5208551.0
1574254928968,5217243.0
1574254929009,5222954.0
1574254929059,5185095.0
1574254929111,5113526.0
1574254929159,5141174.0
1574254929211,5110507.0
1574254929254,5164190.0
1574254929308,5151937.0
1574254929349,5150976.0
1574254929407,5142164.0
1574254929454,5089320.0
1574254929505,5111257.0
1574254929553,5158318.0
1574254929600,5274936.0
1574254929650,5368659.0
1574254929690,5442208.0
1574254929747,5465583.0
1574254929789,5491449.0
1574254929845,5436686.0
1574254929893,5329991.0
1574254929943,5320118.0
1574254929990,5309565.0
1574254930034,5362238.0
1574254930088,5372190.0
1574254930129,5351094.0
1574254930185,5325129.0
1574254930231,5312566.0
1574254930275,5256133.0
1574254930330,5332801.0
1574254930382,5385004.0
1574254930429,5432576.0
1574254930470,5395106.0
1574254930521,5385884.0
1574254930573,5386493.0
1574254930625,5317707.0
1574254930672,5315116.0
1574254930715,5333491.0
1574254930770,5338042.0
1574254930818,5366930.0
1574254930868,5338081.0
1574254930913,5326789.0
1574254930965,5303604.0
1574254931013,5276596.0
1574254931057,5299872.0
1574254931110,5364719.0
1574254931160,5384834.0
1574254931207,5438297.0
1574254931254,5408089.0
1574254931306,5373370.0
1574254931355,5387205.0
1574254931401,5336832.0
1574254931452,5267685.0
1574254931492,5272326.0
1574254931551,5275597.0
1574254931593,5286458.0
1574254931647,5273626.0
1574254931695,5282448.0
1574254931742,5259654.0
1574254931789,5212641.0
1574254931839,5230845.0
1574254931889,5256362.0
1574254931932,5267835.0
1574254931987,5258343.0
1574254932036,5238158.0
1574254932085,5215351.0
1574254932132,5224053.0
1574254932174,5180844.0
1574254932230,5148365.0
1574254932272,5147286.0
1574254932328,5156297.0
1574254932375,5165340.0
1574254932424,5153976.0
1574254932474,5141384.0
1574254932519,5125820.0
1574254932571,5075328.0
1574254932613,5087900.0
1574254932668,5094773.0
1574254932714,5128610.0
1574254932767,5104824.0
1574254932814,5081029.0
1574254932860,5092772.0
1574254932911,5097693.0
1574254932955,5034207.0
1574254933001,5042590.0
1574254933054,5046251.0
1574254933098,5082219.0
1574254933148,5061753.0
1574254933198,5024495.0
1574254933247,5011102.0
1574254933300,4985927.0
1574254933350,4972263.0
1574254933397,5035648.0
1574254933446,5103394.0
1574254933495,5196907.0
1574254933537,5194437.0
1574254933592,5165580.0
1574254933634,5158148.0
1574254933690,5138653.0
1574254933737,5128100.0
1574254933780,5137684.0
1574254933836,5157227.0
1574254933883,5206731.0
1574254933933,5209790.0
1574254933975,5169030.0
1574254934031,5149135.0
1574254934077,5126840.0
1574254934128,5085151.0
1574254934178,5068206.0
1574254934224,5116448.0
1574254934274,5237237.0
1574254934315,5245628.0
1574254934365,5288019.0
1574254934415,5321388.0
1574254934467,5347905.0
1574254934518,5272805.0
1574254934559,5275686.0
1574254934616,5286729.0
1574254934657,5228535.0
1574254934712,5206099.0
1574254934757,5191466.0
1574254934810,5181505.0
1574254934858,5149086.0
1574254934906,5102575.0
1574254934956,5117988.0
1574254934996,5153668.0
1574254935053,5208941.0
1574254935098,5325710.0
1574254935144,5268715.0
1574254935198,5319107.0
1574254935246,5391154.0
1574254935296,5352886.0
1574254935338,5278998.0
1574254935394,5274207.0
1574254935437,5226044.0
1574254935491,5243058.0
1574254935536,5252711.0
1574254935588,5218742.0
1574254935631,5215632.0
1574254935684,5203539.0
1574254935734,5149696.0
1574254935777,5209721.0
1574254935832,5166429.0
1574254935878,5239828.0
1574254935927,5187356.0
1574254935972,5171151.0
1574254936021,5185605.0
1574254936068,5168310.0
1574254936118,5111076.0
1574254936166,5128641.0
1574254936217,5112876.0
1574254936263,5132151.0
1574254936313,5105796.0
1574254936362,5085151.0
1574254936410,5066075.0
1574254936462,5034467.0
1574254936508,5066085.0
1574254936558,5117708.0
1574254936604,5120869.0
1574254936653,5185194.0
1574254936699,5162099.0
1574254936751,5150246.0
1574254936801,5152357.0
1574254936848,5133633.0
1574254936899,5076429.0
1574254936945,5126300.0
1574254937002,5093713.0
1574254937042,5120900.0
1574254937098,5083109.0
1574254937141,5066496.0
1574254937196,5058494.0
1574254937241,5030408.0
1574254937285,5026106.0
1574254937343,5070037.0
1574254937388,5095822.0
1574254937440,5070226.0
1574254937480,5033837.0
1574254937530,5023575.0
1574254937580,5040770.0
1574254937636,4985027.0
1574254937683,4956818.0
1574254937731,4951438.0
1574254937780,5001449.0
1574254937822,4994848.0
1574254937879,4963421.0
1574254937920,4948926.0
1574254937969,4932293.0
1574254938019,4914948.0
1574254938064,4944906.0
1574254938118,4915898.0
1574254938163,4913899.0
1574254938213,4880379.0
1574254938260,4863577.0
1574254938317,4863585.0
1574254938360,4861606.0
1574254938413,4813783.0
1574254938458,4872358.0
1574254938505,4900524.0
1574254938563,4928231.0
1574254938601,4907016.0
1574254938658,4860604.0
1574254938699,4830019.0
1574254938745,4816694.0
1574254938802,4806761.0
1574254938844,4836679.0
1574254938896,4818586.0
1574254938944,4854483.0
1574254938992,4850482.0
1574254939038,4821317.0
1574254939096,4821865.0
1574254939143,4819986.0
1574254939190,4770373.0
1574254939238,4834488.0
1574254939287,4818316.0
1574254939339,4820055.0
1574254939380,4811192.0
1574254939436,4779645.0
1574254939480,4765903.0
1574254939526,4761150.0
1574254939579,4765663.0
1574254939629,4820096.0
1574254939681,4844292.0
1574254939722,4830488.0
1574254939777,4808112.0
1574254939823,4803791.0
1574254939874,4797500.0
1574254939921,4805991.0
1574254939969,4767744.0
1574254940020,4846403.0
1574254940062,4866206.0
1574254940118,4875660.0
1574254940167,4868427.0
1574254940214,4861956.0
1574254940262,4858034.0
1574254940310,4840681.0
1574254940359,4884122.0
1574254940408,4947366.0
1574254940460,4955938.0
1574254940507,4971412.0
1574254940557,4952007.0
1574254940602,4956208.0
1574254940652,4955778.0
1574254940698,4928672.0
1574254940747,4919899.0
1574254940793,4920439.0
1574254940842,4899655.0
1574254940895,4896233.0
1574254940943,4877340.0
1574254940994,4865377.0
1574254941039,4851683.0
1574254941088,4825106.0
1574254941140,4906636.0
1574254941183,4958518.0
1574254941237,5003639.0
1574254941283,5051221.0
1574254941334,5071447.0
1574254941382,5020143.0
1574254941429,4980104.0
1574254941474,4970932.0
1574254941526,4935163.0
1574254941577,4967090.0
1574254941628,4971062.0
1574254941675,4968832.0
1574254941723,4966011.0
1574254941769,4975744.0
1574254941819,4945997.0
1574254941863,4933124.0
1574254941919,4891432.0
1574254941968,4859184.0
1574254942015,4862906.0
1574254942059,4867738.0
1574254942112,4864826.0
1574254942157,4881570.0
1574254942204,4881560.0
1574254942261,4867037.0
1574254942308,4838369.0
1574254942356,4829687.0
1574254942404,4844032.0
1574254942454,4842201.0
1574254942499,4825307.0
1574254942547,4814165.0
1574254942599,4809333.0
1574254942649,4781466.0
1574254942694,4773384.0
1574254942748,4780515.0
1574254942793,4834228.0
1574254942841,4862466.0
1574254942889,4882330.0
1574254942942,4850293.0
1574254942988,4832969.0
1574254943038,4836939.0
1574254943078,4831097.0
1574254943128,4754939.0
1574254943176,4777685.0
1574254943226,4792059.0
1574254943278,4732604.0
1574254943322,4709849.0
1574254943373,4728183.0
1574254943427,4736034.0
1574254943468,4733344.0
1574254943526,4744838.0
1574254943564,4714900.0
1574254943618,4670470.0
1574254943668,4592420.0
1574254943720,4663027.0
1574254943767,4706588.0
1574254943815,4729254.0
1574254943864,4780316.0
1574254943905,4849003.0
1574254943957,4856834.0
1574254944006,4873998.0
1574254944054,4889602.0
1574254944102,4867338.0
1574254944149,4951237.0
1574254944206,5007841.0
1574254944246,5051542.0
1574254944304,5064035.0
1574254944346,5047070.0
1574254944399,5048452.0
1574254944449,5101074.0
1574254944496,5007660.0
1574254944547,5145195.0
1574254944588,5062865.0
1574254944645,5309895.0
1574254944685,5422543.0
1574254944741,5474755.0
1574254944789,5560706.0
1574254944831,5622881.0
1574254944888,5680436.0
1574254944932,5715525.0
1574254944986,5748382.0
1574254945026,5803255.0
1574254945083,5852968.0
1574254945128,5855477.0
1574254945171,5839914.0
1574254945220,5851227.0
1574254945269,5835934.0
1574254945327,5780900.0
1574254945367,5740550.0
1574254945423,5730088.0
1574254945467,5713804.0
1574254945521,5701560.0
1574254945571,5749272.0
1574254945613,5805586.0
1574254945668,5815529.0
1574254945707,5866260.0
1574254945766,5847535.0
1574254945807,5848726.0
1574254945862,5823650.0
1574254945910,5791183.0
1574254945958,5759945.0
1574254946009,5718434.0
1574254946048,5713314.0
1574254946106,5743051.0
1574254946148,5740741.0
1574254946200,5824150.0
1574254946250,5807396.0
1574254946301,5817469.0
1574254946349,5861550.0
1574254946393,5914583.0
1574254946446,5907610.0
1574254946488,5910462.0
1574254946542,6066083.0
1574254946590,6082620.0
1574254946641,6102391.0
1574254946690,6115061.0
1574254946734,6145611.0
1574254946787,6190430.0
1574254946827,6214102.0
1574254946880,6245012.0
1574254946930,6288488.0
1574254946981,6344238.0
1574254947029,6360026.0
1574254947072,6346340.0
1574254947127,6271204.0
1574254947170,6285148.0
1574254947226,6242606.0
1574254947271,6190149.0
1574254947323,6176241.0
1574254947371,6176837.0
1574254947417,6170250.0
1574254947469,6192474.0
1574254947508,6192346.0
1574254947557,6196106.0
1574254947610,6188036.0
1574254947657,6141009.0
1574254947706,6116440.0
1574254947756,6090233.0
1574254947804,6064006.0
1574254947857,6038467.0
1574254947907,5972358.0
1574254947949,5898273.0
1574254948006,5828895.0
1574254948051,5775387.0
1574254948100,5727007.0
1574254948151,5699657.0
1574254948197,5664344.0
1574254948248,5610636.0
1574254948289,5523357.0
1574254948347,5441565.0
1574254948391,5377068.0
1574254948438,5321996.0
1574254948492,5275320.0
1574254948539,5218658.0
1574254948590,5176899.0
1574254948629,5130689.0
1574254948688,5058952.0
1574254948731,5018617.0
1574254948784,4974382.0
1574254948832,4928360.0
1574254948880,4884521.0
1574254948930,4830827.0
1574254948971,4777646.0
1574254949027,4692654.0
1574254949072,4579590.0
1574254949126,4493513.0
1574254949171,4447689.0
1574254949220,4417139.0
1574254949271,4389707.0
1574254949312,4372589.0
1574254949368,4346896.0
1574254949410,4289464.0
1574254949467,4179262.0
1574254949516,4094012.0
1574254949557,4041287.0
1574254949612,4004316.0
1574254949654,3952197.0
1574254949708,3914653.0
1574254949755,3898665.0
1574254949806,3877178.0
1574254949854,3805933.0
1574254949903,3743129.0
1574254949951,3702702.0
1574254950000,3683550.0
1574254950045,3572508.0
1574254950092,3552032.0
1574254950147,3536898.0
1574254950194,3558517.0
1574254950243,3641008.0
1574254950292,3676706.0
1574254950339,3727073.0
1574254950389,3828358.0
1574254950432,3912185.0
1574254950488,3938356.0
1574254950534,3920958.0
1574254950584,3900761.0
1574254950633,3909091.0
1574254950674,3909298.0
1574254950721,3964978.0
1574254950772,3940975.0
1574254950824,3928925.0
1574254950875,3930693.0
1574254950917,3953708.0
1574254950976,4002557.0
1574254951017,3946036.0
1574254951071,4026284.0
1574254951112,4084313.0
1574254951162,4131212.0
1574254951214,4198229.0
1574254951266,4217118.0
1574254951314,4262621.0
1574254951362,4248846.0
1574254951411,4213703.0
1574254951459,4230962.0
1574254951509,4216019.0
1574254951557,4265534.0
1574254951608,4308851.0
1574254951657,4315727.0
1574254951706,4346674.0
1574254951753,4310385.0
1574254951799,4240152.0
1574254951851,4339974.0
1574254951894,4459853.0
1574254951949,4518542.0
1574254951997,4502832.0
1574254952046,4483510.0
1574254952088,4504047.0
1574254952142,4474721.0
1574254952193,4454227.0
1574254952234,4480822.0
1574254952284,4502009.0
1574254952335,4534509.0
1574254952388,4506804.0
1574254952437,4492708.0
1574254952485,4449450.0
1574254952527,4411950.0
1574254952575,4498464.0
1574254952632,4579102.0
1574254952675,4600096.0
1574254952728,4664645.0
1574254952777,4728742.0
1574254952825,4737879.0
1574254952874,4723159.0
1574254952916,4670159.0
1574254952973,4669708.0
1574254953015,4683897.0
1574254953070,4736881.0
1574254953119,4702128.0
1574254953161,4701027.0
1574254953215,4653722.0
1574254953256,4584173.0
1574254953313,4650835.0
1574254953357,4707356.0
1574254953410,4770984.0
1574254953457,4909927.0
1574254953507,4990244.0
1574254953553,4993426.0
1574254953603,5030779.0
1574254953654,4992810.0
1574254953696,4864105.0
1574254953751,4856338.0
1574254953798,4875859.0
1574254953846,4922731.0
1574254953898,4868128.0
1574254953940,4853833.0
1574254953986,4823371.0
1574254954043,4764275.0
1574254954086,4785322.0
1574254954137,4823023.0
1574254954183,4892113.0
1574254954232,4943146.0
1574254954278,4965122.0
1574254954335,4994899.0
1574254954377,5037974.0
1574254954434,5000976.0
1574254954479,4927906.0
1574254954524,4946553.0
1574254954582,4960666.0
1574254954626,5021574.0
1574254954677,4951383.0
1574254954718,4931244.0
1574254954775,4899907.0
1574254954818,4839545.0
1574254954865,4876875.0
1574254954918,4979053.0
1574254954968,5033831.0
1574254955019,5034142.0
1574254955061,5028847.0
1574254955113,5030251.0
1574254955158,5015107.0
1574254955213,4992282.0
1574254955262,4955847.0
1574254955302,4998696.0
1574254955360,4999094.0
1574254955400,5031300.0
1574254955457,4992568.0
1574254955500,4958967.0
1574254955558,4954833.0
1574254955603,4903539.0
1574254955643,4970262.0
1574254955702,5069693.0
1574254955741,5132594.0
1574254955798,5108374.0
1574254955841,5091011.0
1574254955897,5116117.0
1574254955942,5062424.0
1574254955990,5048291.0
1574254956042,5074588.0
1574254956083,5068385.0
1574254956134,5112866.0
1574254956186,5039979.0
1574254956237,5005901.0
1574254956280,4959739.0
1574254956334,4907406.0
1574254956382,4970983.0
1574254956430,5033977.0
1574254956479,5012043.0
1574254956521,4996908.0
1574254956579,4963961.0
1574254956620,4962939.0
1574254956676,4949237.0
1574254956722,4881659.0
1574254956770,4890922.0
1574254956819,4914379.0
1574254956864,4971603.0
1574254956914,4954928.0
1574254956961,4908117.0
1574254957010,4864597.0
1574254957060,4816774.0
1574254957107,4814433.0
1574254957161,4876458.0
1574254957205,4890483.0
1574254957256,4965160.0
1574254957303,4933583.0
1574254957351,4921709.0
1574254957402,4915699.0
1574254957448,4901325.0
1574254957500,4829228.0
1574254957546,4853544.0
1574254957595,4884010.0
1574254957643,4885191.0
1574254957691,4872378.0
1574254957742,4834738.0
1574254957788,4813194.0
1574254957842,4779436.0
1574254957887,4787697.0
1574254957938,4875188.0
1574254957984,4884650.0
1574254958039,4941614.0
1574254958087,4961290.0
1574254958138,5007841.0
1574254958182,5038898.0
1574254958236,5007270.0
1574254958286,4948236.0
1574254958327,4931023.0
1574254958379,4886983.0
1574254958429,4864847.0
1574254958474,4934954.0
1574254958522,4888712.0
1574254958580,4831719.0
1574254958623,4783225.0
1574254958669,4769113.0
1574254958724,4782246.0
1574254958769,4844261.0
1574254958818,4932132.0
1574254958863,4953268.0
1574254958917,4963630.0
1574254958960,5026385.0
1574254959016,5028496.0
1574254959063,4977304.0
1574254959104,4987977.0
1574254959155,4988306.0
1574254959203,5013603.0
1574254959254,5020413.0
1574254959301,4984055.0
1574254959357,4942746.0
1574254959407,4936194.0
1574254959454,4909328.0
1574254959501,4943886.0
1574254959551,5030018.0
1574254959598,5150157.0
1574254959643,5153418.0
1574254959699,5209941.0
1574254959748,5219403.0
1574254959795,5138033.0
1574254959842,5182563.0
1574254959884,5099773.0
1574254959939,5102744.0
1574254959983,5132501.0
1574254960040,5188376.0
1574254960088,5199439.0
1574254960137,5195767.0
1574254960182,5153808.0
1574254960227,5082349.0
1574254960279,5020635.0
1574254960326,5080108.0
1574254960381,5186734.0
1574254960429,5307383.0
1574254960477,5330440.0
1574254960527,5372960.0
1574254960577,5312485.0
1574254960622,5295341.0
1574254960669,5181433.0
1574254960720,5191586.0
1574254960765,5215201.0
1574254960811,5239397.0
1574254960867,5219854.0
1574254960915,5200869.0
1574254960962,5151847.0
1574254961010,5080878.0
1574254961058,5097604.0
1574254961105,5138444.0
1574254961159,5215981.0
1574254961210,5291560.0
1574254961249,5347604.0
1574254961307,5359187.0
1574254961351,5306784.0
1574254961398,5254712.0
1574254961444,5284148.0
1574254961500,5248690.0
1574254961549,5309484.0
1574254961597,5273715.0
1574254961644,5239168.0
1574254961692,5190456.0
1574254961742,5131631.0
1574254961783,5133763.0
1574254961843,5170712.0
1574254961888,5205579.0
1574254961937,5316896.0
1574254961986,5349115.0
1574254962033,5391414.0
1574254962083,5434164.0
1574254962133,5375800.0
1574254962176,5318206.0
1574254962227,5348004.0
1574254962278,5336762.0
1574254962327,5395675.0
1574254962373,5350944.0
1574254962425,5322719.0
1574254962465,5276846.0
1574254962516,5217182.0
1574254962564,5227215.0
1574254962620,5219953.0
1574254962668,5211412.0
1574254962709,5302363.0
1574254962766,5387513.0
1574254962806,5402898.0
1574254962864,5422392.0
1574254962905,5341303.0
1574254962961,5314415.0
1574254963009,5314326.0
1574254963058,5291690.0
1574254963108,5341462.0
1574254963152,5349725.0
1574254963203,5316167.0
1574254963245,5276227.0
1574254963300,5230065.0
1574254963348,5206820.0
1574254963398,5220002.0
1574254963447,5311705.0
1574254963494,5438606.0
1574254963543,5473525.0
1574254963587,5476226.0
1574254963643,5457481.0
1574254963688,5388013.0
1574254963735,5305604.0
1574254963787,5328089.0
1574254963828,5323889.0
1574254963885,5362017.0
1574254963926,5319147.0
1574254963979,5289921.0
1574254964026,5293171.0
1574254964077,5256811.0
1574254964122,5282669.0
1574254964172,5329749.0
1574254964222,5436686.0
1574254964270,5424542.0
1574254964319,5407760.0
1574254964365,5433404.0
1574254964421,5382422.0
1574254964468,5337561.0
1574254964520,5339152.0
1574254964569,5271856.0
1574254964608,5361917.0
1574254964666,5347874.0
1574254964706,5308684.0
1574254964761,5273975.0
1574254964809,5222054.0
1574254964860,5288490.0
1574254964908,5314757.0
1574254964955,5346084.0
1574254965006,5419962.0
1574254965046,5431834.0
1574254965097,5466693.0
1574254965150,5478836.0
1574254965199,5437285.0
1574254965250,5375721.0
1574254965295,5371670.0
1574254965347,5426434.0
1574254965388,5443537.0
1574254965445,5407349.0
1574254965490,5393716.0
1574254965536,5360298.0
1574254965593,5310845.0
1574254965635,5377952.0
1574254965689,5431025.0
1574254965729,5475246.0
1574254965786,5507094.0
1574254965827,5489428.0
1574254965884,5485618.0
1574254965931,5452789.0
1574254965979,5423353.0
1574254966029,5378952.0
1574254966071,5403158.0
1574254966119,5462702.0
1574254966168,5448939.0
1574254966225,5410560.0
1574254966271,5383893.0
1574254966321,5346584.0
1574254966363,5339692.0
1574254966410,5353075.0
1574254966467,5448858.0
1574254966508,5527879.0
1574254966565,5514845.0
1574254966612,5470764.0
1574254966661,5492000.0
1574254966710,5437756.0
1574254966758,5402018.0
1574254966808,5389244.0
1574254966849,5450999.0
1574254966907,5511184.0
1574254966951,5483778.0
1574254967004,5463513.0
1574254967052,5449220.0
1574254967098,5364488.0
1574254967150,5349684.0
1574254967198,5422592.0
1574254967247,5462373.0
1574254967292,5552835.0
1574254967346,5542052.0
1574254967392,5530678.0
1574254967440,5543873.0
1574254967490,5444337.0
1574254967532,5388984.0
1574254967589,5412709.0
1574254967631,5445288.0
1574254967679,5461101.0
1574254967733,5406319.0
1574254967782,5366930.0
1574254967832,5329820.0
1574254967879,5261444.0
1574254967929,5309945.0
1574254967970,5336452.0
1574254968027,5361058.0
1574254968072,5293051.0
1574254968125,5329909.0
1574254968172,5348083.0
1574254968219,5279638.0
1574254968270,5285928.0
1574254968312,5325279.0
1574254968367,5286219.0
1574254968413,5309135.0
1574254968464,5301993.0
1574254968514,5289350.0
1574254968561,5326789.0
1574254968613,5404838.0
1574254968652,5533409.0
1574254968699,5503471.0
1574254968751,5575350.0
1574254968797,5621122.0
1574254968848,5644456.0
1574254968903,5677734.0
1574254968945,5685617.0
1574254968992,5704250.0
1574254969048,5683965.0
1574254969092,5683277.0
1574254969146,5698090.0
1574254969193,5643107.0
1574254969242,5560787.0
1574254969293,5516084.0
1574254969338,5459502.0
1574254969389,5464122.0
1574254969432,5468773.0
1574254969488,5531270.0
1574254969535,5617540.0
1574254969583,5605888.0
1574254969634,5600826.0
1574254969676,5665401.0
1574254969731,5623472.0
1574254969772,5465474.0
1574254969829,5480376.0
1574254969873,5410039.0
1574254969924,5420911.0
1574254969974,5396286.0
1574254970021,5377661.0
1574254970072,5363149.0
1574254970120,5301093.0
1574254970169,5311585.0
1574254970213,5363037.0
1574254970267,5463031.0
1574254970315,5521627.0
1574254970363,5513856.0
1574254970413,5494611.0
1574254970459,5431686.0
1574254970509,5413879.0
1574254970556,5419481.0
1574254970607,5406728.0
1574254970657,5480137.0
1574254970703,5462152.0
1574254970754,5414660.0
1574254970800,5388034.0
1574254970851,5363628.0
1574254970895,5340842.0
1574254970948,5386154.0
1574254970997,5414840.0
1574254971044,5504392.0
1574254971095,5444738.0
1574254971137,5452499.0
1574254971184,5423853.0
1574254971234,5401608.0
1574254971280,5351365.0
1574254971336,5442458.0
1574254971381,5464112.0
1574254971430,5556096.0
1574254971478,5507502.0
1574254971528,5486748.0
1574254971575,5465474.0
1574254971630,5381932.0
1574254971676,5418802.0
1574254971727,5468314.0
1574254971776,5538692.0
1574254971823,5555065.0
1574254971874,5532440.0
1574254971915,5540002.0
1574254971971,5501602.0
1574254972018,5464033.0
1574254972067,5400858.0
1574254972117,5439837.0
1574254972164,5502782.0
1574254972216,5475835.0
1574254972256,5426753.0
1574254972311,5402558.0
1574254972357,5359748.0
1574254972408,5356015.0
1574254972459,5438626.0
1574254972506,5498410.0
1574254972555,5507334.0
1574254972598,5479596.0
1574254972653,5458881.0
1574254972697,5453340.0
1574254972747,5357336.0
1574254972801,5354506.0
1574254972839,5371670.0
1574254972896,5347984.0
1574254972938,5318597.0
1574254972994,5290240.0
1574254973037,5262273.0
1574254973092,5229265.0
1574254973137,5184004.0
1574254973181,5177683.0
1574254973238,5112787.0
1574254973278,5085021.0
1574254973334,5046272.0
1574254973376,5038898.0
1574254973432,5035288.0
1574254973478,5031787.0
1574254973523,4981095.0
1574254973578,4977735.0
1574254973620,4978874.0
1574254973675,4950798.0
1574254973717,4937534.0
1574254973774,4939735.0
1574254973818,4917879.0
1574254973870,4878210.0
1574254973919,4886361.0
1574254973964,4932193.0
1574254974016,4924200.0
1574254974061,4910468.0
1574254974114,4894443.0
1574254974161,4860915.0
1574254974211,4875540.0
1574254974260,4841110.0
1574254974301,4810103.0
1574254974358,4824866.0
1574254974399,4856945.0
1574254974455,4811784.0
1574254974501,4804392.0
1574254974552,4785527.0
1574254974599,4772815.0
1574254974643,4765811.0
1574254974691,4753160.0
1574254974744,4742936.0
1574254974796,4753219.0
1574254974844,4692124.0
1574254974893,4663237.0
1574254974943,4685962.0
1574254974983,4636310.0
1574254975040,4647352.0
1574254975081,4610724.0
1574254975137,4641672.0
1574254975181,4652615.0
1574254975234,4605923.0
1574254975282,4583137.0
1574254975325,4558531.0
1574254975378,4563063.0
1574254975423,4567604.0
1574254975478,4555680.0
1574254975520,4607213.0
1574254975575,4611234.0
1574254975621,4580187.0
1574254975669,4550150.0
1574254975719,4574445.0
1574254975763,4519623.0
1574254975820,4557982.0
1574254975861,4568734.0
1574254975917,4643112.0
1574254975960,4602063.0
1574254976013,4549920.0
1574254976058,4543689.0
1574254976105,4526823.0
1574254976153,4584027.0
1574254976204,4631279.0
1574254976252,4651995.0
1574254976300,4618406.0
1574254976348,4597002.0
1574254976402,4555901.0
1574254976451,4564313.0
1574254976499,4530405.0
1574254976549,4530245.0
1574254976592,4519383.0
1574254976640,4530675.0
1574254976696,4534456.0
1574254976746,4509840.0
1574254976792,4515441.0
1574254976839,4492485.0
1574254976888,4475751.0
1574254976940,4409534.0
1574254976982,4400282.0
1574254977036,4428779.0
1574254977085,4389810.0
1574254977133,4364023.0
1574254977183,4358853.0
1574254977229,4363503.0
1574254977272,4356752.0
1574254977322,4341329.0
1574254977370,4354982.0
1574254977422,4364505.0
1574254977469,4349911.0
1574254977521,4343519.0
1574254977572,4383268.0
1574254977619,4392901.0
1574254977665,4343450.0
1574254977719,4343509.0
1574254977759,4322043.0
1574254977815,4356362.0
1574254977865,4407324.0
1574254977906,4425339.0
1574254977959,4495067.0
1574254978008,4484453.0
1574254978059,4437172.0
1574254978104,4403533.0
1574254978149,4414657.0
1574254978206,4429110.0
1574254978254,4436282.0
1574254978304,4484043.0
1574254978348,4524954.0
1574254978398,4341428.0
1574254978442,4425230.0
1574254978499,4375808.0
1574254978547,4377197.0
1574254978596,4559512.0
1574254978642,4546939.0
1574254978690,4555402.0
1574254978738,4597701.0
1574254978785,4553260.0
1574254978839,4528274.0
1574254978886,4534666.0
1574254978935,4600141.0
1574254978983,4647834.0
1574254979032,4688323.0
1574254979078,4689194.0
1574254979128,4609454.0
1574254979174,4568443.0
1574254979222,4569354.0
1574254979277,4551621.0
1574254979326,4622157.0
1574254979374,4620556.0
1574254979422,4627529.0
1574254979470,4635780.0
1574254979519,4582548.0
1574254979568,4599562.0
1574254979609,4626927.0
1574254979660,4713650.0
1574254979707,4708569.0
1574254979759,4692185.0
1574254979806,4694414.0
1574254979856,4664368.0
1574254979904,4675151.0
1574254979955,4710948.0
1574254980008,4787208.0
1574254980057,4764582.0
1574254980106,4759371.0
1574254980147,4727413.0
1574254980198,4720601.0
1574254980249,4677211.0
1574254980300,4689664.0
1574254980345,4685082.0
1574254980389,4694024.0
1574254980439,4721682.0
1574254980493,4724022.0
1574254980541,4724953.0
1574254980586,4721021.0
1574254980642,4718370.0
1574254980684,4823647.0
1574254980739,4839470.0
1574254980785,4836199.0
1574254980830,4839521.0
1574254980886,4884242.0
1574254980930,4907517.0
1574254980981,4888681.0
1574254981023,4832528.0
1574254981078,4854064.0
1574254981126,4882931.0
1574254981178,4882180.0
1574254981227,4852644.0
1574254981273,4855635.0
1574254981316,4847211.0
1574254981365,4891353.0
1574254981414,4890223.0
1574254981463,4981804.0
1574254981514,5048602.0
1574254981559,5076888.0
1574254981609,5072446.0
1574254981666,5028697.0
1574254981705,5035969.0
1574254981766,4946545.0
1574254981806,4972103.0
1574254981861,4987706.0
1574254981908,4998280.0
1574254981955,5001579.0
1574254982008,4960369.0
1574254982052,4935543.0
1574254982106,4932624.0
1574254982146,4932532.0
1574254982196,4941525.0
1574254982246,4936265.0
1574254982296,4967901.0
1574254982343,4949546.0
1574254982392,4934834.0
1574254982441,4932073.0
1574254982490,4907648.0
1574254982541,4884301.0
1574254982586,4924371.0
1574254982643,4927672.0
1574254982688,4971873.0
1574254982738,4958839.0
1574254982788,4941015.0
1574254982835,4931573.0
1574254982886,4912128.0
1574254982926,4883000.0
1574254982984,4889573.0
1574254983025,4949146.0
1574254983082,4949898.0
1574254983129,4927051.0
1574254983179,4915728.0
1574254983229,4925192.0
1574254983272,4870887.0
1574254983324,4875578.0
1574254983366,4897714.0
1574254983421,4970152.0
1574254983468,4981995.0
1574254983517,4954737.0
1574254983568,4945566.0
1574254983609,4943725.0
1574254983659,4898405.0
1574254983708,4985136.0
1574254983764,5106265.0
1574254983810,5125831.0
1574254983864,5086480.0
1574254983908,5091382.0
1574254983956,5094312.0
1574254984007,5068737.0
1574254984047,5018695.0
1574254984105,5039469.0
1574254984147,5108715.0
1574254984196,5160228.0
1574254984250,5207480.0
1574254984292,5136172.0
1574254984348,5104944.0
1574254984389,5059693.0
1574254984446,4997798.0
1574254984488,5046970.0
1574254984536,5094462.0
1574254984590,5185424.0
1574254984642,5266824.0
1574254984689,5263914.0
1574254984736,5277866.0
1574254984786,5271856.0
1574254984828,5186214.0
1574254984884,5177153.0
1574254984930,5208681.0
1574254984981,5240307.0
1574254985021,5265044.0
1574254985072,5224183.0
1574254985128,5181903.0
1574254985177,5168950.0
1574254985226,5113177.0
1574254985270,5117978.0
1574254985324,5177102.0
1574254985372,5243438.0
1574254985419,5280528.0
1574254985469,5279587.0
1574254985512,5287249.0
1574254985560,5301373.0
1574254985612,5256273.0
1574254985658,5236386.0
1574254985711,5219793.0
1574254985760,5221904.0
1574254985810,5259593.0
1574254985853,5265214.0
1574254985908,5247900.0
1574254985948,5215762.0
1574254986006,5184875.0
1574254986051,5126621.0
1574254986102,5168940.0
1574254986151,5165279.0
1574254986196,5176342.0
1574254986242,5205820.0
1574254986292,5187346.0
1574254986338,5177994.0
1574254986390,5193996.0
1574254986436,5132722.0
1574254986484,5097634.0
1574254986533,5148566.0
1574254986581,5197547.0
1574254986630,5185095.0
1574254986679,5159759.0
1574254986731,5144655.0
1574254986787,5123460.0
1574254986828,5073538.0
1574254986875,5132702.0
1574254986926,5156778.0
1574254986977,5146365.0
1574254987023,5128791.0
1574254987073,5110497.0
1574254987121,5104835.0
1574254987169,5116657.0
1574254987226,5035048.0
1574254987272,5037878.0
1574254987318,5076477.0
1574254987370,5131081.0
1574254987410,5120719.0
1574254987467,5082500.0
1574254987511,5057794.0
1574254987566,5057072.0
1574254987616,4995529.0
1574254987661,5089052.0
1574254987712,5102965.0
1574254987762,5103134.0
1574254987809,5078718.0
1574254987852,5062365.0
1574254987906,5070017.0
1574254987954,5070856.0
1574254988004,5004661.0
1574254988052,5057873.0
1574254988095,5032677.0
1574254988143,5061095.0
1574254988191,5034699.0
1574254988248,5003109.0
1574254988294,4976363.0
1574254988344,4932443.0
1574254988393,4880180.0
1574254988441,4872909.0
1574254988490,4864786.0
1574254988538,4872198.0
1574254988588,4875639.0
1574254988635,4869737.0
1574254988686,4878730.0
1574254988728,4894884.0
1574254988776,4754950.0
1574254988831,4741156.0
1574254988873,4747887.0
1574254988929,4743986.0
1574254988972,4727174.0
1574254989027,4714099.0
1574254989076,4707149.0
1574254989125,4702307.0
1574254989166,4761671.0
1574254989214,4852254.0
1574254989262,4906347.0
1574254989312,4950326.0
1574254989363,4960729.0
1574254989415,4996699.0
1574254989465,4992847.0
1574254989515,4925350.0
1574254989562,4889843.0
1574254989612,4891213.0
1574254989653,4946176.0
1574254989707,5021734.0
1574254989757,4965341.0
1574254989807,4948437.0
1574254989856,4931963.0
1574254989903,4930562.0
1574254989953,4902505.0
1574254990000,4902676.0
1574254990051,4900644.0
1574254990094,4889583.0
1574254990148,4893232.0
1574254990197,4921600.0
1574254990245,4900514.0
1574254990295,4828428.0
1574254990336,4843300.0
1574254990392,4848453.0
1574254990435,4880711.0
1574254990490,4910587.0
1574254990535,4899474.0
1574254990587,4900116.0
1574254990638,4881481.0
1574254990680,4835279.0
1574254990724,5005121.0
1574254990774,5059624.0
1574254990824,5093792.0
1574254990876,5245799.0
1574254990921,5203980.0
1574254990977,5256882.0
1574254991024,5233676.0
1574254991074,5137243.0
1574254991116,5094832.0
1574254991164,5144604.0
1574254991219,5187315.0
1574254991268,5199299.0
1574254991318,5124660.0
1574254991365,5095462.0
1574254991415,5052162.0
1574254991457,4990077.0
1574254991513,5024335.0
1574254991556,5042990.0
1574254991611,5137473.0
1574254991658,5180714.0
1574254991706,5181074.0
1574254991756,5234117.0
1574254991798,5257283.0
1574254991854,5224785.0
1574254991897,5124020.0
1574254991949,5237538.0
1574254991999,5181053.0
1574254992048,5274365.0
1574254992098,5222103.0
1574254992143,5171482.0
1574254992195,5143765.0
1574254992237,5112907.0
1574254992291,5109176.0
1574254992338,5178532.0
1574254992381,5270966.0
1574254992432,5257293.0
1574254992482,5305795.0
1574254992530,5358567.0
1574254992581,5352905.0
1574254992629,5323257.0
1574254992678,5217152.0
1574254992732,5268825.0
1574254992778,5271915.0
1574254992829,5352124.0
1574254992877,5323658.0
1574254992920,5313186.0
1574254992974,5287430.0
1574254993017,5231427.0
1574254993072,5228915.0
1574254993122,5186306.0
1574254993161,5204780.0
1574254993212,5235827.0
1574254993260,5233966.0
1574254993311,5233647.0
1574254993361,5239598.0
1574254993414,5171742.0
1574254993461,5103475.0
1574254993509,5084800.0
1574254993558,5164088.0
1574254993603,5254991.0
1574254993658,5245519.0
1574254993700,5273835.0
1574254993756,5285489.0
1574254993803,5148867.0
1574254993843,5181334.0
1574254993900,5165809.0
1574254993943,5160939.0
1574254993999,5164200.0
1574254994040,5147444.0
1574254994096,5154517.0
1574254994140,5144295.0
1574254994195,5086080.0
1574254994244,5095722.0
1574254994290,5098774.0
1574254994337,5176813.0
1574254994383,5154216.0
1574254994438,5121629.0
1574254994480,5096163.0
1574254994530,5085240.0
1574254994580,5056702.0
1574254994626,5075588.0
1574254994678,5129921.0
1574254994722,5080919.0
1574254994780,5041989.0
1574254994820,5020694.0
1574254994878,5013223.0
1574254994920,4891883.0
1574254994975,4892643.0
1574254995022,4877330.0
1574254995067,4900514.0
1574254995119,4870849.0
1574254995162,4838009.0
1574254995210,4821335.0
1574254995259,4795680.0
1574254995316,4772354.0
1574254995360,4817235.0
1574254995414,4805611.0
1574254995459,4843392.0
1574254995507,4809293.0
1574254995559,4799609.0
1574254995602,4813423.0
1574254995657,4785477.0
1574254995699,4742416.0
1574254995753,4713339.0
1574254995797,4656796.0
1574254995852,4711078.0
1574254995898,4808082.0
1574254995945,4836729.0
1574254995998,4873768.0
1574254996038,4815185.0
1574254996095,4794689.0
1574254996145,4856834.0
1574254996192,4823086.0
1574254996244,4847351.0
1574254996289,4785408.0
1574254996339,4727883.0
1574254996384,4763792.0
1574254996438,4678101.0
1574254996481,4697496.0
1574254996527,4727873.0
1574254996585,4692864.0
1574254996632,4702256.0
1574254996679,4693524.0
1574254996721,4679771.0
1574254996779,4663336.0
1574254996822,4649935.0
1574254996876,4705596.0
1574254996926,4719601.0
1574254996974,4712909.0
1574254997019,4679641.0
1574254997067,4617386.0
1574254997117,4639622.0
1574254997166,4645532.0
1574254997212,4630078.0
1574254997264,4742286.0
1574254997315,4747928.0
1574254997363,4739805.0
1574254997412,4754070.0
1574254997458,4754740.0
1574254997507,4834529.0
1574254997560,4831368.0
1574254997602,4867657.0
1574254997657,4873738.0
1574254997707,4989616.0
1574254997754,5044951.0
1574254997799,5083670.0
1574254997851,5092581.0
1574254997898,5113246.0
1574254997941,5123200.0
1574254997999,5150185.0
1574254998050,5172061.0
1574254998095,5119069.0
1574254998138,5040680.0
1574254998186,4957789.0
1574254998234,4882980.0
1574254998285,4834960.0
1574254998333,4659746.0
1574254998380,4970172.0
1574254998428,5098794.0
1574254998484,5515465.0
1574254998528,5854529.0
1574254998581,6011176.0
1574254998632,6185059.0
1574254998678,6349179.0
1574254998721,8292440.0
1574254998780,8977062.0
1574254998828,9334622.0
1574254998876,9139884.0
1574254998926,9113100.0
1574254998973,9078620.0
1574254999020,9094988.0
1574254999065,8599264.0
1574254999114,8472057.0
1574254999162,8416441.0
1574254999210,8424918.0
1574254999266,8431846.0
1574254999314,8409923.0
1574254999362,8384064.0
1574254999410,8341699.0
1574254999460,8201526.0
1574254999503,8123862.0
1574254999560,8125571.0
1574254999607,8133657.0
1574254999649,8136220.0
1574254999706,8098771.0
1574254999752,8091878.0
1574254999802,7977920.0
1574254999842,7909142.0
1574254999897,7905280.0
1574254999949,7888396.0
1574254999997,7883836.0
1574255000048,7874736.0
1574255000096,7869980.0
1574255000142,7832512.0
1574255000186,7789699.0
1574255000239,7722988.0
1574255000285,7730611.0
1574255000339,7708812.0
1574255000388,7716809.0
1574255000438,7708918.0
1574255000487,7667177.0
1574255000528,7649081.0
1574255000585,7547929.0
1574255000626,7526310.0
1574255000680,7502643.0
1574255000727,7489107.0
1574255000780,7464246.0
1574255000827,7447792.0
1574255000877,7423232.0
1574255000919,7329862.0
1574255000970,7301760.0
1574255001024,7247052.0
1574255001065,7239001.0
1574255001121,7263968.0
1574255001167,7220035.0
1574255001210,7185113.0
1574255001266,7164579.0
1574255001313,7074822.0
1574255001364,7021484.0
1574255001405,6956163.0
1574255001462,6935238.0
1574255001507,6894672.0
1574255001552,6820745.0
1574255001607,6801728.0
1574255001651,6753484.0
1574255001706,6696156.0
1574255001750,6658188.0
1574255001805,6560793.0
1574255001847,6511052.0
1574255001902,6452889.0
1574255001949,6404182.0
1574255001996,6371078.0
1574255002048,6319628.0
1574255002087,6216979.0
1574255002145,6118281.0
1574255002186,6066870.0
1574255002242,6013747.0
1574255002291,5967372.0
1574255002341,5960249.0
1574255002387,5933302.0
1574255002429,5892915.0
1574255002485,5830137.0
1574255002526,5724905.0
1574255002585,5666528.0
1574255002641,5633228.0
1574255002680,5289434.0
1574255002720,5174084.0
1574255002776,5150471.0
1574255002825,5112929.0
1574255002870,5088168.0
1574255002925,5097441.0
1574255002967,5098285.0
1574255003024,5070556.0
1574255003069,5064277.0
1574255003120,5059752.0
1574255003169,5045480.0
1574255003210,5018699.0
1574255003258,5016549.0
1574255003306,4969969.0
1574255003360,4966117.0
1574255003406,4959853.0
1574255003456,4953678.0
1574255003503,4957307.0
1574255003554,4896149.0
1574255003607,4915422.0
1574255003648,4951213.0
1574255003705,4928139.0
1574255003748,4887035.0
1574255003805,4894961.0
1574255003850,4923100.0
1574255003900,4898669.0
1574255003949,4851218.0
1574255003991,4840732.0
1574255004047,4842116.0
1574255004090,4821906.0
1574255004138,4838409.0
1574255004188,4847236.0
1574255004237,4849057.0
1574255004291,4817381.0
1574255004334,4783151.0
1574255004389,4797015.0
1574255004431,4829347.0
1574255004487,4845942.0
1574255004528,4856957.0
1574255004584,4864464.0
1574255004634,4882351.0
1574255004678,4824045.0
1574255004730,4787055.0
1574255004772,4809796.0
1574255004828,4775511.0
1574255004868,4771384.0
1574255004926,4781989.0
1574255004971,4805959.0
1574255005023,4748747.0
1574255005071,4697313.0
1574255005121,4665336.0
1574255005169,4654466.0
1574255005211,4675216.0
1574255005267,4645323.0
1574255005308,4656272.0
1574255005364,4660112.0
1574255005412,4607331.0
1574255005461,4543774.0
1574255005510,4567044.0
1574255005557,4586991.0
1574255005608,4585275.0
1574255005649,4586450.0
1574255005706,4598957.0
1574255005752,4591002.0
1574255005804,4538116.0
1574255005852,4543234.0
1574255005900,4579854.0
1574255005949,4594576.0
1574255005989,4584919.0
1574255006041,4580698.0
1574255006092,4594562.0
1574255006144,4589696.0
1574255006188,4534053.0
1574255006239,4525148.0
1574255006290,4557150.0
1574255006336,4564894.0
1574255006388,4559156.0
1574255006430,4553946.0
1574255006487,4511931.0
1574255006532,4429020.0
1574255006583,4405172.0
1574255006634,4407663.0
1574255006678,4454454.0
1574255006729,4451197.0
1574255006771,4431751.0
1574255006827,4440274.0
1574255006873,4432978.0
1574255006924,4383141.0
1574255006974,4330017.0
1574255007024,4364487.0
1574255007072,4422452.0
1574255007120,4398034.0
1574255007170,4398113.0
1574255007210,4397136.0
1574255007268,4353775.0
1574255007310,4366850.0
1574255007365,4379538.0
1574255007415,4424101.0
1574255007461,4441185.0
1574255007511,4461854.0
1574255007558,4522417.0
1574255007609,4559459.0
1574255007652,4578377.0
1574255007706,4602320.0
1574255007754,4545213.0
1574255007806,4569367.0
1574255007854,4541613.0
1574255007901,4544263.0
1574255007950,4541584.0
1574255007999,4480033.0
1574255008048,4446525.0
1574255008093,4443427.0
1574255008141,4485323.0
1574255008196,4523671.0
1574255008244,4528182.0
1574255008293,4535056.0
1574255008334,4548669.0
1574255008383,4506059.0
1574255008431,4490429.0
1574255008481,4468385.0
1574255008533,4478885.0
1574255008577,4516401.0
1574255008625,4539105.0
1574255008675,4562718.0
1574255008732,4551874.0
1574255008775,4530808.0
1574255008829,4519120.0
1574255008875,4528485.0
1574255008928,4555055.0
1574255008977,4532167.0
1574255009025,4504872.0
1574255009074,4501930.0
1574255009121,4491880.0
1574255009171,4501323.0
1574255009213,4509174.0
1574255009270,4503843.0
1574255009315,4563166.0
1574255009366,4565449.0
1574255009416,4560516.0
1574255009464,4522062.0
1574255009513,4494570.0
1574255009554,4508316.0
1574255009610,4532167.0
1574255009653,4576753.0
1574255009708,4597966.0
1574255009757,4612306.0
1574255009806,4597703.0
1574255009854,4583179.0
1574255009898,4570951.0
1574255009951,4562797.0
1574255009995,4571425.0
1574255010047,4645719.0
1574255010096,4663028.0
1574255010145,4680718.0
1574255010196,4674583.0
1574255010245,4659306.0
1574255010294,4655269.0
1574255010337,4656827.0
1574255010388,4689806.0
1574255010436,4750817.0
1574255010486,4800986.0
1574255010531,4789468.0
1574255010585,4794654.0
1574255010638,4785142.0
1574255010678,4794126.0
1574255010734,4805840.0
1574255010777,4807383.0
1574255010831,4880822.0
1574255010879,4880030.0
1574255010929,4901387.0
1574255010978,4869146.0
1574255011025,4866074.0
1574255011075,4891837.0
1574255011118,4910952.0
1574255011166,4920317.0
1574255011217,4964363.0
1574255011269,5006537.0
1574255011317,4988939.0
1574255011369,4971605.0
1574255011416,4969706.0
1574255011457,4956463.0
1574255011514,4963956.0
1574255011556,5023554.0
1574255011612,5016867.0
1574255011658,5005852.0
1574255011709,4993569.0
1574255011759,4966594.0
1574255011807,4965432.0
1574255011856,4968414.0
1574255011905,4989150.0
1574255011951,5049858.0
1574255011997,5050135.0
1574255012050,5049713.0
1574255012098,5034529.0
1574255012149,5045940.0
1574255012198,5052285.0
1574255012243,5067666.0
1574255012295,5050664.0
1574255012339,5079988.0
1574255012394,5067363.0
1574255012440,5056495.0
1574255012489,5026154.0
1574255012544,5072192.0
1574255012581,5162107.0
1574255012642,5194834.0
1574255012681,5127201.0
1574255012735,5109300.0
1574255012780,5141475.0
1574255012833,5116700.0
1574255012882,5095964.0
1574255012928,5101729.0
1574255012979,5090133.0
1574255013020,5084380.0
1574255013078,5100700.0
1574255013120,5087047.0
1574255013175,5079040.0
1574255013222,5054923.0
1574255013271,5050002.0
1574255013321,5054186.0
1574255013363,5040571.0
1574255013420,5078115.0
1574255013462,5087943.0
1574255013516,5067470.0
1574255013558,5032485.0
1574255013614,5037326.0
1574255013663,5040215.0
1574255013705,5044027.0
1574255013753,5031905.0
1574255013805,5054793.0
1574255013853,5031864.0
1574255013902,5004043.0
1574255013950,4982501.0
1574255013999,4968836.0
1574255014053,4981539.0
1574255014102,4974376.0
1574255014143,4909157.0
1574255014197,4861112.0
1574255014243,4875543.0
1574255014292,4864872.0
1574255014342,4836828.0
1574255014396,4836155.0
1574255014445,4859252.0
1574255014492,4872379.0
1574255014536,4870082.0
1574255014586,4866311.0
1574255014642,4827474.0
1574255014681,4814440.0
1574255014737,4804942.0
1574255014779,4801882.0
1574255014834,4844939.0
1574255014882,4850057.0
1574255014923,4836906.0
1574255014978,4814613.0
1574255015023,4795154.0
1574255015079,4754154.0
1574255015122,4743153.0
1574255015176,4783388.0
1574255015221,4840772.0
1574255015274,4828107.0
1574255015324,4800549.0
1574255015369,4777979.0
1574255015418,4770763.0
1574255015462,4756581.0
1574255015520,4792120.0
1574255015561,4813703.0
1574255015616,4842261.0
1574255015664,4827659.0
1574255015713,4835112.0
1574255015762,4842078.0
1574255015808,4834413.0
1574255015858,4834782.0
1574255015906,4856997.0
1574255015958,4866614.0
1574255015999,4843292.0
1574255016054,4841839.0
1574255016104,4864952.0
1574255016152,4882469.0
1574255016198,4923759.0
1574255016250,4954126.0
1574255016294,4980219.0
1574255016344,4983319.0
1574255016397,5021048.0
1574255016446,5087047.0
1574255016494,5099394.0
1574255016541,5074699.0
1574255016592,5082533.0
1574255016640,5121147.0
1574255016683,5139918.0
1574255016740,5111715.0
1574255016780,5147780.0
1574255016838,5150101.0
1574255016885,5195548.0
1574255016934,5215111.0
1574255016982,5235873.0
1574255017024,5241374.0
1574255017077,5262020.0
1574255017120,5255964.0
1574255017178,5212458.0
1574255017225,5306422.0
1574255017275,5329917.0
1574255017317,5288547.0
1574255017373,5290908.0
1574255017422,5308058.0
1574255017470,5303850.0
1574255017517,5275041.0
1574255017563,5300802.0
1574255017619,5312715.0
1574255017660,5360573.0
1574255017715,5367670.0
1574255017764,5375269.0
1574255017809,5357949.0
1574255017855,5341184.0
1574255017904,5374900.0
1574255017952,5401865.0
1574255017999,5385903.0
1574255018050,5361365.0
1574255018100,5352395.0
1574255018148,5374466.0
1574255018198,5383843.0
1574255018245,5344045.0
1574255018295,5319284.0
1574255018344,5337147.0
1574255018393,5376246.0
1574255018443,5391613.0
1574255018487,5411178.0
1574255018539,5406772.0
1574255018584,5401507.0
1574255018637,5400201.0
1574255018684,5401045.0
1574255018734,5376405.0
1574255018782,5388157.0
1574255018831,5388579.0
1574255018886,5381285.0
1574255018935,5378422.0
1574255018983,5382750.0
1574255019026,5352817.0
1574255019081,5303348.0
1574255019122,5358331.0
1574255019178,5374400.0
1574255019228,5361419.0
1574255019277,5403050.0
1574255019327,5427126.0
1574255019374,5407205.0
1574255019424,5356577.0
1574255019464,5391535.0
1574255019521,5423959.0
1574255019564,5398738.0
1574255019620,5398606.0
1574255019666,5413565.0
1574255019715,5405677.0
1574255019766,5356565.0
1574255019811,5340866.0
1574255019864,5363451.0
1574255019904,5398144.0
1574255019957,5420292.0
1574255020004,5425742.0
1574255020058,5410635.0
1574255020107,5387617.0
1574255020155,5358767.0
1574255020206,5381101.0
1574255020255,5367051.0
1574255020304,5364058.0
1574255020344,5363358.0
1574255020399,5372406.0
1574255020447,5383435.0
1574255020497,5358542.0
1574255020546,5305922.0
1574255020587,5308875.0
1574255020647,5334151.0
1574255020685,5355140.0
1574255020743,5327741.0
1574255020786,5356695.0
1574255020840,5361116.0
1574255020888,5350430.0
1574255020930,5341051.0
1574255020988,5360784.0
1574255021029,5357250.0
1574255021086,5320234.0
1574255021126,5299299.0
1574255021183,5340536.0
1574255021226,5399687.0
1574255021281,5366893.0
1574255021328,5407867.0
1574255021374,5457149.0
1574255021420,5475380.0
1574255021471,5408737.0
1574255021525,5426164.0
1574255021566,5417550.0
1574255021623,5404555.0
1574255021664,5331816.0
1574255021720,5306870.0
1574255021764,5343108.0
1574255021815,5384753.0
1574255021866,5392708.0
1574255021906,5386917.0
1574255021963,5376379.0
1574255022005,5360521.0
1574255022055,5306555.0
1574255022108,5336962.0
1574255022158,5421309.0
1574255022208,5473547.0
1574255022257,5501105.0
1574255022306,5514652.0
1574255022345,5497265.0
1574255022403,5455013.0
1574255022449,5541603.0
1574255022501,5543872.0
1574255022549,5552248.0
1574255022596,5522832.0
1574255022650,5545640.0
1574255022689,5542539.0
1574255022745,5479179.0
1574255022787,5485473.0
1574255022844,5495141.0
1574255022890,5515429.0
1574255022938,5549070.0
1574255022989,5566072.0
1574255023034,5543409.0
1574255023087,5520694.0
1574255023126,5519547.0
1574255023185,5603339.0
1574255023227,5651237.0
1574255023280,5656910.0
1574255023330,5639867.0
1574255023380,5635830.0
1574255023428,5614065.0
1574255023470,5595529.0
1574255023527,5580717.0
1574255023566,5580069.0
1574255023615,5610555.0
1574255023667,5632545.0
1574255023721,5644840.0
1574255023769,5652480.0
1574255023817,5646978.0
1574255023867,5620290.0
1574255023907,5649353.0
1574255023958,5689547.0
1574255024008,5680049.0
1574255024054,5649417.0
1574255024106,5629143.0
1574255024154,5621835.0
1574255024204,5615464.0
1574255024252,5558357.0
1574255024305,5550139.0
1574255024347,5521419.0
1574255024405,5566641.0
1574255024449,5566653.0
1574255024503,5530510.0
1574255024552,5487478.0
1574255024599,5465104.0
1574255024650,5442455.0
1574255024692,5461437.0
1574255024748,5441953.0
1574255024789,5424606.0
1574255024846,5399502.0
1574255024891,5402642.0
1574255024947,5401377.0
1574255024992,5352014.0
1574255025042,5341750.0
1574255025090,5325074.0
1574255025134,5339546.0
1574255025187,5359729.0
1574255025230,5338095.0
1574255025285,5312846.0
1574255025331,5287570.0
1574255025375,5265792.0
1574255025431,5303495.0
1574255025480,5312068.0
1574255025528,5325774.0
1574255025570,5315432.0
1574255025627,5301437.0
1574255025671,5290368.0
1574255025724,5269340.0
1574255025771,5218394.0
1574255025822,5241242.0
1574255025871,5239184.0
1574255025920,5231995.0
1574255025967,5205665.0
1574255026010,5160497.0
1574255026066,5138889.0
1574255026112,5134682.0
1574255026164,5122979.0
1574255026213,5135063.0
1574255026263,5122268.0
1574255026310,5110528.0
1574255026358,5083022.0
1574255026409,5061731.0
1574255026450,5043949.0
1574255026507,5019268.0
1574255026556,5010441.0
1574255026603,5020693.0
1574255026654,5027842.0
1574255026699,5014874.0
1574255026749,4997857.0
1574255026792,4987344.0
1574255026847,5001550.0
1574255026891,5014940.0
1574255026942,5092600.0
1574255026995,5102151.0
1574255027045,5126212.0
1574255027091,5133506.0
1574255027140,5163083.0
1574255027189,5126068.0
1574255027232,5147029.0
1574255027288,5122517.0
1574255027335,5091373.0
1574255027385,5079329.0
1574255027434,5091505.0
1574255027484,5073287.0
1574255027532,5056125.0
1574255027574,5063578.0
1574255027629,5046283.0
1574255027671,5055597.0
1574255027727,5049121.0
1574255027771,5021826.0
1574255027819,4997541.0
1574255027874,4975800.0
1574255027921,4957281.0
1574255027971,4951528.0
1574255028018,4943006.0
1574255028068,4928272.0
1574255028113,4928891.0
1574255028167,4938178.0
1574255028213,4920343.0
1574255028266,4894224.0
1574255028313,4903945.0
1574255028361,4898946.0
1574255028411,4878909.0
1574255028455,4878170.0
1574255028509,4854674.0
1574255028554,4835626.0
1574255028606,4836562.0
1574255028658,4823120.0
1574255028701,4794389.0
1574255028753,4790063.0
1574255028795,4798518.0
1574255028850,4753310.0
1574255028893,4743497.0
1574255028950,4718260.0
1574255028996,4716202.0
1574255029047,4736914.0
1574255029089,4751819.0
1574255029135,4751860.0
1574255029184,4734976.0
1574255029237,4744803.0
1574255029285,4709027.0
1574255029334,4705438.0
1574255029380,4702326.0
1574255029436,4703710.0
1574255029480,4703156.0
1574255029530,4707365.0
1574255029577,4664689.0
1574255029632,4667183.0
1574255029675,4631089.0
1574255029730,4592993.0
1574255029774,4580356.0
1574255029828,4632858.0
1574255029878,4659768.0
1574255029927,4667631.0
1574255029974,4635866.0
1574255030021,4617713.0
1574255030072,4602083.0
1574255030114,4568798.0
1574255030170,4596041.0
1574255030215,4631988.0
1574255030268,4634929.0
1574255030317,4649585.0
1574255030360,4642104.0
1574255030406,4640706.0
1574255030456,4626301.0
1574255030503,4601476.0
1574255030560,4602597.0
1574255030611,4623122.0
1574255030659,4650996.0
1574255030705,4667261.0
1574255030757,4685769.0
1574255030802,4709224.0
1574255030853,4706545.0
1574255030896,4728682.0
1574255030952,4688118.0
1574255030997,4757255.0
1574255031050,4808490.0
1574255031099,4832896.0
1574255031145,4872457.0
1574255031197,4879291.0
1574255031237,4909302.0
1574255031293,4936924.0
1574255031336,4952545.0
1574255031384,4959708.0
1574255031437,4981632.0
1574255031484,5004216.0
1574255031532,5020546.0
1574255031582,5063973.0
1574255031629,5079040.0
1574255031681,5132781.0
1574255031734,5163754.0
1574255031776,5192670.0
1574255031833,5240886.0
1574255031877,5270264.0
1574255031927,5252375.0
1574255031978,5219425.0
1574255032023,5162199.0
1574255032075,5219885.0
1574255032117,5232417.0
1574255032173,5249329.0
1574255032221,5245411.0
1574255032271,5228050.0
1574255032321,5165259.0
1574255032363,5117888.0
1574255032418,5137476.0
1574255032459,5171472.0
1574255032516,5164890.0
1574255032559,5168412.0
1574255032611,5161685.0
1574255032661,5137213.0
1574255032708,5092875.0
1574255032758,5061783.0
1574255032800,5047760.0
1574255032857,5048881.0
1574255032900,5054238.0
1574255032950,5052522.0
1574255033004,5067152.0
1574255033051,5054727.0
1574255033102,5108416.0
1574255033148,5143651.0
1574255033200,5150615.0
1574255033241,5150418.0
1574255033299,5119075.0
1574255033338,5101966.0
1574255033395,5071744.0
1574255033439,5008002.0
1574255033491,4952874.0
1574255033543,4924143.0
1574255033588,4904000.0
1574255033640,4887535.0
1574255033682,4870044.0
1574255033737,4853065.0
1574255033779,4820840.0
1574255033834,4756570.0
1574255033880,4715214.0
1574255033930,4694686.0
1574255033978,4681957.0
1574255034030,4669596.0
1574255034079,4656061.0
1574255034120,4643003.0
1574255034177,4616170.0
1574255034219,4586488.0
1574255034274,4564328.0
1574255034321,4558049.0
1574255034371,4550582.0
1574255034417,4539567.0
1574255034466,4515875.0
1574255034520,4494385.0
1574255034564,4448862.0
1574255034617,4411766.0
1574255034657,4390542.0
1574255034708,4388219.0
1574255034763,4383234.0
1574255034805,4380107.0
1574255034857,4375582.0
1574255034903,4349911.0
1574255034959,4293304.0
1574255035000,4265630.0
1574255035057,4259204.0
1574255035098,4267332.0
1574255035154,4070709.0
1574255035201,4063636.0
1574255035245,4054832.0
1574255035297,4044988.0
1574255035346,4001903.0
1574255035400,3981320.0
1574255035443,3973692.0
1574255035490,3974337.0
1574255035540,3987157.0
1574255035594,3990779.0
1574255035642,3993563.0
1574255035687,3966872.0
1574255035737,3930906.0
1574255035787,3918384.0
1574255035837,3914051.0
1574255035880,3916198.0
1574255035936,3911883.0
1574255035985,3918134.0
1574255036033,3914947.0
1574255036078,3876352.0
1574255036130,3848051.0
1574255036177,3836109.0
1574255036225,3841792.0
1574255036278,3846916.0
1574255036320,3847176.0
1574255036374,3848909.0
1574255036419,3835751.0
1574255036464,3782989.0
1574255036517,3759997.0
1574255036563,3760044.0
1574255036614,3764784.0
1574255036661,3770168.0
1574255036719,3779781.0
1574255036762,3779559.0
1574255036809,3762145.0
1574255036859,3726795.0
1574255036907,3714332.0
1574255036956,3722865.0
1574255037008,3731996.0
1574255037061,3740993.0
1574255037100,3741446.0
1574255037156,3744278.0
1574255037206,3720023.0
1574255037247,3686139.0
1574255037303,3672683.0
1574255037351,3680707.0
1574255037398,3692005.0
1574255037446,3702580.0
1574255037500,3707387.0
1574255037543,3710238.0
1574255037596,3678971.0
1574255037647,3647053.0
1574255037694,3648765.0
1574255037741,3653506.0
1574255037790,3663244.0
1574255037838,3668203.0
1574255037882,3674957.0
1574255037939,3677633.0
1574255037988,3645876.0
1574255038029,3618397.0
1574255038086,3620939.0
1574255038133,3625033.0
1574255038181,3634395.0
1574255038231,3636014.0
1574255038276,3641821.0
1574255038322,3634135.0
1574255038379,3593150.0
1574255038424,3577577.0
1574255038475,3579743.0
1574255038525,3586312.0
1574255038573,3596436.0
1574255038622,3598671.0
1574255038662,3600944.0
1574255038718,3584300.0
1574255038769,3553255.0
1574255038818,3552014.0
1574255038866,3566894.0
1574255038915,3584705.0
1574255038962,3599662.0
1574255039011,3608216.0
1574255039059,3612936.0
1574255039104,3599817.0
1574255039156,3577683.0
1574255039205,3572935.0
1574255039249,3586497.0
1574255039307,3601694.0
1574255039349,3621325.0
1574255039403,3633048.0
1574255039444,3639058.0
1574255039500,3616963.0
1574255039544,3593083.0
1574255039602,3591899.0
1574255039646,3603679.0
1574255039698,3620526.0
1574255039747,3645886.0
1574255039787,3666586.0
1574255039843,3697938.0
1574255039884,3695654.0
1574255039938,3675773.0
1574255039986,3687468.0
1574255040031,3720728.0
1574255040082,3756318.0
1574255040127,3814456.0
1574255040184,3905930.0
1574255040231,3974983.0
1574255040280,4039854.0
1574255040330,4075906.0
1574255040377,4097771.0
1574255040426,4135614.0
1574255040478,4176205.0
1574255040528,4191412.0
1574255040573,4188436.0
1574255040619,4186654.0
1574255040668,4174181.0
1574255040722,4173594.0
1574255040764,4216072.0
1574255040819,4230566.0
1574255040868,4282656.0
1574255040918,4298087.0
1574255040967,4297577.0
1574255041014,4306757.0
1574255041065,4311755.0
1574255041105,4295535.0
1574255041163,4278881.0
1574255041205,4271849.0
1574255041253,4309048.0
1574255041304,4345390.0
1574255041348,4341566.0
1574255041397,4342934.0
1574255041446,4328043.0
1574255041504,4312313.0
1574255041546,4319018.0
1574255041598,4391460.0
1574255041646,4462409.0
1574255041697,4504886.0
1574255041739,4511252.0
1574255041796,4517936.0
1574255041841,4526057.0
1574255041888,4510464.0
1574255041939,4481154.0
1574255041984,4499963.0
1574255042035,4549501.0
1574255042089,4561869.0
1574255042140,4592054.0
1574255042189,4577751.0
1574255042237,4570942.0
1574255042287,4561137.0
1574255042327,4581384.0
1574255042384,4651089.0
1574255042425,4712003.0
1574255042484,4728829.0
1574255042529,4739858.0
1574255042580,4782451.0
1574255042629,4798362.0
1574255042674,4755163.0
1574255042726,4735485.0
1574255042766,4784570.0
1574255042825,4816798.0
1574255042866,4825534.0
1574255042923,4833586.0
1574255042969,4805703.0
1574255043020,4790483.0
1574255043069,4770911.0
1574255043111,4847697.0
1574255043160,4885321.0
1574255043207,4896666.0
1574255043258,4900605.0
1574255043307,4902802.0
1574255043362,4917376.0
1574255043410,4900711.0
1574255043458,4867039.0
1574255043509,4867992.0
1574255043558,4889201.0
1574255043607,4891099.0
1574255043646,4897621.0
1574255043705,4886456.0
1574255043749,4881891.0
1574255043800,4858957.0
1574255043850,4885985.0
1574255043899,4916384.0
1574255043947,4994143.0
1574255043989,5003003.0
1574255044046,4993891.0
1574255044087,4997408.0
1574255044144,4999497.0
1574255044191,4934414.0
1574255044241,4928991.0
1574255044291,4963051.0
1574255044338,4916191.0
1574255044387,4875274.0
1574255044431,4848325.0
1574255044485,4824803.0
1574255044528,4819900.0
1574255044584,4860239.0
1574255044631,4925803.0
1574255044681,4966247.0
1574255044732,5004468.0
1574255044773,4951665.0
1574255044824,4994228.0
1574255044877,5021795.0
1574255044926,5007636.0
1574255044969,4957425.0
1574255045015,4946001.0
1574255045063,4873520.0
1574255045119,4839751.0
1574255045170,4839529.0
1574255045216,4798913.0
1574255045260,4784733.0
1574255045308,4775419.0
1574255045366,4824803.0
1574255045411,4858928.0
1574255045464,4837237.0
1574255045512,4823954.0
1574255045561,4818474.0
1574255045610,4837814.0
1574255045657,4828385.0
1574255045708,4834464.0
1574255045756,4831748.0
1574255045806,4856539.0
1574255045852,4827576.0
1574255045905,4824350.0
1574255045952,4815305.0
1574255046000,4798256.0
1574255046049,4794597.0
1574255046093,4785639.0
1574255046147,4794741.0
1574255046189,4782980.0
1574255046239,4754681.0
1574255046293,4774196.0
1574255046344,4806723.0
1574255046393,4811154.0
1574255046434,4781517.0
1574255046490,4759497.0
1574255046532,4724197.0
1574255046588,4724939.0
1574255046630,4722318.0
1574255046688,4738423.0
1574255046733,4743671.0
1574255046784,4764852.0
1574255046832,4774727.0
1574255046874,4769726.0
1574255046929,4763928.0
1574255046974,4754364.0
1574255047019,4767020.0
1574255047070,4779753.0
1574255047117,4775564.0
1574255047173,4773406.0
1574255047217,4771905.0
1574255047265,4776594.0
1574255047315,4772646.0
1574255047370,4737980.0
1574255047413,4730823.0
1574255047467,4731574.0
1574255047512,4727434.0
1574255047565,4731170.0
1574255047616,4721489.0
1574255047664,4673735.0
1574255047714,4631393.0
1574255047760,4632838.0
1574255047810,4629977.0
1574255047852,4647574.0
1574255047908,4653218.0
1574255047953,4664960.0
1574255048006,4665673.0
1574255048055,4648817.0
1574255048103,4620489.0
1574255048152,4619660.0
1574255048199,4618871.0
1574255048249,4630796.0
1574255048295,4634061.0
1574255048347,4651138.0
1574255048394,4679330.0
1574255048438,4714920.0
1574255048496,4737932.0
1574255048544,4792450.0
1574255048592,4814478.0
1574255048635,4862222.0
1574255048691,4874177.0
1574255048740,4871545.0
1574255048788,4811471.0
1574255048837,4849046.0
1574255048886,4868849.0
1574255048935,4899596.0
1574255048982,4888498.0
1574255049032,4888720.0
1574255049076,4894201.0
1574255049130,4881420.0
1574255049173,4902359.0
1574255049227,4918310.0
1574255049278,4931120.0
1574255049326,4990453.0
1574255049374,5016691.0
1574255049421,5060815.0
1574255049471,5090933.0
1574255049514,5021545.0
1574255049563,5098544.0
1574255049615,5060055.0
1574255049667,5094767.0
1574255049718,5095094.0
1574255049763,5092234.0
1574255049815,5082496.0
1574255049862,5119445.0
1574255049912,5167364.0
1574255049954,5226900.0
1574255050009,5254995.0
1574255050055,5251143.0
1574255050107,5265418.0
1574255050157,5288110.0
1574255050202,5335009.0
1574255050253,5334690.0
1574255050296,5242581.0
1574255050351,5344294.0
1574255050396,5295075.0
1574255050448,5302009.0
1574255050497,5292088.0
1574255050546,5273094.0
1574255050596,5273335.0
1574255050642,5267846.0
1574255050696,5256295.0
1574255050744,5263492.0
1574255050790,5314127.0
1574255050835,5352779.0
1574255050889,5355562.0
1574255050935,5378005.0
1574255050985,5340393.0
1574255051036,5327851.0
1574255051077,5283004.0
1574255051133,5343571.0
1574255051176,5308058.0
1574255051229,5304860.0
1574255051280,5284142.0
1574255051330,5283197.0
1574255051378,5268894.0
1574255051423,5237032.0
1574255051476,5255824.0
1574255051516,5281194.0
1574255051573,5389882.0
1574255051616,5426773.0
1574255051671,5431848.0
1574255051717,5414568.0
1574255051766,5393282.0
1574255051819,5357769.0
1574255051864,5342126.0
1574255051916,5322333.0
1574255051958,5367411.0
1574255052014,5356489.0
1574255052056,5385104.0
1574255052109,5406776.0
1574255052158,5406910.0
1574255052204,5314637.0
1574255052253,5270851.0
1574255052301,5279500.0
1574255052350,5283998.0
1574255052400,5230801.0
1574255052453,5181870.0
1574255052501,5143486.0
1574255052550,5155777.0
1574255052602,5213714.0
1574255052641,5205506.0
1574255052700,5249227.0
1574255052741,5262287.0
1574255052795,5268654.0
1574255052839,5285221.0
1574255052892,5276003.0
1574255052942,5271312.0
1574255052988,5267151.0
1574255053038,5315986.0
1574255053081,5334440.0
1574255053138,5326108.0
1574255053179,5316236.0
1574255053235,5315523.0
1574255053282,5298165.0
1574255053333,5255718.0
1574255053381,5271543.0
1574255053424,5350487.0
1574255053476,5373970.0
1574255053519,5372371.0
1574255053568,5370561.0
1574255053621,5399389.0
1574255053670,5350304.0
1574255053717,5328670.0
1574255053767,5347116.0
1574255053821,5437752.0
1574255053867,5461477.0
1574255053917,5461073.0
1574255053961,5455254.0
1574255054018,5442011.0
1574255054059,5417864.0
1574255054116,5407142.0
1574255054159,5438592.0
1574255054213,5478534.0
1574255054260,5469019.0
1574255054308,5453271.0
1574255054357,5444813.0
1574255054405,5435239.0
1574255054458,5420019.0
1574255054499,5516099.0
1574255054555,5629496.0
1574255054598,5645553.0
1574255054653,5646266.0
1574255054699,5633928.0
1574255054748,5602027.0
1574255054797,5556467.0
1574255054845,5564684.0
1574255054899,5570106.0
1574255054939,5583532.0
1574255054996,5602238.0
1574255055039,5605975.0
1574255055093,5584611.0
1574255055144,5574007.0
1574255055190,5598106.0
1574255055237,5573892.0
1574255055289,5566427.0
1574255055338,5871809.0
1574255055380,5899576.0
1574255055436,5862572.0
1574255055483,5931408.0
1574255055526,5935384.0
1574255055586,5907567.0
1574255055623,5799015.0
1574255055676,5833358.0
1574255055727,5917679.0
1574255055780,5937853.0
1574255055824,5936809.0
1574255055877,5923687.0
1574255055918,5886348.0
1574255055968,5793040.0
1574255056025,5997105.0
1574255056072,6036399.0
1574255056118,6114217.0
1574255056168,6095376.0
1574255056217,6062344.0
1574255056261,6047624.0
1574255056318,6020717.0
1574255056360,5988246.0
1574255056414,5925378.0
1574255056465,5937211.0
1574255056512,5989029.0
1574255056557,5965729.0
1574255056608,5940463.0
1574255056656,5913979.0
1574255056700,5880084.0
1574255056749,5942174.0
1574255056799,5953709.0
1574255056846,5917770.0
1574255056897,5922861.0
1574255056952,5981295.0
1574255056999,5942748.0
1574255057047,5945059.0
1574255057096,5943438.0
1574255057140,5850132.0
1574255057196,5930270.0
1574255057242,5913141.0
1574255057295,5943599.0
1574255057342,5913335.0
1574255057392,5897779.0
1574255057440,5877328.0
1574255057487,5840918.0
1574255057534,5910302.0
1574255057583,5938785.0
1574255057639,5950573.0
1574255057687,5895147.0
1574255057736,5928066.0
1574255057784,5934569.0
1574255057833,5944724.0
1574255057880,5923367.0
1574255057921,5856049.0
1574255057977,5914427.0
1574255058024,5883038.0
1574255058080,5907821.0
1574255058126,5878856.0
1574255058176,5864689.0
1574255058223,5846259.0
1574255058266,5811458.0
1574255058322,5855269.0
1574255058371,5896654.0
1574255058419,5871962.0
1574255058464,5858025.0
1574255058515,5859897.0
1574255058562,5869803.0
1574255058610,5863655.0
1574255058660,5799830.0
1574255058710,5761744.0
1574255058759,5830784.0
1574255058808,5796349.0
1574255058858,5811747.0
1574255058912,5769936.0
1574255058960,5730917.0
1574255059006,5737994.0
1574255059059,5707375.0
1574255059106,5721232.0
1574255059155,5762846.0
1574255059199,5836413.0
1574255059248,5952090.0
1574255059297,5970875.0
1574255059346,5964108.0
1574255059394,5993096.0
1574255059442,6042995.0
1574255059499,5857486.0
1574255059549,5831496.0
1574255059598,5903042.0
1574255059647,5977492.0
1574255059695,5983731.0
1574255059746,6009595.0
1574255059786,5992051.0
1574255059843,5930663.0
1574255059882,5875478.0
1574255059939,5911302.0
1574255059986,5933753.0
1574255060037,5901537.0
1574255060086,5874283.0
1574255060128,5851247.0
1574255060185,5820098.0
1574255060224,5810964.0
1574255060275,5752931.0
1574255060323,5759962.0
1574255060378,5801244.0
1574255060426,5767500.0
1574255060477,5723749.0
1574255060526,5677423.0
1574255060574,5705699.0
1574255060625,5734903.0
1574255060664,5726022.0
1574255060721,5730171.0
1574255060765,5707629.0
1574255060820,5751919.0
1574255060868,5778186.0
1574255060911,5771635.0
1574255060966,5722219.0
1574255061009,5679283.0
1574255061064,5679134.0
1574255061106,5676318.0
1574255061162,5673205.0
1574255061205,5623675.0
1574255061261,5590907.0
1574255061308,5575027.0
1574255061356,5533299.0
1574255061406,5603534.0
1574255061448,5658465.0
1574255061504,5622193.0
1574255061550,5574247.0
1574255061604,5533539.0
1574255061648,5529990.0
1574255061698,5504505.0
1574255061751,5461029.0
1574255061789,5431203.0
1574255061846,5434983.0
1574255061887,5412636.0
1574255061944,5333646.0
1574255061986,5276715.0
1574255062043,5258101.0
1574255062087,5265180.0
1574255062140,5308001.0
1574255062189,5349718.0
1574255062235,5338460.0
1574255062280,5367849.0
1574255062330,5348754.0
1574255062378,5330727.0
1574255062425,5324890.0
1574255062473,5329670.0
1574255062562,5292087.0
1574255062591,5314884.0
1574255062684,5318216.0
1574255062684,5303646.0
1574255062754,5257540.0
1574255062772,5244108.0
1574255062822,5236283.0
1574255062866,5221543.0
1574255062921,5217199.0
1574255062969,5300958.0
1574255063017,5338355.0
1574255063067,5321019.0
1574255063116,5296891.0
1574255063164,5297891.0
1574255063214,5312838.0
1574255063263,5263595.0
1574255063306,5298465.0
1574255063361,5307943.0
1574255063412,5306553.0
1574255063458,5315055.0
1574255063506,5299544.0
1574255063550,5289538.0
1574255063599,5277565.0
1574255063646,5263479.0
1574255063699,5303624.0
1574255063744,5365702.0
1574255063796,5402698.0
1574255063847,5445082.0
1574255063898,5431019.0
1574255063946,5428296.0
1574255063996,5409717.0
1574255064044,5400984.0
1574255064090,5382947.0
1574255064142,5381258.0
1574255064191,5378708.0
1574255064236,5414967.0
1574255064287,5412314.0
1574255064333,5418058.0
1574255064382,5407777.0
1574255064429,5398814.0
1574255064484,5404880.0
1574255064529,5444715.0
1574255064582,5450873.0
1574255064631,5454606.0
1574255064680,5454354.0
1574255064727,5470806.0
1574255064778,5442370.0
1574255064826,5429927.0
1574255064868,5412508.0
1574255064920,5437016.0
1574255064972,5460500.0
1574255065022,5463671.0
1574255065070,5450654.0
1574255065119,5437912.0
1574255065169,5434995.0
1574255065218,5427435.0
1574255065266,5459513.0
1574255065316,5513697.0
1574255065364,5544260.0
1574255065407,5523280.0
1574255065462,5528037.0
1574255065513,5543628.0
1574255065562,5499072.0
1574255065608,5472933.0
1574255065657,5486845.0
1574255065705,5482262.0
1574255065752,5506171.0
1574255065803,5507228.0
1574255065853,5498312.0
1574255065902,5484570.0
1574255065951,5460948.0
1574255066001,5476954.0
1574255066049,5556554.0
1574255066098,5577889.0
1574255066147,5566986.0
1574255066192,5538469.0
1574255066244,5544421.0
1574255066291,5548636.0
1574255066342,5484250.0
1574255066394,5505736.0
1574255066440,5502323.0
1574255066489,5507297.0
1574255066534,5534515.0
1574255066586,5523819.0
1574255066638,5519097.0
1574255066685,5516316.0
1574255066731,5493832.0
1574255066782,5539078.0
1574255066835,5556667.0
1574255066881,5510848.0
1574255066929,5526852.0
1574255066979,5502862.0
1574255067027,5512617.0
1574255067078,5489443.0
1574255067125,5441899.0
1574255067169,5421896.0
1574255067224,5433500.0
1574255067275,5451734.0
1574255067322,5458260.0
1574255067370,5445921.0
1574255067420,5419150.0
1574255067462,5369998.0
1574255067512,5355751.0
1574255067566,5428296.0
1574255067619,5413095.0
1574255067658,5380477.0
1574255067713,5353878.0
1574255067758,5361461.0
1574255067812,5358406.0
1574255067862,5301590.0
1574255067908,5302199.0
1574255067959,5289158.0
1574255068006,5290204.0
1574255068054,5289077.0
1574255068104,5281794.0
1574255068154,5263089.0
1574255068202,5238362.0
1574255068251,5203080.0
1574255068295,5219796.0
1574255068349,5268661.0
1574255068400,5245625.0
1574255068446,5221842.0
1574255068498,5194440.0
1574255068544,5201839.0
1574255068591,5191946.0
1574255068636,5160854.0
1574255068684,5144528.0
1574255068736,5152491.0
1574255068785,5155961.0
1574255068837,5166715.0
1574255068883,5155707.0
1574255068940,5107705.0
1574255068984,5089930.0
1574255069037,5091354.0
1574255069084,5130200.0
1574255069133,5163486.0
1574255069180,5175240.0
1574255069229,5149252.0
1574255069275,5119735.0
1574255069327,5106681.0
1574255069373,5063655.0
1574255069425,5035251.0
1574255069473,5027612.0
1574255069524,5049546.0
1574255069573,5063240.0
1574255069620,5073490.0
1574255069669,5043284.0
1574255069720,4998969.0
1574255069768,4973933.0
1574255069815,4959444.0
1574255069866,5013801.0
1574255069917,5073787.0
1574255069963,5126938.0
1574255070012,5102753.0
1574255070057,5117677.0
1574255070110,5117161.0
1574255070158,5102558.0
1574255070207,5085002.0
1574255070256,5099420.0
1574255070300,5091883.0
1574255070357,5112346.0
1574255070404,5086726.0
1574255070452,5036872.0
1574255070501,5010159.0
1574255070549,4995693.0
1574255070599,5047316.0
1574255070647,5056359.0
1574255070697,5049304.0
1574255070746,5039182.0
1574255070795,5021097.0
1574255070843,4988238.0
1574255070892,4946244.0
1574255070942,4948874.0
1574255070990,4921461.0
1574255071035,4937614.0
1574255071087,4953182.0
1574255071138,4943050.0
1574255071186,4908672.0
1574255071235,4884752.0
1574255071277,4876376.0
1574255071328,4895828.0
1574255071378,4867472.0
1574255071430,4851581.0
1574255071477,4832520.0
1574255071528,4803464.0
1574255071577,4776957.0
1574255071626,4742478.0
1574255071676,4707687.0
1574255071719,4665728.0
1574255071773,4660098.0
1574255071817,4666923.0
1574255071870,4644519.0
1574255071919,4601938.0
1574255071968,4587127.0
1574255072019,4603270.0
1574255072066,4622515.0
1574255072116,4600156.0
1574255072164,4586173.0
1574255072212,4589656.0
1574255072256,4605029.0
1574255072304,4591723.0
1574255072361,4568181.0
1574255072408,4592264.0
1574255072462,4607223.0
1574255072501,4625893.0
1574255072555,4632673.0
1574255072599,4649021.0
1574255072653,4641174.0
1574255072696,4647677.0
1574255072753,4688718.0
1574255072802,4701989.0
1574255072848,4721106.0
1574255072902,4704125.0
1574255072946,4699885.0
1574255072996,4708147.0
1574255073044,4673736.0
1574255073092,4656398.0
1574255073140,4659811.0
1574255073190,4674229.0
1574255073242,4696588.0
1574255073283,4701563.0
1574255073341,4698634.0
1574255073386,4684145.0
1574255073437,4669530.0
1574255073482,4692096.0
1574255073533,4687752.0
1574255073578,4704448.0
1574255073626,4692118.0
1574255073679,4718383.0
1574255073725,4715476.0
1574255073779,4677780.0
1574255073822,4678641.0
1574255073869,4682985.0
1574255073925,4684168.0
1574255073974,4715685.0
1574255074016,4690316.0
1574255074071,4669852.0
1574255074122,4637704.0
1574255074169,4610165.0
1574255074221,4627365.0
1574255074267,4592964.0
1574255074318,4615289.0
1574255074365,4592747.0
1574255074413,4601156.0
1574255074460,4617092.0
1574255074511,4586186.0
1574255074562,4577156.0
1574255074608,4582177.0
1574255074659,4590333.0
1574255074706,4624342.0
1574255074757,4604752.0
1574255074804,4605947.0
1574255074854,4598377.0
1574255074901,4577717.0
1574255074952,4585909.0
1574255075003,4574053.0
1574255075049,4605338.0
1574255075099,4611381.0
1574255075147,4606040.0
1574255075191,4608280.0
1574255075241,4600501.0
1574255075288,4572283.0
1574255075337,4554279.0
1574255075387,4574053.0
1574255075444,4600524.0
1574255075489,4605097.0
1574255075534,4595251.0
1574255075587,4576879.0
1574255075637,4532290.0
1574255075678,4519661.0
1574255075727,4517570.0
1574255075778,4535139.0
1574255075828,4552268.0
1574255075878,4561713.0
1574255075926,4581233.0
1574255075975,4582635.0
1574255076028,4539561.0
1574255076077,4554958.0
1574255076118,4576673.0
1574255076169,4586048.0
1574255076217,4619495.0
1574255076273,4622850.0
1574255076322,4625812.0
1574255076370,4560908.0
1574255076420,4476702.0
1574255076464,4438224.0
1574255076520,4432617.0
1574255076566,4437396.0
1574255076615,4436236.0
1574255076659,4433158.0
1574255076713,4415543.0
1574255076764,4391450.0
1574255076810,4355018.0
1574255076861,4348950.0
1574255076908,4370332.0
1574255076959,4389084.0
1574255077006,4402813.0
1574255077055,4406984.0
1574255077098,4419968.0
1574255077154,4475346.0
1574255077205,4476129.0
1574255077250,4446680.0
1574255077296,4455021.0
1574255077348,4466983.0
1574255077399,4476818.0
1574255077445,4484378.0
1574255077498,4454608.0
1574255077546,4463525.0
1574255077593,4488823.0
1574255077645,4506035.0
1574255077691,4520305.0
1574255077736,4535483.0
1574255077790,4565838.0
1574255077838,4563873.0
1574255077880,4581613.0
1574255077938,4567172.0
1574255077982,4587162.0
1574255078034,4581923.0
1574255078087,4611590.0
1574255078131,4648113.0
1574255078181,4660155.0
1574255078225,4667600.0
1574255078279,4664049.0
1574255078326,4669266.0
1574255078379,4685237.0
1574255078421,4720130.0
1574255078475,4724645.0
1574255078526,4732343.0
1574255078572,4709549.0
1574255078621,4736640.0
1574255078670,4715685.0
1574255078713,4705469.0
1574255078763,4703368.0
1574255078814,4714190.0
1574255078862,4736169.0
1574255078910,4742501.0
1574255078960,4716523.0
1574255079008,4691361.0
1574255079058,4707204.0
1574255079106,4733918.0
1574255079155,4739823.0
1574255079204,4748612.0
1574255079253,4747877.0
1574255079302,4767364.0
1574255079352,4770570.0
1574255079401,4750773.0
1574255079448,4763055.0
1574255079498,4784299.0
1574255079546,4792491.0
1574255079596,4805888.0
1574255079645,4800419.0
1574255079693,4762801.0
1574255079742,4765824.0
1574255079796,4742823.0
1574255079847,4762446.0
1574255079893,4776014.0
1574255079942,4785104.0
1574255079991,4783805.0
1574255080041,4802429.0
1574255080083,4845285.0
1574255080139,4841505.0
1574255080185,4814631.0
1574255080231,4808070.0
1574255080282,4841102.0
1574255080328,4857063.0
1574255080379,4840679.0
1574255080427,4838172.0
1574255080481,4875491.0
1574255080525,4847434.0
1574255080580,4859784.0
1574255080627,4862922.0
1574255080678,4872629.0
1574255080728,4869148.0
1574255080781,4850054.0
1574255080817,4856280.0
1574255080867,4845056.0
1574255080916,4821169.0
1574255080964,4834611.0
1574255081018,4836690.0
1574255081062,4854546.0
1574255081112,4839461.0
1574255081164,4817286.0
1574255081219,4813918.0
1574255081268,4810392.0
1574255081313,4800867.0
1574255081363,4819674.0
1574255081412,4811920.0
1574255081461,4817286.0
1574255081509,4819939.0
1574255081555,4835197.0
1574255081603,4831646.0
1574255081656,4823341.0
1574255081707,4811276.0
1574255081757,4806819.0
1574255081804,4812265.0
1574255081852,4812378.0
1574255081902,4777313.0
1574255081950,4778427.0
1574255082000,4774682.0
1574255082043,4777232.0
1574255082098,4801740.0
1574255082151,4784022.0
1574255082201,4766307.0
1574255082245,4778508.0
1574255082290,4734492.0
1574255082343,4712869.0
1574255082392,4606579.0
1574255082441,4793593.0
1574255082488,4818791.0
1574255082534,4740948.0
1574255082588,4797155.0
1574255082638,4943843.0
1574255082692,4857670.0
1574255082736,4787757.0
1574255082785,4903467.0
1574255082831,4958364.0
1574255082882,5008251.0
1574255082924,5011986.0
1574255082980,4936282.0
1574255083030,4919254.0
1574255083077,4920759.0
1574255083131,4880317.0
1574255083176,4870724.0
1574255083223,4891897.0
1574255083267,4868230.0
1574255083322,4857763.0
1574255083371,4834818.0
1574255083421,4793088.0
1574255083467,4790870.0
1574255083518,4700139.0
1574255083569,4737732.0
1574255083617,4774660.0
1574255083664,4768167.0
1574255083715,4752208.0
1574255083765,4711628.0
1574255083812,4715431.0
1574255083862,4658041.0
1574255083908,4682215.0
1574255083958,4734561.0
1574255084010,4789916.0
1574255084057,4833244.0
1574255084104,4833899.0
1574255084154,4760470.0
1574255084204,4760573.0
1574255084251,4753152.0
1574255084297,4728369.0
1574255084347,4728840.0
1574255084399,4728908.0
1574255084449,4719762.0
1574255084497,4719900.0
1574255084545,4694325.0
1574255084595,4679343.0
1574255084643,4660155.0
1574255084688,4657352.0
1574255084741,4630294.0
1574255084791,4636727.0
1574255084841,4631764.0
1574255084893,4603914.0
1574255084937,4580544.0
1574255084986,4557289.0
1574255085036,4529026.0
1574255085084,4523476.0
1574255085132,4537907.0
1574255085182,4543124.0
1574255085230,4547443.0
1574255085276,4562758.0
1574255085328,4593044.0
1574255085375,4594033.0
1574255085422,4578442.0
1574255085474,4570836.0
1574255085520,4579695.0
1574255085574,4585220.0
1574255085623,4583979.0
1574255085669,4580855.0
1574255085721,4582003.0
1574255085774,4571916.0
1574255085818,4587784.0
1574255085867,4622538.0
1574255085917,4650987.0
1574255085964,4674574.0
1574255086010,4673587.0
1574255086056,4682846.0
1574255086106,4668232.0
1574255086161,4645367.0
1574255086212,4630649.0
1574255086259,4622905.0
1574255086305,4608464.0
1574255086357,4596847.0
1574255086405,4584829.0
1574255086455,4569445.0
1574255086503,4537389.0
1574255086549,4529831.0
1574255086601,4529383.0
1574255086651,4541217.0
1574255086695,4540424.0
1574255086741,4552280.0
1574255086794,4554072.0
1574255086841,4501945.0
1574255086891,4458192.0
1574255086938,4464260.0
1574255086990,4459790.0
1574255087042,4454988.0
1574255087093,4470486.0
1574255087141,4475427.0
1574255087188,4449806.0
1574255087238,4456745.0
1574255087287,4460238.0
1574255087337,4450541.0
1574255087383,4455975.0
1574255087428,4458124.0
1574255087482,4453541.0
1574255087534,4438466.0
1574255087580,4433168.0
1574255087629,4414740.0
1574255087679,4427332.0
1574255087727,4424976.0
1574255087776,4424379.0
1574255087825,4410626.0
1574255087876,4403825.0
1574255087923,4369436.0
1574255087969,4347561.0
1574255088021,4333382.0
1574255088070,4339668.0
1574255088119,4366909.0
1574255088168,4370436.0
1574255088218,4395897.0
1574255088266,4397931.0
1574255088316,4368450.0
1574255088364,4340886.0
1574255088413,4349272.0
1574255088463,4376468.0
1574255088511,4398241.0
1574255088560,4368978.0
1574255088608,4411833.0
1574255088659,4436087.0
1574255088705,4411856.0
1574255088752,4402642.0
1574255088805,4411901.0
1574255088854,4423529.0
1574255088903,4429124.0
1574255088956,4451173.0
1574255089002,4446990.0
1574255089049,4405559.0
1574255089100,4391463.0
1574255089146,4413062.0
1574255089197,4418440.0
1574255089241,4433203.0
1574255089292,4435443.0
1574255089344,4437363.0
1574255089393,4435191.0
1574255089442,4416590.0
1574255089490,4406294.0
1574255089534,4428492.0
1574255089588,4453677.0
1574255089634,4464099.0
1574255089682,4480344.0
1574255089734,4530450.0
1574255089783,4504737.0
1574255089835,4507185.0
1574255089882,4493580.0
1574255089931,4524797.0
1574255089981,4541572.0
1574255090028,4505886.0
1574255090073,4531829.0
1574255090126,4554646.0
1574255090174,4531094.0
1574255090224,4525107.0
1574255090276,4532944.0
1574255090322,4546328.0
1574255090371,4555784.0
1574255090421,4576421.0
1574255090470,4613266.0
1574255090516,4638280.0
1574255090567,4636131.0
1574255090614,4638786.0
1574255090665,4648309.0
1574255090714,4660110.0
1574255090758,4632879.0
1574255090812,4656030.0
1574255090862,4690568.0
1574255090909,4671977.0
1574255090960,4637004.0
1574255091008,4638486.0
1574255091056,4641323.0
1574255091106,4649240.0
1574255091157,4648827.0
1574255091204,4672794.0
1574255091254,4692878.0
1574255091298,4670013.0
1574255091350,4648896.0
1574255091401,4648609.0
1574255091448,4658386.0
1574255091494,4673149.0
1574255091541,4660994.0
1574255091593,4649769.0
1574255091638,4654203.0
1574255091690,4608924.0
1574255091737,4595216.0
1574255091787,4620665.0
1574255091838,4633901.0
1574255091886,4635142.0
1574255091937,4623366.0
1574255091986,4609705.0
1574255092036,4586462.0
1574255092085,4579154.0
1574255092136,4585451.0
1574255092183,4578374.0
1574255092232,4579511.0
1574255092282,4592551.0
1574255092330,4618609.0
1574255092376,4653066.0
1574255092429,4629650.0
1574255092478,4639382.0
1574255092526,4647574.0
1574255092576,4684686.0
1574255092624,4696829.0
1574255092673,4682595.0
1574255092723,4678286.0
1574255092765,4629157.0
1574255092816,4549442.0
1574255092869,4500544.0
1574255092918,4593792.0
1574255092966,4575500.0
1574255093018,4582763.0
1574255093065,4538252.0
1574255093114,4510953.0
1574255093161,4458262.0
1574255093211,4436203.0
1574255093255,4456699.0
1574255093305,4448369.0
1574255093361,4441889.0
1574255093407,4471888.0
1574255093460,4510022.0
1574255093505,4475507.0
1574255093555,4393944.0
1574255093598,4364380.0
1574255093653,4386774.0
1574255093696,4397873.0
1574255093750,4394380.0
1574255093802,4402204.0
1574255093847,4388981.0
1574255093897,4361129.0
1574255093939,4336243.0
1574255093996,4329327.0
1574255094042,4347709.0
1574255094093,4366542.0
1574255094136,4384728.0
1574255094192,4403503.0
1574255094241,4428067.0
1574255094290,4464856.0
1574255094340,4439535.0
1574255094382,4421115.0
1574255094437,4423126.0
1574255094485,4433996.0
1574255094534,4442246.0
1574255094581,4419140.0
1574255094632,4406951.0
1574255094678,4386394.0
1574255094731,4359326.0
1574255094778,4364622.0
1574255094828,4382523.0
1574255094877,4388956.0
1574255094925,4381167.0
1574255094974,4418014.0
1574255095022,4419474.0
1574255095073,4382707.0
1574255095116,4377387.0
1574255095171,4400976.0
1574255095222,4416326.0
1574255095268,4440487.0
1574255095317,4422942.0
1574255095360,4393587.0
1574255095410,4382053.0
1574255095458,4373848.0
1574255095514,4379823.0
1574255095560,4392485.0
1574255095612,4393967.0
1574255095657,4400538.0
1574255095709,4402906.0
1574255095762,4389807.0
1574255095807,4372539.0
1574255095857,4377009.0
1574255095905,4391060.0
1574255095955,4408121.0
1574255096003,4404731.0
1574255096052,4426642.0
1574255096099,4464295.0
1574255096150,4455527.0
1574255096200,4468407.0
1574255096247,4502980.0
1574255096297,4521191.0
1574255096346,4514343.0
1574255096397,4465385.0
1574255096437,4452552.0
1574255096494,4420554.0
1574255096544,4422874.0
1574255096591,4435617.0
1574255096643,4437157.0
1574255096689,4454563.0
1574255096733,4471843.0
1574255096780,4398092.0
1574255096834,4411086.0
1574255096882,4371621.0
1574255096931,4491340.0
1574255096980,4543973.0
1574255097028,4617011.0
1574255097083,4625457.0
1574255097130,4592045.0
1574255097180,4590356.0
1574255097228,4596963.0
1574255097276,4582682.0
1574255097325,4596331.0
1574255097376,4600869.0
1574255097419,4587059.0
1574255097473,4588564.0
1574255097523,4554027.0
1574255097570,4576076.0
1574255097621,4544295.0
1574255097668,4502784.0
1574255097719,4547098.0
1574255097766,4557611.0
1574255097817,4554440.0
1574255097862,4541698.0
1574255097914,4580407.0
1574255097964,4603121.0
1574255098011,4569950.0
1574255098064,4551545.0
1574255098109,4553476.0
1574255098159,4554256.0
