time,value,value2,value3
1586176454664,6774754.0,6780359.0,0.0
1586176454706,6733809.0,6713767.0,0.0
1586176454754,6729563.0,6687150.0,0.0
1586176454807,6688041.0,6632423.0,0.0
1586176454853,6717959.0,6630902.0,0.0
1586176454899,6764644.0,6653614.0,0.0
1586176454949,6731027.0,6562956.0,0.0
1586176454998,6654395.0,6469912.0,0.0
1586176455047,6546761.0,6376608.0,0.0
1586176455094,6450692.0,6308125.0,0.0
1586176455150,6368704.0,6216000.0,0.0
1586176455192,6291234.0,6152984.0,0.0
1586176455241,6139244.0,6041954.0,0.0
1586176455290,6042668.0,5942006.0,0.0
1586176455340,5933267.0,5853907.0,0.0
1586176455389,5905526.0,5795017.0,0.0
1586176455436,5942075.0,5783741.0,0.0
1586176455487,6054503.0,5831443.0,0.0
1586176455533,6058023.0,5851648.0,0.0
1586176455580,6049324.0,5826510.0,0.0
1586176455627,6097065.0,5840593.0,0.0
1586176455676,6202589.0,5850060.0,0.0
1586176455725,6139478.0,5747357.0,0.0
1586176455775,5996418.0,5582121.0,0.0
1586176455826,5789892.0,5407308.0,0.0
1586176455871,5686328.0,5384608.0,0.0
1586176455919,5630656.0,5364416.0,0.0
1586176455970,5533558.0,5283524.0,0.0
1586176456020,5525174.0,5250262.0,0.0
1586176456068,5514584.0,5245440.0,0.0
1586176456121,5439008.0,5210616.0,0.0
1586176456170,5412514.0,5207891.0,0.0
1586176456213,5373553.0,5198151.0,0.0
1586176456266,5326552.0,5165179.0,0.0
1586176456317,5276056.0,5135424.0,0.0
1586176456360,5277208.0,5129986.0,0.0
1586176456413,5355032.0,5197782.0,0.0
1586176456460,5313169.0,5190247.0,0.0
1586176456510,5318813.0,5238112.0,0.0
1586176456559,5267330.0,5245440.0,0.0
1586176456612,5263702.0,5255042.0,0.0
1586176456654,5331731.0,5265700.0,0.0
1586176456699,5241961.0,5218343.0,0.0
1586176456748,5191588.0,5193028.0,0.0
1586176456801,5171465.0,5157533.0,0.0
1586176456853,5189479.0,5141833.0,0.0
1586176456898,5189494.0,5123436.0,0.0
1586176456945,5124711.0,5077833.0,0.0
1586176456995,5128258.0,5078683.0,0.0
1586176457043,5126052.0,5071832.0,0.0
1586176457090,5075490.0,5067820.0,0.0
1586176457141,5024064.0,5050998.0,0.0
1586176457184,5070818.0,5078587.0,0.0
1586176457238,5024777.0,5038092.0,0.0
1586176457286,4985213.0,5000640.0,0.0
1586176457330,4951638.0,4970968.0,0.0
1586176457383,4956406.0,4968844.0,0.0
1586176457431,4988694.0,4985831.0,0.0
1586176457481,4958734.0,4944979.0,0.0
1586176457528,4924034.0,4903197.0,0.0
1586176457578,4873649.0,4876800.0,0.0
1586176457629,4913555.0,4914939.0,0.0
1586176457670,4921856.0,4919389.0,0.0
1586176457723,4863212.0,4907992.0,0.0
1586176457770,4829565.0,4906185.0,0.0
1586176457821,4941075.0,4950267.0,0.0
1586176457869,4820443.0,4867497.0,0.0
1586176457913,4820017.0,4872196.0,0.0
1586176457966,4814825.0,4879650.0,0.0
1586176458010,4835360.0,4882786.0,0.0
1586176458064,4874936.0,4884457.0,0.0
1586176458112,4822471.0,4833895.0,0.0
1586176458163,4796743.0,4826306.0,0.0
1586176458205,4751714.0,4826729.0,0.0
1586176458254,4771456.0,4843032.0,0.0
1586176458301,4758262.0,4823963.0,0.0
1586176458352,4673548.0,4916157.0,0.0
1586176458401,4651904.0,4946926.0,0.0
1586176458450,4752743.0,4959926.0,0.0
1586176458497,4758948.0,4992817.0,0.0
1586176458549,4764782.0,5007352.0,0.0
1586176458615,4764935.0,5028681.0,0.0
1586176458647,4792140.0,5043121.0,0.0
1586176458695,4851278.0,5055271.0,0.0
1586176458743,4862279.0,5029105.0,0.0
1586176458795,4799374.0,4971569.0,0.0
1586176458843,4779318.0,4971776.0,0.0
1586176458889,4697412.0,5019817.0,0.0
1586176458940,4672548.0,5035901.0,0.0
1586176458986,4668548.0,5072696.0,0.0
1586176459031,4636054.0,5093257.0,0.0
1586176459086,4649944.0,5110040.0,0.0
1586176459139,4672329.0,5113683.0,0.0
1586176459176,4690328.0,5113011.0,0.0
1586176459229,4672768.0,5076519.0,0.0
1586176459274,4595382.0,4987131.0,0.0
1586176459319,4544420.0,4935680.0,0.0
1586176459369,4522722.0,4915692.0,0.0
1586176459417,4528105.0,4909568.0,0.0
1586176459470,4532915.0,4900580.0,0.0
1586176459516,4529831.0,4907047.0,0.0
1586176459568,4529516.0,4900526.0,0.0
1586176459620,4522365.0,4890759.0,0.0
1586176459669,4522338.0,4884827.0,0.0
1586176459710,4525612.0,4878732.0,0.0
1586176459756,4473036.0,4824785.0,0.0
1586176459811,4409828.0,4759264.0,0.0
1586176459855,4386870.0,4731603.0,0.0
1586176459903,4376322.0,4716194.0,0.0
1586176459956,4160288.0,4712356.0,0.0
1586176460005,4107759.0,4715030.0,0.0
1586176460053,4106997.0,4710781.0,0.0
1586176460099,4109868.0,4705110.0,0.0
1586176460151,4119424.0,4692809.0,0.0
1586176460202,4133091.0,4692726.0,0.0
1586176460244,4112528.0,4658574.0,0.0
1586176460293,4059483.0,4580738.0,0.0
1586176460346,4031378.0,4514983.0,0.0
1586176460393,4010563.0,4476967.0,0.0
1586176460444,3995710.0,4471035.0,0.0
1586176460491,4003955.0,4468967.0,0.0
1586176460539,3995489.0,4458212.0,0.0
1586176460594,3988486.0,4450254.0,0.0
1586176460640,3991539.0,4453651.0,0.0
1586176460687,3995605.0,4469297.0,0.0
1586176460738,3991117.0,4476871.0,0.0
1586176460783,3931081.0,4432952.0,0.0
1586176460831,3869407.0,4396472.0,0.0
1586176460880,3855585.0,4386870.0,0.0
1586176460929,3862211.0,4189981.0,0.0
1586176460976,3870311.0,4160465.0,0.0
1586176461025,3867615.0,4175819.0,0.0
1586176461076,3869387.0,4187416.0,0.0
1586176461126,3895586.0,4191739.0,0.0
1586176461172,3899727.0,4201102.0,0.0
1586176461216,3904004.0,4230229.0,0.0
1586176461268,3877920.0,4222967.0,0.0
1586176461313,3837813.0,4183265.0,0.0
1586176461364,3821141.0,4158577.0,0.0
1586176461413,3809428.0,4166052.0,0.0
1586176461463,3844624.0,4177649.0,0.0
1586176461510,3900296.0,4184777.0,0.0
1586176461556,3901220.0,4172785.0,0.0
1586176461604,3902000.0,4170270.0,0.0
1586176461657,3893390.0,4175530.0,0.0
1586176461701,3897793.0,4189911.0,0.0
1586176461747,3896183.0,4185827.0,0.0
1586176461802,3834847.0,4140999.0,0.0
1586176461850,3810602.0,4108501.0,0.0
1586176461901,3810757.0,4108259.0,0.0
1586176461947,3835782.0,4127764.0,0.0
1586176461998,3868019.0,4166881.0,0.0
1586176462044,3879578.0,4193377.0,0.0
1586176462099,3902886.0,4248608.0,0.0
1586176462140,3926032.0,4339090.0,0.0
1586176462185,3968249.0,4398742.0,0.0
1586176462240,4075385.0,4454030.0,0.0
1586176462286,4079018.0,4344445.0,0.0
1586176462340,4090701.0,4326308.0,0.0
1586176462384,4086916.0,4303433.0,0.0
1586176462434,4063337.0,4292904.0,0.0
1586176462484,4027958.0,4324681.0,0.0
1586176462530,3994689.0,4373804.0,0.0
1586176462576,4006700.0,4439986.0,0.0
1586176462629,4024405.0,4464682.0,0.0
1586176462679,4100179.0,4557659.0,0.0
1586176462724,4118509.0,4570788.0,0.0
1586176462773,4210755.0,4581353.0,0.0
1586176462822,4223305.0,4601870.0,0.0
1586176462869,4224672.0,4605598.0,0.0
1586176462916,4249782.0,4611531.0,0.0
1586176462966,4274671.0,4582231.0,0.0
1586176463015,4314162.0,4612339.0,0.0
1586176463057,4363121.0,4612321.0,0.0
1586176463107,4358257.0,4596004.0,0.0
1586176463159,4353635.0,4599645.0,0.0
1586176463204,4372272.0,4605222.0,0.0
1586176463259,4401428.0,4620692.0,0.0
1586176463306,4456129.0,4634888.0,0.0
1586176463355,4508661.0,4647082.0,0.0
1586176463405,4549193.0,4659653.0,0.0
1586176463452,4583820.0,4663968.0,0.0
1586176463499,4527867.0,4652399.0,0.0
1586176463548,4538242.0,4710741.0,0.0
1586176463605,4612110.0,4768377.0,0.0
1586176463641,4705617.0,4800077.0,0.0
1586176463695,4829878.0,4805973.0,0.0
1586176463741,4921132.0,4798025.0,0.0
1586176463792,5016931.0,4837546.0,0.0
1586176463842,5081195.0,4886899.0,0.0
1586176463887,5121978.0,4914793.0,0.0
1586176463942,5157394.0,4932382.0,0.0
1586176463985,5174838.0,4941098.0,0.0
1586176464034,5192899.0,4947957.0,0.0
1586176464080,5198726.0,4943459.0,0.0
1586176464133,5204823.0,4933625.0,0.0
1586176464179,5189170.0,4919291.0,0.0
1586176464221,5206584.0,4971863.0,0.0
1586176464278,5253128.0,5014735.0,0.0
1586176464326,5283584.0,5036070.0,0.0
1586176464369,5441942.0,5233940.0,0.0
1586176464418,5484641.0,5168770.0,0.0
1586176464471,5383986.0,5052176.0,0.0
1586176464519,5313558.0,4967143.0,0.0
1586176464567,5267586.0,4968126.0,0.0
1586176464619,5235858.0,4979945.0,0.0
1586176464670,5230453.0,4999710.0,0.0
1586176464714,5230809.0,4997349.0,0.0
1586176464760,5252463.0,4989683.0,0.0
1586176464809,5227400.0,4950548.0,0.0
1586176464857,5242396.0,4946358.0,0.0
1586176464906,5387079.0,5029241.0,0.0
1586176464950,5419270.0,5057637.0,0.0
1586176465002,5355534.0,5001173.0,0.0
1586176465052,5342791.0,4986985.0,0.0
1586176465107,5346519.0,4979405.0,0.0
1586176465150,5382495.0,4987361.0,0.0
1586176465199,5480086.0,5063724.0,0.0
1586176465242,5551565.0,5097734.0,0.0
1586176465295,5549868.0,5084944.0,0.0
1586176465341,5504290.0,5046213.0,0.0
1586176465391,5418374.0,4983411.0,0.0
1586176465444,5348551.0,4935310.0,0.0
1586176465488,5289323.0,4895991.0,0.0
1586176465538,5250295.0,4873059.0,0.0
1586176465588,5221900.0,4862214.0,0.0
1586176465636,5200855.0,4860586.0,0.0
1586176465678,5186078.0,4865141.0,0.0
1586176465727,5190337.0,4866383.0,0.0
1586176465782,5127602.0,4817156.0,0.0
1586176465828,5042072.0,4734984.0,0.0
1586176465877,4973261.0,4682538.0,0.0
1586176465925,4927806.0,4649376.0,0.0
1586176465974,4893815.0,4633252.0,0.0
1586176466024,4865229.0,4618207.0,0.0
1586176466065,4831611.0,4606291.0,0.0
1586176466114,4802688.0,4584754.0,0.0
1586176466172,4780302.0,4575276.0,0.0
1586176466216,4766250.0,4568342.0,0.0
1586176466260,4742448.0,4548500.0,0.0
1586176466313,4665539.0,4475422.0,0.0
1586176466362,4595610.0,4408220.0,0.0
1586176466409,4552458.0,4371675.0,0.0
1586176466459,4525758.0,4359356.0,0.0
1586176466506,4506812.0,4353982.0,0.0
1586176466551,4497844.0,4350293.0,0.0
1586176466601,4479882.0,4334149.0,0.0
1586176466652,4450052.0,4320028.0,0.0
1586176466700,4434899.0,4314116.0,0.0
1586176466746,4421627.0,4313094.0,0.0
1586176466796,4397267.0,4288802.0,0.0
1586176466841,4321619.0,4215078.0,0.0
1586176466895,4261851.0,4163596.0,0.0
1586176466940,4235633.0,4143705.0,0.0
1586176466992,4224991.0,4142327.0,0.0
1586176467045,4216167.0,4142839.0,0.0
1586176467093,4201189.0,4142675.0,0.0
1586176467139,4185884.0,4124643.0,0.0
1586176467181,4171264.0,4128256.0,0.0
1586176467235,4171003.0,4125647.0,0.0
1586176467281,4170087.0,4134662.0,0.0
1586176467332,4140277.0,4110398.0,0.0
1586176467380,4067797.0,4041211.0,0.0
1586176467429,4023277.0,3998705.0,0.0
1586176467477,4009955.0,3995605.0,0.0
1586176467526,4014878.0,4007019.0,0.0
1586176467575,4018933.0,4015051.0,0.0
1586176467625,4012923.0,4014724.0,0.0
1586176467668,4007740.0,4016178.0,0.0
1586176467718,4013346.0,4027977.0,0.0
1586176467763,4011353.0,4040624.0,0.0
1586176467813,4006180.0,4049631.0,0.0
1586176467861,3939681.0,3995826.0,0.0
1586176467915,3855979.0,3934943.0,0.0
1586176467960,3819532.0,3905739.0,0.0
1586176468011,3816836.0,3900836.0,0.0
1586176468061,3823173.0,3911460.0,0.0
1586176468109,3828884.0,3913337.0,0.0
1586176468164,3825137.0,3913809.0,0.0
1586176468200,3821622.0,3915851.0,0.0
1586176468254,3826023.0,3924502.0,0.0
1586176468306,3838017.0,3936985.0,0.0
1586176468350,3838352.0,3942263.0,0.0
1586176468399,3781833.0,3881417.0,0.0
1586176468448,3728085.0,3823731.0,0.0
1586176468497,3704151.0,3807512.0,0.0
1586176468544,3704257.0,3813117.0,0.0
1586176468606,3713060.0,3829193.0,0.0
1586176468644,3721469.0,3836407.0,0.0
1586176468691,3718462.0,3836127.0,0.0
1586176468740,3718954.0,3846164.0,0.0
1586176468786,3732758.0,3861873.0,0.0
1586176468837,3749863.0,3879153.0,0.0
1586176468887,3748563.0,3879472.0,0.0
1586176468933,3696532.0,3819001.0,0.0
1586176468983,3653225.0,3778828.0,0.0
1586176469030,3642380.0,3770957.0,0.0
1586176469079,3649999.0,3777373.0,0.0
1586176469124,3664765.0,3798861.0,0.0
1586176469176,3677344.0,3812183.0,0.0
1586176469224,3684608.0,3817616.0,0.0
1586176469272,3691995.0,3827468.0,0.0
1586176469322,3704949.0,3846174.0,0.0
1586176469370,3729848.0,3869927.0,0.0
1586176469419,3730446.0,3867556.0,0.0
1586176469461,3678366.0,3813156.0,0.0
1586176469512,3643160.0,3784068.0,0.0
1586176469565,3640598.0,3783682.0,0.0
1586176469612,3649489.0,3799527.0,0.0
1586176469661,3663859.0,3813839.0,0.0
1586176469710,3674359.0,3828278.0,0.0
1586176469759,3679378.0,3836302.0,0.0
1586176469804,3688143.0,3847657.0,0.0
1586176469854,3711433.0,3868444.0,0.0
1586176469899,3732660.0,3894469.0,0.0
1586176469947,3727104.0,3887437.0,0.0
1586176470001,3676180.0,3839451.0,0.0
1586176470044,3646012.0,3827189.0,0.0
1586176470102,3653784.0,3846800.0,0.0
1586176470147,3678894.0,3871526.0,0.0
1586176470189,3696262.0,3891214.0,0.0
1586176470243,3707627.0,3902955.0,0.0
1586176470291,3715823.0,3910227.0,0.0
1586176470339,3730165.0,3918289.0,0.0
1586176470384,3751444.0,3937649.0,0.0
1586176470438,3770148.0,3959909.0,0.0
1586176470489,3756501.0,3943870.0,0.0
1586176470530,3714072.0,3905497.0,0.0
1586176470585,3698736.0,3890356.0,0.0
1586176470626,3703273.0,3909946.0,0.0
1586176470681,3718627.0,3946626.0,0.0
1586176470724,3727961.0,3985741.0,0.0
1586176470777,3732565.0,4017324.0,0.0
1586176470826,3737882.0,4056460.0,0.0
1586176470875,3764012.0,4096816.0,0.0
1586176470922,3786264.0,4148705.0,0.0
1586176470968,3829048.0,4207469.0,0.0
1586176471020,3842474.0,4198493.0,0.0
1586176471063,3819704.0,4162131.0,0.0
1586176471116,3802059.0,4151478.0,0.0
1586176471169,3800634.0,4151064.0,0.0
1586176471214,3809562.0,4154658.0,0.0
1586176471264,3815100.0,4150255.0,0.0
1586176471312,3815669.0,4142695.0,0.0
1586176471361,3815381.0,4145517.0,0.0
1586176471406,3833238.0,4150901.0,0.0
1586176471457,3850363.0,4163586.0,0.0
1586176471508,3853842.0,4162612.0,0.0
1586176471554,3808812.0,4108732.0,0.0
1586176471598,3771873.0,4077630.0,0.0
1586176471648,3760585.0,4066842.0,0.0
1586176471694,3766036.0,4074520.0,0.0
1586176471747,3774368.0,4086578.0,0.0
1586176471794,3780311.0,4094293.0,0.0
1586176471842,3785790.0,4095410.0,0.0
1586176471891,3793082.0,4105650.0,0.0
1586176471943,3802888.0,4122274.0,0.0
1586176471987,3825861.0,4141452.0,0.0
1586176472040,3822199.0,4130848.0,0.0
1586176472088,3775841.0,4084441.0,0.0
1586176472139,3744306.0,4056931.0,0.0
1586176472185,3739942.0,4052018.0,0.0
1586176472230,3746696.0,4063528.0,0.0
1586176472283,3758860.0,4076243.0,0.0
1586176472331,3767808.0,4085229.0,0.0
1586176472380,3767413.0,4091463.0,0.0
1586176472427,3779472.0,4108135.0,0.0
1586176472657,3798977.0,4118700.0,0.0
1586176472657,3818762.0,4136964.0,0.0
1586176472657,3811480.0,4125039.0,0.0
1586176472657,3762858.0,4074953.0,0.0
1586176472706,3736582.0,4054176.0,0.0
1586176472724,3734347.0,4053241.0,0.0
1586176472804,3747195.0,4055814.0,0.0
1586176472820,3762202.0,4066909.0,0.0
1586176472865,3769725.0,4072699.0,0.0
1586176472915,3775465.0,4075261.0,0.0
1586176472958,3780368.0,4088862.0,0.0
1586176473012,3798611.0,4099090.0,0.0
1586176473060,3815881.0,4115579.0,0.0
1586176473109,3790809.0,4090932.0,0.0
1586176473162,3740395.0,4043148.0,0.0
1586176473206,3719763.0,4021928.0,0.0
1586176473254,3716402.0,4023547.0,0.0
1586176473304,3727266.0,4029943.0,0.0
1586176473570,3739115.0,4043802.0,0.0
1586176473571,3747273.0,4052173.0,0.0
1586176473571,3753272.0,4061998.0,0.0
1586176473571,3762222.0,4071842.0,0.0
1586176473572,3779569.0,4094833.0,0.0
1586176473654,3794931.0,4110427.0,0.0
1586176473654,3771834.0,4088159.0,0.0
1586176473750,3732959.0,4042733.0,0.0
1586176473752,3724917.0,4026042.0,0.0
1586176473787,3741098.0,4026715.0,0.0
1586176473837,3782353.0,4035096.0,0.0
1586176473885,3834644.0,4051325.0,0.0
1586176473932,3900952.0,4075983.0,0.0
1586176473982,3977939.0,4103387.0,0.0
1586176474030,4080664.0,4141269.0,0.0
1586176474074,4173612.0,4186164.0,0.0
1586176474125,4259155.0,4230788.0,0.0
1586176474178,4348261.0,4238455.0,0.0
1586176474224,4411119.0,4206612.0,0.0
1586176474271,4422204.0,4180404.0,0.0
1586176474323,4408730.0,4174750.0,0.0
1586176474371,4402787.0,4181231.0,0.0
1586176474419,4369345.0,4183688.0,0.0
1586176474466,4327127.0,4171387.0,0.0
1586176474511,4283245.0,4158943.0,0.0
1586176474563,4257767.0,4159723.0,0.0
1586176474610,4242511.0,4163606.0,0.0
1586176474664,4237917.0,4176648.0,0.0
1586176474714,4209954.0,4161968.0,0.0
1586176474755,4154079.0,4118769.0,0.0
1586176474806,4111794.0,4097231.0,0.0
1586176474855,4094882.0,4100681.0,0.0
1586176474903,4094978.0,4110080.0,0.0
1586176474951,4101315.0,4120358.0,0.0
1586176474999,4104003.0,4125992.0,0.0
1586176475049,4104649.0,4126811.0,0.0
1586176475102,4103665.0,4137195.0,0.0
1586176475148,4112199.0,4146874.0,0.0
1586176475195,4121803.0,4159126.0,0.0
1586176475243,4115504.0,4159695.0,0.0
1586176475291,4072102.0,4108413.0,0.0
1586176475341,4043928.0,4080327.0,0.0
1586176475390,4040259.0,4078959.0,0.0
1586176475440,4044814.0,4093696.0,0.0
1586176475486,4059099.0,4104023.0,0.0
1586176475533,4063085.0,4110051.0,0.0
1586176475587,4068778.0,4116341.0,0.0
1586176475636,4076531.0,4126917.0,0.0
1586176475682,4094102.0,4139304.0,0.0
1586176475728,4109850.0,4155938.0,0.0
1586176475778,4128997.0,4172090.0,0.0
1586176475825,4109559.0,4144678.0,0.0
1586176475869,4075194.0,4101644.0,0.0
1586176475919,4063154.0,4089748.0,0.0
1586176475973,4064800.0,4093147.0,0.0
1586176476019,4079557.0,4110610.0,0.0
1586176476069,4097627.0,4119529.0,0.0
1586176476112,4106768.0,4129267.0,0.0
1586176476166,4115937.0,4133593.0,0.0
1586176476210,4130037.0,4146692.0,0.0
1586176476262,4149784.0,4166621.0,0.0
1586176476311,4167669.0,4181550.0,0.0
1586176476359,4183342.0,4196536.0,0.0
1586176476407,4156198.0,4160369.0,0.0
1586176476458,4123381.0,4126464.0,0.0
1586176476504,4122266.0,4118991.0,0.0
1586176476554,4134912.0,4133534.0,0.0
1586176476606,4152866.0,4152567.0,0.0
1586176476653,4167767.0,4166330.0,0.0
1586176476699,4175211.0,4174230.0,0.0
1586176476747,4183005.0,4183448.0,0.0
1586176476793,4191778.0,4195594.0,0.0
1586176476840,4203656.0,4215397.0,0.0
1586176476894,4221013.0,4233321.0,0.0
1586176476943,4236231.0,4243561.0,0.0
1586176476990,4215974.0,4210860.0,0.0
1586176477039,4195594.0,4180191.0,0.0
1586176477090,4195939.0,4181857.0,0.0
1586176477134,4208674.0,4194476.0,0.0
1586176477180,4224826.0,4215253.0,0.0
1586176477231,4234835.0,4228534.0,0.0
1586176477281,4243108.0,4230664.0,0.0
1586176477330,4249388.0,4240469.0,0.0
1586176477380,4260666.0,4255823.0,0.0
1586176477427,4277820.0,4273294.0,0.0
1586176477475,4294879.0,4292935.0,0.0
1586176477518,4301998.0,4299022.0,0.0
1586176477571,4277560.0,4253395.0,0.0
1586176477617,4254927.0,4219509.0,0.0
1586176477666,4256449.0,4212284.0,0.0
1586176477716,4250496.0,4231732.0,0.0
1586176477761,4230664.0,4283658.0,0.0
1586176477810,4229634.0,4343328.0,0.0
1586176477859,4277148.0,4369123.0,0.0
1586176477908,4311927.0,4348231.0,0.0
1586176477957,4345130.0,4323516.0,0.0
1586176478009,4364789.0,4329632.0,0.0
1586176478056,4380826.0,4344600.0,0.0
1586176478109,4392287.0,4351073.0,0.0
1586176478153,4358239.0,4303876.0,0.0
1586176478203,4324701.0,4250851.0,0.0
1586176478251,4306775.0,4234073.0,0.0
1586176478301,4306968.0,4234910.0,0.0
1586176478348,4313933.0,4243724.0,0.0
1586176478391,4328023.0,4243098.0,0.0
1586176478445,4332328.0,4242086.0,0.0
1586176478498,4342692.0,4237377.0,0.0
1586176478542,4348346.0,4243041.0,0.0
1586176478591,4360636.0,4251623.0,0.0
1586176478641,4374489.0,4264809.0,0.0
1586176478688,4391738.0,4275009.0,0.0
1586176478736,4377898.0,4246865.0,0.0
1586176478785,4333253.0,4188639.0,0.0
1586176478835,4314000.0,4153289.0,0.0
1586176478883,4308134.0,4146692.0,0.0
1586176478926,4316533.0,4153829.0,0.0
1586176478980,4322108.0,4161312.0,0.0
1586176479027,4325510.0,4162468.0,0.0
1586176479075,4324575.0,4163374.0,0.0
1586176479129,4332088.0,4169953.0,0.0
1586176479176,4337877.0,4177765.0,0.0
1586176479216,4350841.0,4190671.0,0.0
1586176479269,4366850.0,4203550.0,0.0
1586176479321,4374863.0,4214617.0,0.0
1586176479366,4339013.0,4166842.0,0.0
1586176479415,4299735.0,4116341.0,0.0
1586176479464,4284680.0,4102009.0,0.0
1586176479513,4281327.0,4107885.0,0.0
1586176479560,4287916.0,4118808.0,0.0
1586176479611,4291614.0,4123641.0,0.0
1586176479657,4292896.0,4121061.0,0.0
1586176479706,4291547.0,4124259.0,0.0
1586176479751,4291557.0,4130269.0,0.0
1586176479803,4273958.0,4147655.0,0.0
1586176479853,4256958.0,4172487.0,0.0
1586176479897,4251863.0,4207806.0,0.0
1586176479949,4230133.0,4197182.0,0.0
1586176479998,4187377.0,4146673.0,0.0
1586176480043,4157316.0,4127187.0,0.0
1586176480099,4155745.0,4127457.0,0.0
1586176480139,4157769.0,4144361.0,0.0
1586176480187,4166456.0,4162151.0,0.0
1586176480236,4164762.0,4161438.0,0.0
1586176480288,4159752.0,4154599.0,0.0
1586176480339,4162084.0,4166582.0,0.0
1586176480385,4176676.0,4173334.0,0.0
1586176480434,4191018.0,4186144.0,0.0
1586176480483,4207335.0,4206053.0,0.0
1586176480532,4215253.0,4222697.0,0.0
1586176480577,4181540.0,4183389.0,0.0
1586176480631,4136626.0,4139969.0,0.0
1586176480676,4122302.0,4119828.0,0.0
1586176480725,4118471.0,4123556.0,0.0
1586176480773,4125791.0,4132110.0,0.0
1586176480821,4137772.0,4133449.0,0.0
1586176480871,4133776.0,4134064.0,0.0
1586176480915,4133333.0,4126811.0,0.0
1586176480961,4139901.0,4129056.0,0.0
1586176481011,4146287.0,4135789.0,0.0
1586176481060,4158858.0,4145777.0,0.0
1586176481115,4170406.0,4160004.0,0.0
1586176481160,4180634.0,4168565.0,0.0
1586176481209,4146403.0,4128564.0,0.0
1586176481261,4106325.0,4083900.0,0.0
1586176481307,4084547.0,4074770.0,0.0
1586176481355,4088901.0,4080087.0,0.0
1586176481404,4098474.0,4094236.0,0.0
1586176481629,4109253.0,4100496.0,0.0
1586176481631,4110553.0,4095026.0,0.0
1586176481631,4108838.0,4093889.0,0.0
1586176481631,4116331.0,4098647.0,0.0
1586176481690,4124509.0,4108684.0,0.0
1586176481699,4136240.0,4123700.0,0.0
1586176481786,4151151.0,4138148.0,0.0
1586176481801,4163047.0,4147963.0,0.0
1586176481837,4140700.0,4116475.0,0.0
1586176481887,4101981.0,4072911.0,0.0
1586176481938,4085018.0,4051122.0,0.0
1586176481985,4085837.0,4056537.0,0.0
1586176482034,4101768.0,4072872.0,0.0
1586176482087,4111650.0,4084238.0,0.0
1586176482132,4109858.0,4082100.0,0.0
1586176482179,4109137.0,4080453.0,0.0
1586176482227,4112353.0,4084142.0,0.0
1586176482280,4123855.0,4094823.0,0.0
1586176482321,4133091.0,4111323.0,0.0
1586176482374,4150062.0,4126695.0,0.0
1586176482421,4156247.0,4131049.0,0.0
1586176482471,4122091.0,4083370.0,0.0
1586176482519,4086030.0,4039159.0,0.0
1586176482567,4075645.0,4026272.0,0.0
1586176482618,4079817.0,4034056.0,0.0
1586176482659,4090817.0,4045854.0,0.0
1586176482732,4099968.0,4049139.0,0.0
1586176482782,4097019.0,4047520.0,0.0
1586176482811,4100169.0,4047780.0,0.0
1586176482858,4109348.0,4055054.0,0.0
1586176482903,4120194.0,4067161.0,0.0
1586176482951,4135344.0,4078941.0,0.0
1586176483001,4146874.0,4094429.0,0.0
1586176483056,4150688.0,4088996.0,0.0
1586176483107,4109647.0,4034854.0,0.0
1586176483145,4080646.0,3994044.0,0.0
1586176483195,4067516.0,3983498.0,0.0
1586176483240,4074345.0,3984721.0,0.0
1586176483296,4081444.0,3998234.0,0.0
1586176483340,4084768.0,3999120.0,0.0
1586176483390,4087570.0,3994150.0,0.0
1586176483441,4086241.0,4001865.0,0.0
1586176483486,4096904.0,4012885.0,0.0
1586176483541,4100786.0,4035462.0,0.0
1586176483581,4086820.0,4059107.0,0.0
1586176483800,4068026.0,4090441.0,0.0
1586176483800,4065609.0,4129960.0,0.0
1586176483800,4034074.0,4115311.0,0.0
1586176483800,3999861.0,4088476.0,0.0
1586176483903,3988053.0,4091530.0,0.0
1586176483910,3991269.0,4106729.0,0.0
1586176483930,4001028.0,4119596.0,0.0
1586176484003,4006209.0,4127282.0,0.0
1586176484026,4009687.0,4132947.0,0.0
1586176484067,4008945.0,4134574.0,0.0
1586176484119,4018009.0,4146702.0,0.0
1586176484171,4029316.0,4158338.0,0.0
1586176484221,4044399.0,4175945.0,0.0
1586176484260,4054215.0,4186028.0,0.0
1586176484317,4072053.0,4199235.0,0.0
1586176484365,4081781.0,4199600.0,0.0
1586176484406,4055950.0,4156507.0,0.0
1586176484459,4029442.0,4109320.0,0.0
1586176484504,4020069.0,4091548.0,0.0
1586176484560,4027505.0,4090219.0,0.0
1586176484600,4041260.0,4097145.0,0.0
1586176484654,4048532.0,4102337.0,0.0
1586176484706,4050381.0,4095150.0,0.0
1586176484750,4055072.0,4092367.0,0.0
1586176484799,4063443.0,4098637.0,0.0
1586176484841,4074191.0,4105409.0,0.0
1586176484893,4090884.0,4112768.0,0.0
1586176484940,4105872.0,4122670.0,0.0
1586176484989,4118875.0,4134005.0,0.0
1586176485039,4111815.0,4107162.0,0.0
1586176485090,4077726.0,4056797.0,0.0
1586176485140,4063559.0,4037089.0,0.0
1586176485183,4066188.0,4034941.0,0.0
1586176485238,4074376.0,4046770.0,0.0
1586176485286,4084748.0,4053339.0,0.0
1586176485507,4085432.0,4051421.0,0.0
1586176485507,4087436.0,4045874.0,0.0
1586176485507,4091414.0,4052106.0,0.0
1586176485508,4099265.0,4062441.0,0.0
1586176485564,4109070.0,4074077.0,0.0
1586176485581,4124123.0,4084709.0,0.0
1586176485853,4076340.0,4006643.0,0.0
1586176485853,4063827.0,3985182.0,0.0
1586176485853,4061594.0,3982466.0,0.0
1586176485888,4062817.0,3989999.0,0.0
1586176485946,4067671.0,3993746.0,0.0
1586176485968,4068307.0,3996231.0,0.0
1586176486012,4070781.0,3995306.0,0.0
1586176486059,4077958.0,4000747.0,0.0
1586176486108,4084402.0,4010630.0,0.0
1586176486152,4096422.0,4025772.0,0.0
1586176486206,4103387.0,4039141.0,0.0
1586176486255,4112180.0,4055072.0,0.0
1586176486303,4088234.0,4023517.0,0.0
1586176486350,4047916.0,3974135.0,0.0
1586176486399,4029529.0,3954100.0,0.0
1586176486444,4021881.0,3957692.0,0.0
1586176486493,4028190.0,3961179.0,0.0
1586176486546,4031811.0,3973749.0,0.0
1586176486588,4030289.0,3973152.0,0.0
1586176486642,4028680.0,3978451.0,0.0
1586176486691,4032534.0,3986454.0,0.0
1586176486739,4041415.0,3999447.0,0.0
1586176486783,4051132.0,4010640.0,0.0
1586176486839,4061112.0,4022255.0,0.0
1586176486888,4070743.0,4038938.0,0.0
1586176486935,4078959.0,4044294.0,0.0
1586176486983,4044381.0,4002588.0,0.0
1586176487029,4016274.0,3963308.0,0.0
1586176487080,4006788.0,3952887.0,0.0
1586176487123,4009301.0,3960254.0,0.0
1586176487178,4015869.0,3971978.0,0.0
1586176487226,4013943.0,3974625.0,0.0
1586176487275,4012816.0,3975742.0,0.0
1586176487322,4013683.0,3976630.0,0.0
1586176487365,4016871.0,3989778.0,0.0
1586176487414,4024655.0,4003608.0,0.0
1586176487465,4038467.0,4019945.0,0.0
1586176487518,4052847.0,4030482.0,0.0
1586176487568,4059387.0,4050525.0,0.0
1586176487615,4068026.0,4060986.0,0.0
1586176487665,4044131.0,4018171.0,0.0
1586176487706,4005140.0,3975176.0,0.0
1586176487759,3990267.0,3961959.0,0.0
1586176487810,3985741.0,3965687.0,0.0
1586176487857,3992281.0,3971929.0,0.0
1586176487905,3993553.0,3976726.0,0.0
1586176487948,3990981.0,3975917.0,0.0
1586176488000,3993640.0,3975704.0,0.0
1586176488046,3994428.0,3982293.0,0.0
1586176488102,4003667.0,3996674.0,0.0
1586176488144,4015774.0,4009504.0,0.0
1586176488198,4026321.0,4021120.0,0.0
1586176488239,4034777.0,4035750.0,0.0
1586176488293,4045787.0,4053493.0,0.0
1586176488338,4051740.0,4056344.0,0.0
1586176488383,4015177.0,4008376.0,0.0
1586176488437,3981320.0,3971169.0,0.0
1586176488484,3969395.0,3962355.0,0.0
1586176488532,3965909.0,3969869.0,0.0
1586176488580,3966921.0,3977689.0,0.0
1586176488633,3969944.0,3980472.0,0.0
1586176488677,3969089.0,3979865.0,0.0
1586176488728,3975222.0,3985154.0,0.0
1586176488782,3984373.0,3997704.0,0.0
1586176488828,3992638.0,4011515.0,0.0
1586176488871,4005227.0,4031396.0,0.0
1586176488925,4017787.0,4043341.0,0.0
1586176488975,4028103.0,4061545.0,0.0
1586176489022,4043282.0,4075164.0,0.0
1586176489063,4055275.0,4089583.0,0.0
1586176489115,4064347.0,4096067.0,0.0
1586176489162,4029086.0,4050545.0,0.0
1586176489211,3986946.0,4006873.0,0.0
1586176489259,3976600.0,3998080.0,0.0
1586176489311,3964984.0,4002192.0,0.0
1586176489547,3963780.0,4015043.0,0.0
1586176489548,3963877.0,4035328.0,0.0
1586176489548,3963954.0,4050517.0,0.0
1586176489548,3962731.0,4063827.0,0.0
1586176489579,3967788.0,4078266.0,0.0
1586176489801,4047973.0,4116736.0,0.0
1586176489801,4063914.0,4123641.0,0.0
1586176489847,4079047.0,4131031.0,0.0
1586176489897,4094746.0,4144158.0,0.0
1586176489946,4109387.0,4151190.0,0.0
1586176489987,4086568.0,4110793.0,0.0
1586176490040,4045815.0,4055842.0,0.0
1586176490088,4024876.0,4038389.0,0.0
1586176490140,4024933.0,4040259.0,0.0
1586176490181,4029586.0,4045769.0,0.0
1586176490230,4031975.0,4050728.0,0.0
1586176490286,4031888.0,4048465.0,0.0
1586176490328,4033950.0,4046971.0,0.0
1586176490381,4037475.0,4054495.0,0.0
1586176490428,4044255.0,4066054.0,0.0
1586176490477,4059879.0,4083033.0,0.0
1586176490528,4068538.0,4105918.0,0.0
1586176490570,4082948.0,4132339.0,0.0
1586176490625,4087889.0,4162285.0,0.0
1586176490668,4100091.0,4189139.0,0.0
1586176490720,4117430.0,4211023.0,0.0
1586176490769,4137705.0,4228179.0,0.0
1586176491017,4135259.0,4206457.0,0.0
1586176491017,4102278.0,4161361.0,0.0
1586176491019,4082438.0,4137118.0,0.0
1586176491019,4082108.0,4132437.0,0.0
1586176491019,4093889.0,4142868.0,0.0
1586176491081,4103415.0,4146625.0,0.0
1586176491126,4102625.0,4142299.0,0.0
1586176491152,4099370.0,4135826.0,0.0
1586176491207,4102056.0,4141125.0,0.0
1586176491252,4109811.0,4147415.0,0.0
1586176491302,4121409.0,4158510.0,0.0
1586176491349,4131309.0,4170733.0,0.0
1586176491401,4146192.0,4182918.0,0.0
1586176491449,4157267.0,4194824.0,0.0
1586176491492,4167785.0,4210639.0,0.0
1586176491547,4152259.0,4186636.0,0.0
1586176491588,4119866.0,4130635.0,0.0
1586176491644,4099033.0,4108722.0,0.0
1586176491690,4094728.0,4106410.0,0.0
1586176491735,4100161.0,4109935.0,0.0
1586176491788,4103887.0,4119279.0,0.0
1586176491828,4106670.0,4122101.0,0.0
1586176491887,4109194.0,4115716.0,0.0
1586176491929,4113164.0,4121002.0,0.0
1586176491980,4117950.0,4132803.0,0.0
1586176492029,4122882.0,4145479.0,0.0
1586176492074,4140643.0,4152173.0,0.0
1586176492128,4150034.0,4169008.0,0.0
1586176492177,4163470.0,4181280.0,0.0
1586176492224,4177351.0,4197875.0,0.0
1586176492270,4174065.0,4186713.0,0.0
1586176492319,4133120.0,4136454.0,0.0
1586176492370,4105697.0,4097308.0,0.0
1586176492417,4101816.0,4086125.0,0.0
1586176492467,4100756.0,4088110.0,0.0
1586176492508,4101065.0,4095652.0,0.0
1586176492644,4104244.0,4097761.0,0.0
1586176492644,4104224.0,4094468.0,0.0
1586176492911,4143099.0,4138601.0,0.0
1586176492912,4154107.0,4154628.0,0.0
1586176492950,4164087.0,4167844.0,0.0
1586176493000,4178844.0,4187012.0,0.0
1586176493051,4176030.0,4167448.0,0.0
1586176493094,4137677.0,4115898.0,0.0
1586176493141,4111380.0,4083813.0,0.0
1586176493189,4107075.0,4079065.0,0.0
1586176493238,4107962.0,4088254.0,0.0
1586176493292,4118046.0,4091895.0,0.0
1586176493341,4117757.0,4090315.0,0.0
1586176493390,4111429.0,4085566.0,0.0
1586176493433,4109935.0,4082108.0,0.0
1586176493487,4116236.0,4090430.0,0.0
1586176493532,4122737.0,4104726.0,0.0
1586176493585,4131108.0,4108915.0,0.0
1586176493632,4141413.0,4130472.0,0.0
1586176493679,4150853.0,4142106.0,0.0
1586176493731,4155505.0,4135277.0,0.0
1586176493770,4119145.0,4089400.0,0.0
1586176493820,4092637.0,4049418.0,0.0
1586176493872,4078988.0,4039314.0,0.0
1586176493925,4084931.0,4046606.0,0.0
1586176493971,4091028.0,4057634.0,0.0
1586176494020,4095034.0,4059060.0,0.0
1586176494069,4092377.0,4055332.0,0.0
1586176494111,4090873.0,4055592.0,0.0
1586176494158,4095006.0,4064607.0,0.0
1586176494211,4106083.0,4076080.0,0.0
1586176494257,4117266.0,4089305.0,0.0
1586176494306,4127851.0,4100892.0,0.0
1586176494356,4135903.0,4118133.0,0.0
1586176494408,4134816.0,4114261.0,0.0
1586176494451,4096952.0,4057662.0,0.0
1586176494506,4062451.0,4020118.0,0.0
1586176494555,4050661.0,4004486.0,0.0
1586176494603,4049783.0,4006729.0,0.0
1586176494651,4050419.0,4010302.0,0.0
1586176494697,4047839.0,4011363.0,0.0
1586176494750,4046008.0,4008915.0,0.0
1586176494792,4044448.0,4008636.0,0.0
1586176494846,4046933.0,4015630.0,0.0
1586176494895,4054534.0,4027544.0,0.0
1586176494941,4062624.0,4038747.0,0.0
1586176494991,4072738.0,4050159.0,0.0
1586176495032,4083342.0,4067122.0,0.0
1586176495088,4087204.0,4065273.0,0.0
1586176495138,4051161.0,4014791.0,0.0
1586176495179,4020128.0,3981793.0,0.0
1586176495234,4009715.0,3970436.0,0.0
1586176495277,4007799.0,3977602.0,0.0
1586176495330,4009146.0,3985568.0,0.0
1586176495373,4017353.0,3987553.0,0.0
1586176495427,4011700.0,3986809.0,0.0
1586176495475,4011930.0,3987659.0,0.0
1586176495518,4015908.0,3995806.0,0.0
1586176495574,4020831.0,4012084.0,0.0
1586176495616,4035317.0,4026880.0,0.0
1586176495670,4043119.0,4041193.0,0.0
1586176495712,4054215.0,4056334.0,0.0
1586176495768,4056653.0,4057557.0,0.0
1586176495816,4025868.0,4012962.0,0.0
1586176495859,3991001.0,3981561.0,0.0
1586176496099,3987456.0,3972979.0,0.0
1586176496099,3991761.0,3981821.0,0.0
1586176496099,3996164.0,3992041.0,0.0
1586176496099,3998754.0,3995749.0,0.0
1586176496129,3995239.0,3996172.0,0.0
1586176496205,3997665.0,3997878.0,0.0
1586176496205,4003474.0,4009571.0,0.0
1586176496246,4013212.0,4020175.0,0.0
1586176496300,4019953.0,4035943.0,0.0
1586176496350,4031012.0,4049968.0,0.0
1586176496394,4047435.0,4059377.0,0.0
1586176496448,4051017.0,4068567.0,0.0
1586176496496,4017700.0,4018856.0,0.0
1586176496542,3982746.0,3980848.0,0.0
1586176496593,3971321.0,3968067.0,0.0
1586176496635,3968239.0,3975367.0,0.0
1586176496689,3970176.0,3974818.0,0.0
1586176496739,3971061.0,3978778.0,0.0
1586176496787,3968674.0,3974473.0,0.0
1586176496836,3968934.0,3974568.0,0.0
1586176496879,3974733.0,3983941.0,0.0
1586176496933,3980722.0,3998919.0,0.0
1586176496975,3995721.0,4010408.0,0.0
1586176497030,4004100.0,4023074.0,0.0
1586176497077,4015851.0,4039795.0,0.0
1586176497127,4028970.0,4049976.0,0.0
1586176497168,4024124.0,4039661.0,0.0
1586176497218,3976571.0,3990528.0,0.0
1586176497272,3940981.0,3968028.0,0.0
1586176497316,3925869.0,3970657.0,0.0
1586176497368,3923220.0,3977506.0,0.0
1586176497418,3916363.0,4000083.0,0.0
1586176497465,3908010.0,4008348.0,0.0
1586176497514,3901114.0,4010949.0,0.0
1586176497556,3900682.0,4019925.0,0.0
1586176497604,3906576.0,4034653.0,0.0
1586176497658,3929153.0,4046096.0,0.0
1586176497709,3952656.0,4060322.0,0.0
1586176497758,3976072.0,4069762.0,0.0
1586176497801,4000479.0,4080000.0,0.0
1586176497855,4018480.0,4097241.0,0.0
1586176497897,4038217.0,4101605.0,0.0
1586176497942,4014945.0,4059619.0,0.0
1586176497997,3987870.0,4019791.0,0.0
1586176498048,3982380.0,4007009.0,0.0
1586176498097,3990846.0,4010804.0,0.0
1586176498144,4000227.0,4017584.0,0.0
1586176498193,4008212.0,4024029.0,0.0
1586176498238,4008088.0,4021032.0,0.0
1586176498290,4012143.0,4025973.0,0.0
1586176498338,4020764.0,4034836.0,0.0
1586176498385,4033911.0,4045027.0,0.0
1586176498437,4050054.0,4058327.0,0.0
1586176498477,4062604.0,4073258.0,0.0
1586176498533,4076464.0,4087426.0,0.0
1586176498577,4090835.0,4103675.0,0.0
1586176498624,4090489.0,4089988.0,0.0
1586176498680,4058664.0,4042666.0,0.0
1586176498723,4032601.0,4005786.0,0.0
1586176498776,4030039.0,4010225.0,0.0
1586176498817,4030626.0,4016449.0,0.0
1586176498873,4038678.0,4021881.0,0.0
1586176498917,4043851.0,4024704.0,0.0
1586176498967,4043861.0,4020821.0,0.0
1586176499019,4048686.0,4024222.0,0.0
1586176499062,4061555.0,4036077.0,0.0
1586176499116,4071273.0,4049273.0,0.0
1586176499157,4086704.0,4064455.0,0.0
1586176499213,4095613.0,4083053.0,0.0
1586176499260,4113192.0,4091587.0,0.0
1586176499308,4130596.0,4108684.0,0.0
1586176499360,4132638.0,4103868.0,0.0
1586176499400,4100709.0,4053272.0,0.0
1586176499457,4074577.0,4012779.0,0.0
1586176499499,4067988.0,4007393.0,0.0
1586176499552,4071168.0,4011219.0,0.0
1586176499601,4077275.0,4017497.0,0.0
1586176499646,4080038.0,4020252.0,0.0
1586176499696,4081001.0,4015784.0,0.0
1586176499743,4080877.0,4019425.0,0.0
1586176499796,4092598.0,4026156.0,0.0
1586176499840,4100488.0,4037869.0,0.0
1586176499889,4113962.0,4054649.0,0.0
1586176499942,4123497.0,4069973.0,0.0
1586176499984,4131049.0,4083679.0,0.0
1586176500030,4138957.0,4099803.0,0.0
1586176500079,4146864.0,4116581.0,0.0
1586176500129,4140478.0,4114876.0,0.0
1586176500178,4101412.0,4062596.0,0.0
1586176500226,4073016.0,4031878.0,0.0
1586176500278,4062835.0,4028267.0,0.0
1586176500328,4066775.0,4040962.0,0.0
1586176500378,4070550.0,4048946.0,0.0
1586176500423,4070570.0,4044381.0,0.0
1586176500475,4073797.0,4035405.0,0.0
1586176500519,4081328.0,4035616.0,0.0
1586176500573,4089853.0,4040094.0,0.0
1586176500619,4103281.0,4049920.0,0.0
1586176500667,4116226.0,4062787.0,0.0
1586176500720,4127890.0,4076938.0,0.0
1586176500763,4141568.0,4087513.0,0.0
1586176500815,4156901.0,4097231.0,0.0
1586176500862,4145391.0,4067921.0,0.0
1586176500910,4108308.0,4013184.0,0.0
1586176500955,4086627.0,3986397.0,0.0
1586176501006,4081503.0,3986184.0,0.0
1586176501059,4089998.0,3994044.0,0.0
1586176501102,4095786.0,3997878.0,0.0
1586176501156,4092243.0,3995335.0,0.0
1586176501204,4095565.0,3993061.0,0.0
1586176501247,4098088.0,3998484.0,0.0
1586176501298,4108269.0,4007153.0,0.0
1586176501344,4118402.0,4022968.0,0.0
1586176501398,4129249.0,4034941.0,0.0
1586176501441,4142772.0,4047695.0,0.0
1586176501492,4152326.0,4063144.0,0.0
1586176501544,4164829.0,4073537.0,0.0
1586176501594,4143553.0,4036175.0,0.0
1586176501637,4100959.0,3973662.0,0.0
1586176501688,4077870.0,3946105.0,0.0
1586176501743,4070985.0,3943389.0,0.0
1586176501786,4071186.0,3944805.0,0.0
1586176501836,4072911.0,3945933.0,0.0
1586176501885,4070310.0,3943033.0,0.0
1586176501933,4065976.0,3938371.0,0.0
1586176501979,4066399.0,3944622.0,0.0
1586176502028,4078305.0,3951865.0,0.0
1586176502075,4084189.0,3963251.0,0.0
1586176502122,4093696.0,3982043.0,0.0
1586176502172,4102769.0,3993784.0,0.0
1586176502220,4117554.0,4007645.0,0.0
1586176502271,4131579.0,4021583.0,0.0
1586176502319,4117969.0,3986405.0,0.0
1586176502367,4076003.0,3929992.0,0.0
1586176502417,4053174.0,3904776.0,0.0
1586176502458,4050265.0,3906730.0,0.0
1586176502515,4058087.0,3915515.0,0.0
1586176502563,4074288.0,3921410.0,0.0
1586176502611,4075483.0,3913250.0,0.0
1586176502827,4074394.0,3911931.0,0.0
1586176502827,4074067.0,3921497.0,0.0
1586176502827,4086001.0,3932283.0,0.0
1586176502827,4087291.0,3947838.0,0.0
1586176502958,4123008.0,4002915.0,0.0
1586176503021,4131425.0,4012460.0,0.0
1586176503040,4109484.0,3981273.0,0.0
1586176503096,4078681.0,3946134.0,0.0
1586176503148,4065243.0,3942078.0,0.0
1586176503194,4070599.0,3950661.0,0.0
1586176503244,4083293.0,3976147.0,0.0
1586176503288,4086231.0,3980684.0,0.0
1586176503340,4078323.0,3976456.0,0.0
1586176503382,4079904.0,3977467.0,0.0
1586176503430,4085182.0,3990172.0,0.0
1586176503484,4089825.0,4003512.0,0.0
1586176503533,4104504.0,4019770.0,0.0
1586176503579,4109907.0,4033844.0,0.0
1586176503628,4119163.0,4039931.0,0.0
1586176503679,4087474.0,4009561.0,0.0
1586176503727,4057027.0,3977882.0,0.0
1586176503778,4047329.0,3966140.0,0.0
1586176503824,4048215.0,3968770.0,0.0
1586176503874,4052433.0,3983112.0,0.0
1586176503919,4060775.0,3992417.0,0.0
1586176503970,4066795.0,3991568.0,0.0
1586176504014,4067902.0,3997559.0,0.0
1586176504061,4080808.0,4007952.0,0.0
1586176504116,4095045.0,4017296.0,0.0
1586176504161,4103001.0,4033265.0,0.0
1586176504211,4120070.0,4047396.0,0.0
1586176504256,4129172.0,4050728.0,0.0
1586176504304,4104196.0,4010254.0,0.0
1586176504360,4069944.0,3965167.0,0.0
1586176504407,4053944.0,3946172.0,0.0
1586176504456,4047357.0,3941077.0,0.0
1586176504503,4047569.0,3947233.0,0.0
1586176504550,4049533.0,3959021.0,0.0
1586176504598,4051181.0,3967642.0,0.0
1586176504646,4054013.0,3966053.0,0.0
1586176504698,4061517.0,3972874.0,0.0
1586176504751,4075540.0,3988784.0,0.0
1586176504794,4089305.0,3999794.0,0.0
1586176504842,4109994.0,4012970.0,0.0
1586176504885,4129257.0,4023517.0,0.0
1586176504936,4117508.0,3984729.0,0.0
1586176504988,4094303.0,3939892.0,0.0
1586176505029,4081763.0,3920542.0,0.0
1586176505080,4073845.0,3911556.0,0.0
1586176505135,4074780.0,3915119.0,0.0
1586176505177,4074211.0,3925378.0,0.0
1586176505228,4075001.0,3933517.0,0.0
1586176505282,4075030.0,3938054.0,0.0
1586176505328,4078266.0,3952107.0,0.0
1586176505378,4087619.0,3967941.0,0.0
1586176505426,4103560.0,3983874.0,0.0
1586176505469,4124741.0,4002279.0,0.0
1586176505519,4136905.0,4022786.0,0.0
1586176505570,4145893.0,4025213.0,0.0
1586176505620,4113210.0,3983681.0,0.0
1586176505668,4089719.0,3956691.0,0.0
1586176505715,4082881.0,3952020.0,0.0
1586176505767,4082330.0,3958838.0,0.0
1586176505807,4094872.0,3968798.0,0.0
1586176505857,4103868.0,3980212.0,0.0
1586176505905,4106016.0,3985540.0,0.0
1586176505952,4113172.0,3992041.0,0.0
1586176506009,4124576.0,4004890.0,0.0
1586176506055,4137494.0,4019896.0,0.0
1586176506107,4158742.0,4034614.0,0.0
1586176506146,4172871.0,4054696.0,0.0
1586176506200,4190372.0,4075733.0,0.0
1586176506250,4188812.0,4076984.0,0.0
1586176506299,4166389.0,4042522.0,0.0
1586176506343,4157094.0,4022989.0,0.0
1586176506390,4159185.0,4024269.0,0.0
1586176506446,4173834.0,4038119.0,0.0
1586176506493,4187117.0,4051413.0,0.0
1586176506538,4193706.0,4055659.0,0.0
1586176506588,4197115.0,4061169.0,0.0
1586176506633,4197018.0,4071196.0,0.0
1586176506687,4210927.0,4081359.0,0.0
1586176506732,4226868.0,4100102.0,0.0
1586176506779,4244679.0,4115927.0,0.0
1586176506826,4270193.0,4127169.0,0.0
1586176506881,4275982.0,4113086.0,0.0
1586176506929,4255861.0,4074981.0,0.0
1586176506978,4252509.0,4056864.0,0.0
1586176507027,4253086.0,4057240.0,0.0
1586176507069,4261611.0,4072679.0,0.0
1586176507123,4263267.0,4080761.0,0.0
1586176507169,4261900.0,4075877.0,0.0
1586176507220,4262603.0,4076984.0,0.0
1586176507265,4270376.0,4088448.0,0.0
1586176507316,4285990.0,4098446.0,0.0
1586176507366,4300958.0,4112123.0,0.0
1586176507407,4315743.0,4126610.0,0.0
1586176507463,4319451.0,4129739.0,0.0
1586176507507,4287270.0,4085432.0,0.0
1586176507560,4265811.0,4046037.0,0.0
1586176507608,4256997.0,4037378.0,0.0
1586176507651,4261881.0,4037205.0,0.0
1586176507699,4275549.0,4043995.0,0.0
1586176507746,4282311.0,4050767.0,0.0
1586176507804,4285249.0,4051200.0,0.0
1586176507851,4292626.0,4054369.0,0.0
1586176507899,4308508.0,4062711.0,0.0
1586176507948,4316495.0,4074250.0,0.0
1586176507990,4330286.0,4089006.0,0.0
1586176508045,4346902.0,4103068.0,0.0
1586176508087,4336316.0,4079806.0,0.0
1586176508140,4307941.0,4037195.0,0.0
1586176508183,4287636.0,4019577.0,0.0
1586176508237,4281453.0,4012730.0,0.0
1586176508289,4279159.0,4018153.0,0.0
1586176508330,4282502.0,4026282.0,0.0
1586176508385,4284775.0,4032833.0,0.0
1586176508432,4287299.0,4035596.0,0.0
1586176508481,4289255.0,4044044.0,0.0
1586176508531,4297065.0,4057961.0,0.0
1586176508578,4310542.0,4075964.0,0.0
1586176508625,4321261.0,4093253.0,0.0
1586176508668,4326790.0,4096759.0,0.0
1586176508725,4304136.0,4053800.0,0.0
1586176508772,4278678.0,4020108.0,0.0
1586176508821,4260329.0,4022997.0,0.0
1586176508870,4258385.0,4022217.0,0.0
1586176508918,4262363.0,4031494.0,0.0
1586176508959,4257700.0,4044468.0,0.0
1586176509015,4258596.0,4054918.0,0.0
1586176509063,4267863.0,4060456.0,0.0
1586176509110,4278601.0,4075048.0,0.0
1586176509163,4288398.0,4088293.0,0.0
1586176509207,4297104.0,4107999.0,0.0
1586176509252,4299946.0,4117536.0,0.0
1586176509307,4267158.0,4084526.0,0.0
1586176509350,4231184.0,4055842.0,0.0
1586176509405,4220107.0,4058741.0,0.0
1586176509451,4213268.0,4072141.0,0.0
1586176509502,4212614.0,4093474.0,0.0
1586176509547,4239408.0,4107257.0,0.0
1586176509591,4284690.0,4108251.0,0.0
1586176509647,4331540.0,4119915.0,0.0
1586176509688,4377849.0,4145854.0,0.0
1586176509744,4389042.0,4157565.0,0.0
1586176509791,4383110.0,4167901.0,0.0
1586176509841,4376645.0,4173864.0,0.0
1586176509886,4339929.0,4136992.0,0.0
1586176509936,4303124.0,4112132.0,0.0
1586176509986,4293272.0,4118133.0,0.0
1586176510031,4304136.0,4138717.0,0.0
1586176510076,4327734.0,4156535.0,0.0
1586176510131,4344734.0,4171668.0,0.0
1586176510180,4357603.0,4174008.0,0.0
1586176510229,4363306.0,4177601.0,0.0
1586176510277,4364105.0,4186646.0,0.0
1586176510326,4374901.0,4203424.0,0.0
1586176510373,4388646.0,4223093.0,0.0
1586176510424,4393579.0,4226001.0,0.0
1586176510465,4375529.0,4199281.0,0.0
1586176510513,4365868.0,4181705.0,0.0
1586176510569,4365781.0,4189236.0,0.0
1586176510609,4374247.0,4208538.0,0.0
1586176510667,4381915.0,4232647.0,0.0
1586176510708,4401034.0,4246190.0,0.0
1586176510755,4405542.0,4252355.0,0.0
1586176510810,4416733.0,4265309.0,0.0
1586176510852,4437463.0,4281597.0,0.0
1586176510908,4472185.0,4283580.0,0.0
1586176510952,4535139.0,4284901.0,0.0
1586176510998,4579514.0,4275518.0,0.0
1586176511093,4539156.0,4235469.0,0.0
1586176511169,4479920.0,4233264.0,0.0
1586176511169,4442219.0,4256737.0,0.0
1586176511193,4432318.0,4291768.0,0.0
1586176511250,4435130.0,4310377.0,0.0
1586176511290,4430854.0,4324768.0,0.0
1586176511342,4423688.0,4323795.0,0.0
1586176511386,4427357.0,4327358.0,0.0
1586176511439,4455994.0,4333041.0,0.0
1586176511486,4505136.0,4350226.0,0.0
1586176511531,4547815.0,4356630.0,0.0
1586176511584,4544820.0,4315347.0,0.0
1586176511636,4546399.0,4286472.0,0.0
1586176511680,4543144.0,4278052.0,0.0
1586176511729,4549656.0,4273342.0,0.0
1586176511779,4551371.0,4270106.0,0.0
1586176511827,4556734.0,4267351.0,0.0
1586176511873,4552236.0,4262631.0,0.0
1586176511925,4546736.0,4261977.0,0.0
1586176511977,4550897.0,4267227.0,0.0
1586176512022,4553933.0,4276790.0,0.0
1586176512069,4564652.0,4287453.0,0.0
1586176512120,4560000.0,4265368.0,0.0
1586176512166,4550753.0,4230558.0,0.0
1586176512213,4575219.0,4231897.0,0.0
1586176512259,4595023.0,4242078.0,0.0
1586176512312,4599684.0,4250583.0,0.0
1586176512362,4603469.0,4255609.0,0.0
1586176512409,4593885.0,4260764.0,0.0
1586176512455,4590543.0,4268604.0,0.0
1586176512506,4592749.0,4280701.0,0.0
1586176512556,4601658.0,4292886.0,0.0
1586176512603,4605222.0,4307998.0,0.0
1586176512652,4600492.0,4305590.0,0.0
1586176512702,4574110.0,4266831.0,0.0
1586176512748,4554095.0,4243224.0,0.0
1586176512792,4549077.0,4233090.0,0.0
1586176512848,4553161.0,4233004.0,0.0
1586176512896,4559152.0,4241596.0,0.0
1586176512943,4571751.0,4246278.0,0.0
1586176512991,4579957.0,4240585.0,0.0
1586176513036,4591101.0,4242905.0,0.0
1586176513088,4596071.0,4250630.0,0.0
1586176513134,4606927.0,4261148.0,0.0
1586176513180,4608554.0,4264567.0,0.0
1586176513233,4583588.0,4224286.0,0.0
1586176513283,4550040.0,4188389.0,0.0
1586176513330,4537057.0,4179480.0,0.0
1586176513379,4537884.0,4184661.0,0.0
1586176513427,4554664.0,4194716.0,0.0
1586176513477,4563110.0,4208924.0,0.0
1586176513524,4575036.0,4217390.0,0.0
1586176513573,4595716.0,4228900.0,0.0
1586176513615,4630525.0,4239746.0,0.0
1586176513670,4655924.0,4232281.0,0.0
1586176513716,4669891.0,4215994.0,0.0
1586176513768,4617262.0,4217390.0,0.0
1586176513819,4561320.0,4218420.0,0.0
1586176513859,4548471.0,4228833.0,0.0
1586176513913,4548384.0,4255995.0,0.0
1586176513957,4550946.0,4289495.0,0.0
1586176514010,4558228.0,4318921.0,0.0
1586176514056,4558063.0,4338696.0,0.0
1586176514099,4563082.0,4348452.0,0.0
1586176514154,4561426.0,4358509.0,0.0
1586176514197,4580534.0,4359673.0,0.0
1586176514252,4612417.0,4373640.0,0.0
1586176514297,4662418.0,4371521.0,0.0
1586176514349,4686748.0,4351418.0,0.0
1586176514397,4706415.0,4341373.0,0.0
1586176514447,4749691.0,4353944.0,0.0
1586176514495,4796243.0,4378833.0,0.0
1586176514538,4821873.0,4395853.0,0.0
1586176514592,4843816.0,4412342.0,0.0
1586176514642,4863166.0,4432453.0,0.0
1586176514688,4898440.0,4453672.0,0.0
1586176514738,4918810.0,4464306.0,0.0
1586176514786,4921990.0,4467687.0,0.0
1586176514833,4921469.0,4457274.0,0.0
1586176514883,4908659.0,4416542.0,0.0
1586176514931,4892814.0,4386104.0,0.0
1586176514977,4889346.0,4374198.0,0.0
1586176515027,4891619.0,4372581.0,0.0
1586176515081,4886225.0,4370328.0,0.0
1586176515125,4873772.0,4367292.0,0.0
1586176515174,4860586.0,4352904.0,0.0
1586176515220,4853449.0,4343915.0,0.0
1586176515265,4849074.0,4346469.0,0.0
1586176515320,4848768.0,4345756.0,0.0
1586176515367,4833846.0,4330268.0,0.0
1586176515417,4803102.0,4283196.0,0.0
1586176515465,4780832.0,4259088.0,0.0
1586176515513,4770795.0,4253299.0,0.0
1586176515559,4766732.0,4258547.0,0.0
1586176515609,4768629.0,4265579.0,0.0
1586176515661,4761539.0,4261361.0,0.0
1586176515702,4754220.0,4254898.0,0.0
1586176515752,4745059.0,4256044.0,0.0
1586176515805,4747688.0,4258761.0,0.0
1586176515851,4742950.0,4260156.0,0.0
1586176515898,4718610.0,4224335.0,0.0
1586176515948,4683589.0,4184573.0,0.0
1586176515996,4666280.0,4167409.0,0.0
1586176516039,4657966.0,4171109.0,0.0
1586176516090,4660134.0,4179555.0,0.0
1586176516137,4658852.0,4182243.0,0.0
1586176516187,4656329.0,4175000.0,0.0
1586176516237,4645542.0,4173671.0,0.0
1586176516542,4642064.0,4178507.0,0.0
1586176516543,4642594.0,4186646.0,0.0
1586176516548,4641389.0,4181540.0,0.0
1586176516549,4609123.0,4136068.0,0.0
1586176516549,4576788.0,4099437.0,0.0
1586176516550,4563102.0,4090008.0,0.0
1586176516621,4554991.0,4096520.0,0.0
1586176516636,4558892.0,4110600.0,0.0
1586176516740,4555300.0,4119241.0,0.0
1586176516740,4556320.0,4119684.0,0.0
1586176516775,4556678.0,4123912.0,0.0
1586176516819,4559914.0,4136116.0,0.0
1586176516867,4565317.0,4149812.0,0.0
1586176516916,4565615.0,4145564.0,0.0
1586176516967,4527414.0,4096432.0,0.0
1586176517017,4496930.0,4063134.0,0.0
1586176517061,4481249.0,4051393.0,0.0
1586176517113,4483407.0,4054879.0,0.0
1586176517162,4482385.0,4064463.0,0.0
1586176517204,4482954.0,4062933.0,0.0
1586176517262,4477049.0,4057065.0,0.0
1586176517307,4469373.0,4062557.0,0.0
1586176517356,4471722.0,4070137.0,0.0
1586176517401,4476452.0,4080327.0,0.0
1586176517453,4488271.0,4084979.0,0.0
1586176517500,4466039.0,4038958.0,0.0
1586176517550,4429584.0,3995652.0,0.0
1586176517853,4411310.0,3980444.0,0.0
1586176517853,4409461.0,3985182.0,0.0
1586176517853,4413527.0,3995960.0,0.0
1586176517853,4410859.0,4003059.0,0.0
1586176517854,4405339.0,4000150.0,0.0
1586176517854,4404280.0,4001952.0,0.0
1586176517908,4406948.0,4011353.0,0.0
1586176518008,4413208.0,4021457.0,0.0
1586176518010,4418198.0,4038737.0,0.0
1586176518037,4416975.0,4033342.0,0.0
1586176518078,4382984.0,3982264.0,0.0
1586176518131,4354791.0,3952318.0,0.0
1586176518180,4349667.0,3948580.0,0.0
1586176518229,4361264.0,3960468.0,0.0
1586176518279,4371260.0,3972488.0,0.0
1586176518321,4364086.0,3975031.0,0.0
1586176518375,4360194.0,3973566.0,0.0
1586176518420,4356429.0,3980858.0,0.0
1586176518471,4354964.0,3995018.0,0.0
1586176518520,4356110.0,4010457.0,0.0
1586176518568,4360242.0,4030116.0,0.0
1586176518620,4350167.0,4019992.0,0.0
1586176518664,4318045.0,3973731.0,0.0
1586176518714,4290795.0,3955535.0,0.0
1586176518764,4290854.0,3951219.0,0.0
1586176518806,4292433.0,3967624.0,0.0
1586176518859,4298906.0,3983776.0,0.0
1586176518907,4296681.0,3987378.0,0.0
1586176518957,4293532.0,3991328.0,0.0
1586176518999,4290671.0,4000662.0,0.0
1586176519053,4295968.0,4009589.0,0.0
1586176519104,4305369.0,4026292.0,0.0
1586176519149,4317419.0,4044170.0,0.0
1586176519199,4315068.0,4037233.0,0.0
1586176519246,4282174.0,3992531.0,0.0
1586176519296,4259896.0,3966815.0,0.0
1586176519343,4258413.0,3972526.0,0.0
1586176519594,4262536.0,3983930.0,0.0
1586176519594,4269624.0,4001509.0,0.0
1586176519594,4270126.0,4005438.0,0.0
1586176519594,4273613.0,4007799.0,0.0
1586176519594,4276473.0,4014782.0,0.0
1586176519647,4285035.0,4028787.0,0.0
1586176519768,4299552.0,4045161.0,0.0
1586176519773,4313055.0,4065562.0,0.0
1586176519801,4327050.0,4080877.0,0.0
1586176519848,4308701.0,4045565.0,0.0
1586176519878,4283977.0,4010400.0,0.0
1586176519920,4276435.0,4002472.0,0.0
1586176519976,4283562.0,4014492.0,0.0
1586176520021,4291508.0,4034594.0,0.0
1586176520067,4296354.0,4043253.0,0.0
1586176520121,4299194.0,4042908.0,0.0
1586176520168,4301043.0,4050054.0,0.0
1586176520220,4305619.0,4061777.0,0.0
1586176520262,4314857.0,4075936.0,0.0
1586176520315,4324518.0,4095315.0,0.0
1586176520364,4339177.0,4109492.0,0.0
1586176520409,4347816.0,4124133.0,0.0
1586176520461,4322139.0,4088090.0,0.0
1586176520508,4297163.0,4054436.0,0.0
1586176520559,4290169.0,4048012.0,0.0
1586176520601,4294408.0,4062037.0,0.0
1586176520654,4300562.0,4081040.0,0.0
1586176520699,4304012.0,4087119.0,0.0
1586176520745,4305619.0,4090644.0,0.0
1586176520797,4308268.0,4093206.0,0.0
1586176520842,4309579.0,4107710.0,0.0
1586176520892,4319989.0,4122882.0,0.0
1586176520939,4327899.0,4132553.0,0.0
1586176520990,4338791.0,4151190.0,0.0
1586176521042,4356254.0,4169423.0,0.0
1586176521091,4345872.0,4152905.0,0.0
1586176521139,4310781.0,4105380.0,0.0
1586176521183,4289111.0,4086202.0,0.0
1586176521236,4280645.0,4088476.0,0.0
1586176521284,4286915.0,4098214.0,0.0
1586176521332,4291498.0,4106691.0,0.0
1586176521382,4285903.0,4108635.0,0.0
1586176521430,4284072.0,4109368.0,0.0
1586176521478,4288369.0,4111786.0,0.0
1586176521522,4290324.0,4124346.0,0.0
1586176521572,4299176.0,4135962.0,0.0
1586176521624,4310068.0,4152259.0,0.0
1586176521668,4318238.0,4167554.0,0.0
1586176521718,4326550.0,4182928.0,0.0
1586176521763,4338907.0,4197365.0,0.0
1586176521819,4318382.0,4161832.0,0.0
1586176521867,4282435.0,4121427.0,0.0
1586176521914,4266524.0,4104175.0,0.0
1586176521958,4259000.0,4106546.0,0.0
1586176522011,4262700.0,4114348.0,0.0
1586176522060,4262613.0,4120667.0,0.0
1586176522105,4257729.0,4119992.0,0.0
1586176522153,4254165.0,4122747.0,0.0
1586176522206,4253279.0,4137252.0,0.0
1586176522253,4253992.0,4155331.0,0.0
1586176522303,4253356.0,4173025.0,0.0
1586176522351,4262410.0,4193176.0,0.0
1586176522400,4264606.0,4211852.0,0.0
1586176522443,4271985.0,4235008.0,0.0
1586176522498,4282609.0,4248289.0,0.0
1586176522546,4294022.0,4266138.0,0.0
1586176522593,4301112.0,4265705.0,0.0
1586176522643,4273989.0,4214954.0,0.0
1586176522691,4253693.0,4185624.0,0.0
1586176522738,4248608.0,4179344.0,0.0
1586176522784,4258125.0,4183909.0,0.0
1586176522832,4260417.0,4189622.0,0.0
1586176522906,4263151.0,4184911.0,0.0
1586176522933,4261148.0,4177773.0,0.0
1586176522982,4261948.0,4173151.0,0.0
1586176523028,4259646.0,4180057.0,0.0
1586176523080,4258874.0,4194649.0,0.0
1586176523126,4260349.0,4205929.0,0.0
1586176523170,4266524.0,4221435.0,0.0
1586176523218,4275279.0,4238069.0,0.0
1586176523268,4280480.0,4248261.0,0.0
1586176523321,4297029.0,4258480.0,0.0
1586176523366,4309077.0,4270472.0,0.0
1586176523420,4323439.0,4281914.0,0.0
1586176523468,4332887.0,4296758.0,0.0
1586176523515,4322062.0,4264673.0,0.0
1586176523564,4281193.0,4212575.0,0.0
1586176523612,4265782.0,4188283.0,0.0
1586176523660,4258761.0,4181164.0,0.0
1586176523705,4252123.0,4182735.0,0.0
1586176523757,4236336.0,4189324.0,0.0
1586176523804,4215184.0,4199986.0,0.0
1586176523853,4202875.0,4207922.0,0.0
1586176524137,4203087.0,4216427.0,0.0
1586176524137,4213479.0,4229132.0,0.0
1586176524137,4234910.0,4233918.0,0.0
1586176524137,4253704.0,4238648.0,0.0
1586176524137,4266156.0,4246074.0,0.0
1586176524204,4276193.0,4264261.0,0.0
1586176524204,4290025.0,4282638.0,0.0
1586176524277,4300350.0,4303299.0,0.0
1586176524294,4311966.0,4319047.0,0.0
1586176524339,4328206.0,4334004.0,0.0
1586176524389,4331731.0,4339909.0,0.0
1586176524436,4305840.0,4296614.0,0.0
1586176524483,4276242.0,4248809.0,0.0
1586176524533,4259984.0,4228120.0,0.0
1586176524581,4245554.0,4222978.0,0.0
1586176524627,4247009.0,4228246.0,0.0
1586176524678,4255648.0,4224633.0,0.0
1586176524726,4263740.0,4205409.0,0.0
1586176524771,4277349.0,4191124.0,0.0
1586176524823,4291951.0,4174711.0,0.0
1586176524866,4323815.0,4167631.0,0.0
1586176524917,4354781.0,4165957.0,0.0
1586176524967,4388945.0,4167795.0,0.0
1586176525021,4408094.0,4174518.0,0.0
1586176525061,4431471.0,4178813.0,0.0
1586176525115,4446429.0,4181347.0,0.0
1586176525162,4458739.0,4184671.0,0.0
1586176525207,4471241.0,4197885.0,0.0
1586176525261,4481682.0,4207238.0,0.0
1586176525307,4460743.0,4193542.0,0.0
1586176525359,4415945.0,4148561.0,0.0
1586176525404,4393626.0,4121591.0,0.0
1586176525455,4387019.0,4118036.0,0.0
1586176525503,4398317.0,4126059.0,0.0
1586176525549,4417062.0,4138591.0,0.0
1586176525601,4419864.0,4141326.0,0.0
1586176525652,4431057.0,4137350.0,0.0
1586176525699,4451514.0,4147925.0,0.0
1586176525739,4472425.0,4160745.0,0.0
1586176525796,4506475.0,4181934.0,0.0
1586176525839,4547084.0,4213278.0,0.0
1586176525888,4573842.0,4241672.0,0.0
1586176525942,4569671.0,4230393.0,0.0
1586176525992,4528591.0,4197741.0,0.0
1586176526034,4489118.0,4190449.0,0.0
1586176526085,4464883.0,4191865.0,0.0
1586176526135,4457140.0,4193936.0,0.0
1586176526178,4461242.0,4193802.0,0.0
1586176526226,4448172.0,4153541.0,0.0
1586176526277,4402123.0,4088167.0,0.0
1586176526323,4376809.0,4044901.0,0.0
1586176526374,4371945.0,4026079.0,0.0
1586176526422,4368140.0,4019348.0,0.0
1586176526473,4362323.0,4012509.0,0.0
1586176526523,4347576.0,3999689.0,0.0
1586176526569,4328216.0,3987860.0,0.0
1586176526616,4317909.0,3989690.0,0.0
1586176526663,4315627.0,3998185.0,0.0
1586176526714,4311484.0,4024317.0,0.0
1586176526761,4323370.0,4038034.0,0.0
1586176526812,4336509.0,4051557.0,0.0
1586176526863,4377502.0,4061391.0,0.0
1586176526911,4418247.0,4058463.0,0.0
1586176526954,4447382.0,4052010.0,0.0
1586176527006,4467147.0,4050700.0,0.0
1586176527053,4433503.0,4062624.0,0.0
1586176527101,4380036.0,4080867.0,0.0
1586176527150,4326617.0,4052626.0,0.0
1586176527203,4294580.0,4033160.0,0.0
1586176527254,4288668.0,4020262.0,0.0
1586176527299,4283619.0,4016294.0,0.0
1586176527345,4287973.0,4000304.0,0.0
1586176527397,4295015.0,3978873.0,0.0
1586176527445,4314376.0,3965023.0,0.0
1586176527490,4356110.0,3959600.0,0.0
1586176527543,4424411.0,3958599.0,0.0
1586176527590,4508574.0,3964802.0,0.0
1586176527639,4547555.0,3975781.0,0.0
1586176527682,4577838.0,3993205.0,0.0
1586176527737,4614412.0,4020108.0,0.0
1586176527785,4646909.0,4056393.0,0.0
1586176527833,4686921.0,4094496.0,0.0
1586176527881,4701649.0,4112690.0,0.0
1586176527930,4674610.0,4073565.0,0.0
1586176527979,4641641.0,4042002.0,0.0
1586176528026,4634686.0,4033698.0,0.0
1586176528075,4626529.0,4031744.0,0.0
1586176528119,4616858.0,4033737.0,0.0
1586176528176,4610423.0,4027794.0,0.0
1586176528217,4584523.0,4012403.0,0.0
1586176528269,4537240.0,4004071.0,0.0
1586176528319,4498539.0,4014291.0,0.0
1586176528365,4457256.0,4037012.0,0.0
1586176528410,4436912.0,4060621.0,0.0
1586176528463,4428505.0,4079500.0,0.0
1586176528514,4419074.0,4083959.0,0.0
1586176528561,4411830.0,4098021.0,0.0
1586176528609,4404731.0,4107654.0,0.0
1586176528659,4364875.0,4066275.0,0.0
1586176528705,4303827.0,4017661.0,0.0
1586176528753,4279921.0,3992234.0,0.0
1586176528804,4276589.0,3981793.0,0.0
1586176528851,4273883.0,3975145.0,0.0
1586176528900,4276154.0,3965090.0,0.0
1586176528948,4276077.0,3957038.0,0.0
1586176528998,4282800.0,3940963.0,0.0
1586176529045,4288071.0,3933236.0,0.0
1586176529095,4305196.0,3931042.0,0.0
1586176529143,4327436.0,3935896.0,0.0
1586176529187,4382021.0,3920889.0,0.0
1586176529241,4458691.0,3932139.0,0.0
1586176529286,4573340.0,3973595.0,0.0
1586176529338,4598816.0,3993697.0,0.0
1586176529385,4585370.0,3995036.0,0.0
1586176529435,4516559.0,3962942.0,0.0
1586176529482,4467301.0,3945644.0,0.0
1586176529531,4440823.0,3959052.0,0.0
1586176529580,4427715.0,3968010.0,0.0
1586176529627,4426837.0,3983150.0,0.0
1586176529674,4425884.0,3994487.0,0.0
1586176529724,4429622.0,3995479.0,0.0
1586176529780,4435197.0,4001664.0,0.0
1586176529822,4440399.0,4015447.0,0.0
1586176529871,4451872.0,4022121.0,0.0
1586176529914,4459337.0,4036733.0,0.0
1586176529966,4467831.0,4050633.0,0.0
1586176530013,4479073.0,4061622.0,0.0
1586176530064,4494685.0,4068500.0,0.0
1586176530112,4498614.0,4073902.0,0.0
1586176530160,4469497.0,4025935.0,0.0
1586176530204,4429834.0,3975627.0,0.0
1586176530260,4405918.0,3953349.0,0.0
1586176530306,4393512.0,3945402.0,0.0
1586176530356,4384428.0,3939516.0,0.0
1586176530404,4379016.0,3932409.0,0.0
1586176530449,4375635.0,3922950.0,0.0
1586176530502,4371088.0,3917450.0,0.0
1586176530548,4374219.0,3919561.0,0.0
1586176530595,4386856.0,3923644.0,0.0
1586176530645,4400215.0,3936290.0,0.0
1586176530696,4419238.0,3946530.0,0.0
1586176530740,4440630.0,3962615.0,0.0
1586176530792,4456080.0,3974357.0,0.0
1586176530843,4469873.0,3987195.0,0.0
1586176530889,4485487.0,3999032.0,0.0
1586176530935,4472677.0,3985915.0,0.0
1586176530986,4424960.0,3935000.0,0.0
1586176531036,4398415.0,3908280.0,0.0
1586176531083,4381702.0,3899863.0,0.0
1586176531133,4368930.0,3881677.0,0.0
1586176531177,4355002.0,3875986.0,0.0
1586176531224,4339793.0,3874655.0,0.0
1586176531275,4318988.0,3880281.0,0.0
1586176531321,4312362.0,3894517.0,0.0
1586176531371,4330317.0,3912730.0,0.0
1586176531419,4355695.0,3914686.0,0.0
1586176531469,4384861.0,3930666.0,0.0
1586176531518,4385710.0,3954553.0,0.0
1586176531563,4371675.0,3992309.0,0.0
1586176531616,4359848.0,4034200.0,0.0
1586176531665,4347991.0,4077486.0,0.0
1586176531715,4359298.0,4109031.0,0.0
1586176531763,4379554.0,4131703.0,0.0
1586176531807,4389205.0,4110996.0,0.0
1586176531858,4363556.0,4070609.0,0.0
1586176531903,4351794.0,4048591.0,0.0
1586176531954,4349628.0,4045324.0,0.0
1586176532001,4341489.0,4054186.0,0.0
1586176532050,4322860.0,4066216.0,0.0
1586176532098,4307748.0,4076397.0,0.0
1586176532145,4296797.0,4087176.0,0.0
1586176532198,4297297.0,4097452.0,0.0
1586176532245,4301834.0,4109291.0,0.0
1586176532300,4308412.0,4122410.0,0.0
1586176532344,4322062.0,4133333.0,0.0
1586176532393,4342172.0,4146604.0,0.0
1586176532443,4387722.0,4159010.0,0.0
1586176532489,4434746.0,4187040.0,0.0
1586176532537,4496245.0,4215165.0,0.0
1586176532586,4552064.0,4238090.0,0.0
1586176532636,4594184.0,4257661.0,0.0
1586176532684,4611049.0,4246777.0,0.0
1586176532732,4625113.0,4246064.0,0.0
1586176532778,4652611.0,4256361.0,0.0
1586176532828,4674129.0,4265667.0,0.0
1586176532880,4689800.0,4278525.0,0.0
1586176532926,4709469.0,4287077.0,0.0
1586176532975,4689598.0,4278997.0,0.0
1586176533022,4648037.0,4266282.0,0.0
1586176533072,4620036.0,4265618.0,0.0
1586176533119,4603855.0,4267343.0,0.0
1586176533163,4602457.0,4273227.0,0.0
1586176533220,4610048.0,4279334.0,0.0
1586176533265,4619448.0,4288310.0,0.0
1586176533314,4625564.0,4294013.0,0.0
1586176533357,4638510.0,4303510.0,0.0
1586176533411,4647623.0,4306612.0,0.0
1586176533464,4658043.0,4317159.0,0.0
1586176533503,4669198.0,4326117.0,0.0
1586176533557,4670441.0,4325942.0,0.0
1586176533604,4634522.0,4279306.0,0.0
1586176533654,4602428.0,4241519.0,0.0
1586176533701,4590321.0,4232618.0,0.0
1586176533750,4583358.0,4227407.0,0.0
1586176533802,4585476.0,4225761.0,0.0
1586176533846,4584003.0,4221889.0,0.0
1586176533891,4583580.0,4216273.0,0.0
1586176533940,4583580.0,4214924.0,0.0
1586176533992,4596514.0,4221618.0,0.0
1586176534042,4605261.0,4230432.0,0.0
1586176534089,4614623.0,4238841.0,0.0
1586176534143,4618187.0,4248732.0,0.0
1586176534182,4625342.0,4264336.0,0.0
1586176534231,4631730.0,4277099.0,0.0
1586176534280,4631777.0,4297943.0,0.0
1586176534332,4627240.0,4325896.0,0.0
1586176534383,4623532.0,4363103.0,0.0
1586176534622,4635119.0,4397758.0,0.0
1586176534622,4651243.0,4423909.0,0.0
1586176534622,4646649.0,4421617.0,0.0
1586176534622,4612542.0,4377705.0,0.0
1586176534658,4595321.0,4362418.0,0.0
1586176534701,4593038.0,4363932.0,0.0
1586176534804,4593125.0,4369710.0,0.0
1586176534806,4592893.0,4370068.0,0.0
1586176534826,4586758.0,4363016.0,0.0
1586176534873,4573947.0,4356591.0,0.0
1586176534915,4557659.0,4359356.0,0.0
1586176534957,4543461.0,4370220.0,0.0
1586176535007,4534099.0,4390593.0,0.0
1586176535057,4540119.0,4406861.0,0.0
1586176535389,4545976.0,4412322.0,0.0
1586176535390,4547006.0,4426731.0,0.0
1586176535390,4552584.0,4439966.0,0.0
1586176535391,4552035.0,4453028.0,0.0
1586176535393,4534003.0,4419372.0,0.0
1586176535397,4491719.0,4375828.0,0.0
1586176535456,4473398.0,4346642.0,0.0
1586176535456,4470885.0,4341412.0,0.0
1586176535528,4476259.0,4334419.0,0.0
1586176535552,4474825.0,4326684.0,0.0
1586176535594,4472013.0,4319634.0,0.0
1586176535644,4465857.0,4316273.0,0.0
1586176535690,4469248.0,4313276.0,0.0
1586176535738,4474536.0,4325991.0,0.0
1586176535786,4490861.0,4335104.0,0.0
1586176535836,4494522.0,4347893.0,0.0
1586176535880,4511041.0,4356071.0,0.0
1586176535933,4518853.0,4370251.0,0.0
1586176535984,4522368.0,4366427.0,0.0
1586176536028,4490140.0,4318825.0,0.0
1586176536075,4464509.0,4281665.0,0.0
1586176536126,4451352.0,4267958.0,0.0
1586176536176,4443780.0,4263151.0,0.0
1586176536220,4442327.0,4264413.0,0.0
1586176536272,4443857.0,4262844.0,0.0
1586176536325,4443627.0,4262775.0,0.0
1586176536364,4439137.0,4260069.0,0.0
1586176536605,4443983.0,4273497.0,0.0
1586176536605,4443857.0,4278284.0,0.0
1586176536605,4451458.0,4287896.0,0.0
1586176536605,4452699.0,4310040.0,0.0
1586176536646,4450080.0,4326030.0,0.0
1586176536689,4417052.0,4308837.0,0.0
1586176536792,4378581.0,4280537.0,0.0
1586176536792,4354058.0,4273093.0,0.0
1586176536817,4344880.0,4272436.0,0.0
1586176536852,4338562.0,4271878.0,0.0
1586176536900,4334179.0,4284227.0,0.0
1586176536946,4334429.0,4286961.0,0.0
1586176536995,4339486.0,4286327.0,0.0
1586176537041,4336211.0,4298839.0,0.0
1586176537094,4341065.0,4309404.0,0.0
1586176537141,4348086.0,4325298.0,0.0
1586176537187,4347749.0,4345120.0,0.0
1586176537239,4351892.0,4368737.0,0.0
1586176537559,4338830.0,4364692.0,0.0
1586176537559,4313449.0,4329671.0,0.0
1586176537559,4289091.0,4312545.0,0.0
1586176537560,4277215.0,4320347.0,0.0
1586176537560,4275915.0,4327696.0,0.0
1586176537560,4268710.0,4349570.0,0.0
1586176537639,4272024.0,4369066.0,0.0
1586176537639,4273796.0,4380036.0,0.0
1586176537723,4280537.0,4392817.0,0.0
1586176537737,4292250.0,4408336.0,0.0
1586176537778,4312506.0,4424102.0,0.0
1586176537825,4327011.0,4430305.0,0.0
1586176537872,4339929.0,4441238.0,0.0
1586176537921,4351815.0,4449089.0,0.0
1586176537969,4362930.0,4467128.0,0.0
1586176538020,4354503.0,4453760.0,0.0
1586176538061,4335786.0,4437308.0,0.0
1586176538114,4338734.0,4435882.0,0.0
1586176538166,4348048.0,4440177.0,0.0
1586176538211,4358836.0,4447613.0,0.0
1586176538260,4366417.0,4446419.0,0.0
1586176538307,4369499.0,4438550.0,0.0
1586176538359,4376655.0,4438300.0,0.0
1586176538405,4384987.0,4442441.0,0.0
1586176538452,4402854.0,4448422.0,0.0
1586176538502,4415945.0,4459211.0,0.0
1586176538550,4432916.0,4467842.0,0.0
1586176538601,4445216.0,4481952.0,0.0
1586176538645,4462004.0,4494839.0,0.0
1586176538698,4487596.0,4513131.0,0.0
1586176538747,4500918.0,4512292.0,0.0
1586176538789,4483734.0,4479313.0,0.0
1586176538841,4471944.0,4453672.0,0.0
1586176538891,4480633.0,4452709.0,0.0
1586176538939,4492143.0,4451669.0,0.0
1586176538982,4504366.0,4456254.0,0.0
1586176539037,4514074.0,4459836.0,0.0
1586176539085,4522416.0,4466608.0,0.0
1586176539132,4535574.0,4476125.0,0.0
1586176539182,4548286.0,4486556.0,0.0
1586176539229,4556204.0,4502844.0,0.0
1586176539278,4564142.0,4525681.0,0.0
1586176539324,4570778.0,4546429.0,0.0
1586176539375,4575853.0,4563563.0,0.0
1586176539423,4581180.0,4590128.0,0.0
1586176539472,4596774.0,4618957.0,0.0
1586176539522,4612697.0,4640042.0,0.0
1586176539565,4627492.0,4668938.0,0.0
1586176539618,4627039.0,4657611.0,0.0
1586176539668,4616559.0,4648007.0,0.0
1586176539715,4615779.0,4651899.0,0.0
1586176539763,4614672.0,4654943.0,0.0
1586176539812,4617167.0,4655425.0,0.0
1586176539860,4623658.0,4661241.0,0.0
1586176539904,4645107.0,4661790.0,0.0
1586176539954,4671183.0,4661126.0,0.0
1586176540006,4727596.0,4651127.0,0.0
1586176540048,4805193.0,4645329.0,0.0
1586176540104,4903168.0,4652785.0,0.0
1586176540147,5018646.0,4675478.0,0.0
1586176540200,5130859.0,4706513.0,0.0
1586176540247,5227824.0,4731304.0,0.0
1586176540293,5323219.0,4780080.0,0.0
1586176540344,5432474.0,4825929.0,0.0
1586176540394,5562583.0,4883807.0,0.0
1586176540442,5688868.0,4958360.0,0.0
1586176540489,5772397.0,5024493.0,0.0
1586176540540,5776654.0,5029174.0,0.0
1586176540590,5789090.0,4979098.0,0.0
1586176540636,5748136.0,4928664.0,0.0
1586176540684,5726722.0,4909872.0,0.0
1586176540733,5722459.0,4903005.0,0.0
1586176540785,5721600.0,4899055.0,0.0
1586176540829,5724867.0,4892891.0,0.0
1586176540874,5710417.0,4873896.0,0.0
1586176540928,5683970.0,4847918.0,0.0
1586176540977,5673996.0,4835937.0,0.0
1586176541024,5659296.0,4830061.0,0.0
1586176541073,5628970.0,4819831.0,0.0
1586176541122,5589928.0,4809045.0,0.0
1586176541169,5557849.0,4809478.0,0.0
1586176541220,5529333.0,4810904.0,0.0
1586176541269,5499924.0,4806009.0,0.0
1586176541316,5473046.0,4806810.0,0.0
1586176541364,5453915.0,4805587.0,0.0
1586176541413,5436342.0,4805847.0,0.0
1586176541461,5415289.0,4802639.0,0.0
1586176541505,5374720.0,4764623.0,0.0
1586176541558,5320366.0,4707687.0,0.0
1586176541609,5275398.0,4677914.0,0.0
1586176541650,5249572.0,4654104.0,0.0
1586176541704,5218094.0,4631671.0,0.0
1586176541753,5186310.0,4614016.0,0.0
1586176541802,5141611.0,4593385.0,0.0
1586176541847,5086817.0,4585303.0,0.0
1586176541898,5045467.0,4589763.0,0.0
1586176541945,5014995.0,4598586.0,0.0
1586176541996,4992946.0,4609210.0,0.0
1586176542044,4965798.0,4614440.0,0.0
1586176542093,4946564.0,4627982.0,0.0
1586176542141,4932691.0,4644232.0,0.0
1586176542187,4925986.0,4658110.0,0.0
1586176542234,4923713.0,4670565.0,0.0
1586176542285,4930576.0,4680275.0,0.0
1586176542335,4933335.0,4688461.0,0.0
1586176542383,4933538.0,4691823.0,0.0
1586176542429,4921429.0,4673377.0,0.0
1586176542477,4894179.0,4642921.0,0.0
1586176542530,4878315.0,4633404.0,0.0
1586176542578,4861184.0,4629418.0,0.0
1586176542625,4848735.0,4631980.0,0.0
1586176542675,4837926.0,4632364.0,0.0
1586176542720,4815697.0,4624207.0,0.0
1586176542766,4798679.0,4624188.0,0.0
1586176542821,4791419.0,4626210.0,0.0
1586176542872,4791273.0,4637277.0,0.0
1586176542920,4792539.0,4651272.0,0.0
1586176542965,4805745.0,4677953.0,0.0
1586176543206,4822040.0,4713177.0,0.0
1586176543206,4852161.0,4741688.0,0.0
1586176543206,4883992.0,4769351.0,0.0
1586176543207,4931809.0,4804171.0,0.0
1586176543240,4952773.0,4811877.0,0.0
1586176543264,4940629.0,4792151.0,0.0
1586176543556,5111523.0,4865584.0,0.0
1586176543556,5214453.0,4907550.0,0.0
1586176543557,5307532.0,4958947.0,0.0
1586176543610,5364679.0,4978769.0,0.0
1586176543677,5404040.0,5003341.0,0.0
1586176543697,5449472.0,5062211.0,0.0
1586176543744,5481593.0,5105517.0,0.0
1586176543796,5505430.0,5135097.0,0.0
1586176543839,5527716.0,5159706.0,0.0
1586176543886,5551744.0,5181090.0,0.0
1586176543937,5578882.0,5197657.0,0.0
1586176543983,5584997.0,5208059.0,0.0
1586176544032,5589894.0,5193612.0,0.0
1586176544081,5582917.0,5171774.0,0.0
1586176544131,5571781.0,5154255.0,0.0
1586176544178,5560744.0,5135597.0,0.0
1586176544227,5555033.0,5124713.0,0.0
1586176544277,5554366.0,5115958.0,0.0
1586176544324,5552796.0,5110544.0,0.0
1586176544370,5543535.0,5107116.0,0.0
1586176544422,5488446.0,5098534.0,0.0
1586176544469,5432939.0,5100066.0,0.0
1586176544518,5384510.0,5088487.0,0.0
1586176544565,5338548.0,5084336.0,0.0
1586176544617,5295987.0,5081234.0,0.0
1586176544663,5270016.0,5061335.0,0.0
1586176544713,5241691.0,5038295.0,0.0
1586176544762,5199652.0,4975687.0,0.0
1586176544811,5140504.0,4914793.0,0.0
1586176544859,5097469.0,4875745.0,0.0
1586176544906,5060969.0,4844818.0,0.0
1586176544952,5041204.0,4821701.0,0.0
1586176545004,5016317.0,4787470.0,0.0
1586176545054,4986004.0,4748306.0,0.0
1586176545101,4963413.0,4712059.0,0.0
1586176545149,4949719.0,4684253.0,0.0
1586176545194,4940560.0,4659817.0,0.0
1586176545246,4940233.0,4647265.0,0.0
1586176545291,4940322.0,4644955.0,0.0
1586176545344,4952196.0,4640176.0,0.0
1586176545395,4966137.0,4638992.0,0.0
1586176545441,4977219.0,4630824.0,0.0
1586176545488,4966940.0,4607591.0,0.0
1586176545538,4946553.0,4570546.0,0.0
1586176545585,4924990.0,4561956.0,0.0
1586176545632,4910982.0,4556446.0,0.0
1586176545678,4901686.0,4562033.0,0.0
1586176545734,4896440.0,4562360.0,0.0
1586176545781,4887598.0,4565934.0,0.0
1586176545824,4883675.0,4591727.0,0.0
1586176545875,4889973.0,4619005.0,0.0
1586176545925,4903361.0,4635987.0,0.0
1586176545974,4917855.0,4642429.0,0.0
1586176546022,4922638.0,4640302.0,0.0
1586176546071,4929536.0,4652698.0,0.0
1586176546120,4944755.0,4661347.0,0.0
1586176546168,4959252.0,4662562.0,0.0
1586176546219,4931356.0,4628041.0,0.0
1586176546264,4881605.0,4583310.0,0.0
1586176546312,4835890.0,4552112.0,0.0
1586176546362,4803065.0,4539387.0,0.0
1586176546411,4774426.0,4524361.0,0.0
1586176546460,4746575.0,4509086.0,0.0
1586176546503,4723927.0,4485390.0,0.0
1586176546559,4698091.0,4467561.0,0.0
1586176546605,4681933.0,4455050.0,0.0
1586176546655,4669868.0,4447353.0,0.0
1586176546703,4651416.0,4436008.0,0.0
1586176546751,4639146.0,4427205.0,0.0
1586176546802,4631005.0,4427079.0,0.0
1586176546847,4624379.0,4420819.0,0.0
1586176546898,4605870.0,4393955.0,0.0
1586176546944,4558900.0,4333561.0,0.0
1586176546993,4517493.0,4289747.0,0.0
1586176547042,4489610.0,4267708.0,0.0
1586176547090,4465582.0,4244043.0,0.0
1586176547140,4448532.0,4230414.0,0.0
1586176547183,4428247.0,4214030.0,0.0
1586176547231,4411568.0,4196093.0,0.0
1586176547285,4394969.0,4183572.0,0.0
1586176547333,4389463.0,4180057.0,0.0
1586176547382,4384227.0,4178718.0,0.0
1586176547430,4378632.0,4177629.0,0.0
1586176547479,4373012.0,4181406.0,0.0
1586176547527,4369371.0,4185065.0,0.0
1586176547576,4367550.0,4192298.0,0.0
1586176547621,4364722.0,4199340.0,0.0
1586176547673,4359206.0,4192030.0,0.0
1586176547723,4324028.0,4145594.0,0.0
1586176547770,4287248.0,4106863.0,0.0
1586176547815,4261942.0,4092040.0,0.0
1586176547866,4260437.0,4104773.0,0.0
1586176547918,4273227.0,4109696.0,0.0
1586176547958,4301482.0,4130712.0,0.0
1586176548013,4351823.0,4142116.0,0.0
1586176548062,4402986.0,4157442.0,0.0
1586176548110,4455011.0,4185634.0,0.0
1586176548154,4494065.0,4205188.0,0.0
1586176548206,4534952.0,4227976.0,0.0
1586176548254,4576528.0,4241143.0,0.0
1586176548300,4600647.0,4250400.0,0.0
1586176548352,4627059.0,4262072.0,0.0
1586176548402,4644246.0,4269509.0,0.0
1586176548449,4652172.0,4274334.0,0.0
1586176548496,4642799.0,4253202.0,0.0
1586176548546,4608040.0,4214259.0,0.0
1586176548597,4584149.0,4197829.0,0.0
1586176548647,4580441.0,4198838.0,0.0
1586176548692,4575951.0,4203367.0,0.0
1586176548740,4571136.0,4207026.0,0.0
1586176548791,4558900.0,4195256.0,0.0
1586176548836,4550928.0,4175867.0,0.0
1586176548882,4549697.0,4164067.0,0.0
1586176548935,4538819.0,4166552.0,0.0
1586176548983,4528020.0,4173517.0,0.0
1586176549032,4520218.0,4189911.0,0.0
1586176549080,4525805.0,4208115.0,0.0
1586176549128,4530383.0,4222602.0,0.0
1586176549178,4544404.0,4241749.0,0.0
1586176549226,4561806.0,4262198.0,0.0
1586176549275,4577422.0,4264289.0,0.0
1586176549318,4563965.0,4231269.0,0.0
1586176549371,4554806.0,4212295.0,0.0
1586176549422,4556074.0,4204050.0,0.0
1586176549468,4559420.0,4203666.0,0.0
1586176549520,4553868.0,4199407.0,0.0
1586176549565,4569065.0,4202201.0,0.0
1586176549614,4596010.0,4176128.0,0.0
1586176549661,4643941.0,4171889.0,0.0
1586176549711,4649289.0,4164693.0,0.0
1586176549756,4610482.0,4163490.0,0.0
1586176549808,4589192.0,4185904.0,0.0
1586176549856,4580079.0,4215889.0,0.0
1586176549900,4578507.0,4252334.0,0.0
1586176549953,4585788.0,4285565.0,0.0
1586176550001,4600815.0,4314963.0,0.0
1586176550050,4610742.0,4337241.0,0.0
1586176550098,4611388.0,4338330.0,0.0
1586176550143,4596327.0,4312141.0,0.0
1586176550196,4580327.0,4299686.0,0.0
1586176550243,4582532.0,4300698.0,0.0
1586176550293,4581548.0,4298347.0,0.0
1586176550340,4584399.0,4302403.0,0.0
1586176550391,4584330.0,4310339.0,0.0
1586176550438,4581266.0,4320298.0,0.0
1586176550486,4586556.0,4335874.0,0.0
1586176550536,4604999.0,4351794.0,0.0
1586176550580,4632962.0,4368660.0,0.0
1586176550632,4661479.0,4391172.0,0.0
1586176550683,4684194.0,4412862.0,0.0
1586176550729,4705982.0,4423582.0,0.0
1586176550782,4731221.0,4447152.0,0.0
1586176550821,4757757.0,4472464.0,0.0
1586176550869,4778461.0,4486836.0,0.0
1586176550920,4776009.0,4479457.0,0.0
1586176550968,4766285.0,4459038.0,0.0
1586176551019,4757985.0,4453085.0,0.0
1586176551064,4757973.0,4449405.0,0.0
1586176551115,4756945.0,4449915.0,0.0
1586176551164,4756232.0,4447894.0,0.0
1586176551214,4744970.0,4438676.0,0.0
1586176551257,4733708.0,4434090.0,0.0
1586176551306,4728224.0,4429978.0,0.0
1586176551361,4729356.0,4439889.0,0.0
1586176551408,4736467.0,4451911.0,0.0
1586176551458,4735246.0,4454308.0,0.0
1586176551503,4724516.0,4452112.0,0.0
1586176551555,4716974.0,4458711.0,0.0
1586176551597,4702173.0,4462872.0,0.0
1586176551651,4695491.0,4473476.0,0.0
1586176551702,4669405.0,4459383.0,0.0
1586176551747,4641556.0,4434881.0,0.0
1586176551800,4629434.0,4420760.0,0.0
1586176551844,4635166.0,4411349.0,0.0
1586176551893,4675917.0,4377821.0,0.0
1586176551938,4727682.0,4369239.0,0.0
1586176551990,4766726.0,4376240.0,0.0
1586176552043,4747954.0,4375094.0,0.0
1586176552087,4744370.0,4383561.0,0.0
1586176552137,4755746.0,4401015.0,0.0
1586176552180,4772536.0,4415414.0,0.0
1586176552228,4782250.0,4433859.0,0.0
1586176552282,4775669.0,4445968.0,0.0
1586176552330,4774979.0,4457140.0,0.0
1586176552378,4766443.0,4478388.0,0.0
1586176552426,4760777.0,4499762.0,0.0
1586176552476,4732328.0,4532847.0,0.0
1586176552522,4683008.0,4556667.0,0.0
1586176552572,4622740.0,4547094.0,0.0
1586176552624,4578427.0,4546852.0,0.0
1586176552669,4549097.0,4556745.0,0.0
1586176552715,4519903.0,4563535.0,0.0
1586176552766,4500148.0,4568350.0,0.0
1586176552816,4495162.0,4574187.0,0.0
1586176552858,4492663.0,4569372.0,0.0
1586176552912,4482318.0,4574256.0,0.0
1586176552958,4475194.0,4591236.0,0.0
1586176553008,4479276.0,4629215.0,0.0
1586176553057,4503044.0,4637297.0,0.0
1586176553105,4512101.0,4646024.0,0.0
1586176553157,4529446.0,4671490.0,0.0
1586176553200,4548859.0,4693095.0,0.0
1586176553251,4573712.0,4709989.0,0.0
1586176553300,4586908.0,4725420.0,0.0
1586176553343,4575272.0,4732182.0,0.0
1586176553399,4548713.0,4708910.0,0.0
1586176553445,4531334.0,4715335.0,0.0
1586176553494,4529818.0,4725343.0,0.0
1586176553544,4528225.0,4734242.0,0.0
1586176553590,4531537.0,4756656.0,0.0
1586176553640,4539272.0,4777461.0,0.0
1586176553687,4547141.0,4790011.0,0.0
1586176553737,4555973.0,4793230.0,0.0
1586176553780,4567549.0,4801926.0,0.0
1586176553834,4566477.0,4800646.0,0.0
1586176553884,4575059.0,4810682.0,0.0
1586176553924,4585484.0,4823338.0,0.0
1586176553978,4604852.0,4845464.0,0.0
1586176554022,4625657.0,4861992.0,0.0
1586176554077,4637563.0,4869928.0,0.0
1586176554123,4630395.0,4843700.0,0.0
1586176554172,4607374.0,4789463.0,0.0
1586176554226,4589442.0,4750067.0,0.0
1586176554266,4584919.0,4729648.0,0.0
1586176554313,4576109.0,4706696.0,0.0
1586176554366,4572198.0,4680844.0,0.0
1586176554416,4583572.0,4654711.0,0.0
1586176554464,4615503.0,4616876.0,0.0
1586176554512,4661569.0,4581441.0,0.0
1586176554562,4692912.0,4568082.0,0.0
1586176554605,4698802.0,4564498.0,0.0
1586176554657,4684625.0,4567868.0,0.0
1586176554703,4669982.0,4601427.0,0.0
1586176554756,4663842.0,4648970.0,0.0
1586176554807,4681447.0,4694481.0,0.0
1586176554852,4711907.0,4721798.0,0.0
1586176554901,4762044.0,4755307.0,0.0
1586176554944,4787315.0,4745378.0,0.0
1586176554998,4791635.0,4709402.0,0.0
1586176555043,4797198.0,4694779.0,0.0
1586176555095,4815266.0,4685803.0,0.0
1586176555145,4827422.0,4677327.0,0.0
1586176555187,4839690.0,4675236.0,0.0
1586176555240,4850771.0,4663466.0,0.0
1586176555288,4861161.0,4664498.0,0.0
1586176555338,4868750.0,4656444.0,0.0
1586176555383,4883425.0,4653758.0,0.0
1586176555429,4889904.0,4651619.0,0.0
1586176555483,4887450.0,4644955.0,0.0
1586176555531,4890120.0,4647082.0,0.0
1586176555580,4893488.0,4649528.0,0.0
1586176555627,4893964.0,4650695.0,0.0
1586176555678,4897649.0,4652121.0,0.0
1586176555727,4887576.0,4638915.0,0.0
1586176555774,4859918.0,4593028.0,0.0
1586176555823,4838164.0,4563815.0,0.0
1586176555864,4836817.0,4558285.0,0.0
1586176555914,4837258.0,4549847.0,0.0
1586176555964,4845344.0,4553228.0,0.0
1586176556012,4863876.0,4566048.0,0.0
1586176556063,4891081.0,4574833.0,0.0
1586176556108,4938796.0,4604182.0,0.0
1586176556162,4987757.0,4631133.0,0.0
1586176556210,5036932.0,4660721.0,0.0
1586176556258,5088627.0,4696061.0,0.0
1586176556301,5145807.0,4741120.0,0.0
1586176556356,5199370.0,4783067.0,0.0
1586176556405,5243942.0,4815969.0,0.0
1586176556453,5293377.0,4852234.0,0.0
1586176556501,5326880.0,4879097.0,0.0
1586176556546,5350578.0,4899807.0,0.0
1586176556599,5364736.0,4913379.0,0.0
1586176556642,5387542.0,4935224.0,0.0
1586176556691,5403520.0,4956856.0,0.0
1586176556743,5414985.0,4973771.0,0.0
1586176556792,5431277.0,4993757.0,0.0
1586176556842,5442653.0,5011132.0,0.0
1586176556889,5452615.0,5025282.0,0.0
1586176556939,5456548.0,5029174.0,0.0
1586176556984,5457702.0,5027112.0,0.0
1586176557036,5486569.0,5042263.0,0.0
1586176557084,5510438.0,5053147.0,0.0
1586176557133,5524640.0,5053263.0,0.0
1586176557182,5531062.0,5053293.0,0.0
1586176557225,5532251.0,5044614.0,0.0
1586176557274,5532442.0,5029944.0,0.0
1586176557328,5517732.0,4980388.0,0.0
1586176557376,5496870.0,4930677.0,0.0
1586176557423,5475590.0,4906164.0,0.0
1586176557472,5463661.0,4892160.0,0.0
1586176557515,5463740.0,4891341.0,0.0
1586176557565,5464769.0,4892649.0,0.0
1586176557615,5461128.0,4888326.0,0.0
1586176557665,5458765.0,4887594.0,0.0
1586176557711,5465380.0,4898043.0,0.0
1586176557759,5472459.0,4906404.0,0.0
1586176557810,5485687.0,4915382.0,0.0
1586176557861,5496328.0,4934849.0,0.0
1586176557903,5513197.0,4954786.0,0.0
1586176557954,5528066.0,4971690.0,0.0
1586176558005,5544214.0,4994393.0,0.0
1586176558054,5560722.0,5010257.0,0.0
1586176558103,5569609.0,5019359.0,0.0
1586176558151,5564734.0,4995336.0,0.0
1586176558200,5563209.0,4980504.0,0.0
1586176558246,5557997.0,4973897.0,0.0
1586176558298,5478812.0,4943508.0,0.0
1586176558344,5404434.0,4941763.0,0.0
1586176558393,5333877.0,4955219.0,0.0
1586176558442,5288911.0,4960796.0,0.0
1586176558489,5264700.0,4954660.0,0.0
1586176558540,5257057.0,4969445.0,0.0
1586176558588,5275274.0,4988267.0,0.0
1586176558639,5269812.0,5022817.0,0.0
1586176558685,5292245.0,5043931.0,0.0
1586176558734,5336931.0,5062424.0,0.0
1586176558776,5379537.0,5073442.0,0.0
1586176558828,5416555.0,5085665.0,0.0
1586176558879,5448691.0,5093969.0,0.0
1586176558930,5471780.0,5095076.0,0.0
1586176558976,5488016.0,5091888.0,0.0
1586176559024,5503904.0,5103774.0,0.0
1586176559073,5513730.0,5122017.0,0.0
1586176559118,5515008.0,5146280.0,0.0
1586176559166,5513616.0,5177910.0,0.0
1586176559219,5509262.0,5189258.0,0.0
1586176559266,5485281.0,5192502.0,0.0
1586176559311,5458992.0,5179654.0,0.0
1586176559363,5438118.0,5164773.0,0.0
1586176559413,5414836.0,5138862.0,0.0
1586176559461,5388446.0,5114782.0,0.0
1586176559510,5357952.0,5089816.0,0.0
1586176559558,5333268.0,5077883.0,0.0
1586176559605,5300794.0,5064437.0,0.0
1586176559656,5257815.0,5018221.0,0.0
1586176559702,5199154.0,4958321.0,0.0
1586176559748,5158121.0,4938817.0,0.0
1586176559801,5120152.0,4942082.0,0.0
1586176559850,5094903.0,4975311.0,0.0
1586176559898,5084216.0,5002532.0,0.0
1586176559945,5090403.0,5036503.0,0.0
1586176559990,5118545.0,5059880.0,0.0
1586176560037,5140650.0,5080636.0,0.0
1586176560086,5162949.0,5085781.0,0.0
1586176560136,5175545.0,5085212.0,0.0
1586176560187,5169869.0,5067836.0,0.0
1586176560234,5166963.0,5052021.0,0.0
1586176560281,5170671.0,5034327.0,0.0
1586176560335,5177772.0,5015458.0,0.0
1586176560380,5161705.0,4983298.0,0.0
1586176560430,5114260.0,4926429.0,0.0
1586176560480,5063310.0,4880369.0,0.0
1586176560527,5016047.0,4874754.0,0.0
1586176560578,4998995.0,4864640.0,0.0
1586176560624,5001031.0,4856868.0,0.0
1586176560674,5010460.0,4838586.0,0.0
1586176560722,5020615.0,4815912.0,0.0
1586176560772,5024833.0,4798632.0,0.0
1586176560820,5024912.0,4783829.0,0.0
1586176560867,5028394.0,4783626.0,0.0
1586176560917,5033969.0,4780129.0,0.0
1586176560958,5041895.0,4781622.0,0.0
1586176561013,5048612.0,4770507.0,0.0
1586176561058,5042064.0,4760210.0,0.0
1586176561113,5036818.0,4741148.0,0.0
1586176561160,4995502.0,4666693.0,0.0
1586176561206,4952206.0,4592873.0,0.0
1586176561257,4919767.0,4540438.0,0.0
1586176561304,4885461.0,4488299.0,0.0
1586176561352,4845094.0,4438763.0,0.0
1586176561402,4802196.0,4391489.0,0.0
1586176561452,4756853.0,4360031.0,0.0
1586176561499,4718941.0,4330922.0,0.0
1586176561547,4696360.0,4297961.0,0.0
1586176561597,4678507.0,4262005.0,0.0
1586176561644,4658641.0,4242732.0,0.0
1586176561689,4637576.0,4235170.0,0.0
1586176561742,4614779.0,4230712.0,0.0
1586176561790,4593657.0,4234506.0,0.0
1586176561838,4576258.0,4234758.0,0.0
1586176561886,4529399.0,4182377.0,0.0
1586176561937,4477817.0,4139690.0,0.0
1586176561983,4449391.0,4128544.0,0.0
1586176562031,4438944.0,4136482.0,0.0
1586176562081,4435415.0,4145873.0,0.0
1586176562130,4425612.0,4144534.0,0.0
1586176562174,4400115.0,4122853.0,0.0
1586176562225,4384839.0,4106575.0,0.0
1586176562271,4372039.0,4087938.0,0.0
1586176562318,4368229.0,4078006.0,0.0
1586176562374,4363479.0,4072728.0,0.0
1586176562416,4376120.0,4083785.0,0.0
1586176562469,4392957.0,4095093.0,0.0
1586176562518,4420376.0,4109696.0,0.0
1586176562559,4451301.0,4121975.0,0.0
1586176562616,4478100.0,4126502.0,0.0
1586176562659,4466736.0,4090595.0,0.0
1586176562711,4453144.0,4059215.0,0.0
1586176562757,4450568.0,4053059.0,0.0
1586176562804,4457488.0,4055535.0,0.0
1586176562858,4464260.0,4062634.0,0.0
1586176562905,4466115.0,4066314.0,0.0
1586176562951,4468500.0,4064339.0,0.0
1586176563001,4468693.0,4070282.0,0.0
1586176563050,4474075.0,4082216.0,0.0
1586176563099,4484171.0,4095701.0,0.0
1586176563148,4493444.0,4116100.0,0.0
1586176563193,4500148.0,4128613.0,0.0
1586176563245,4506955.0,4148079.0,0.0
1586176563291,4520399.0,4169490.0,0.0
1586176563342,4531197.0,4194389.0,0.0
1586176563390,4535428.0,4206043.0,0.0
1586176563442,4501800.0,4165802.0,0.0
1586176563673,4463898.0,4139804.0,0.0
1586176563673,4446610.0,4133024.0,0.0
1586176563673,4430870.0,4133477.0,0.0
1586176563673,4421339.0,4136492.0,0.0
1586176563713,4411298.0,4141539.0,0.0
1586176563883,4466996.0,4195401.0,0.0
1586176564061,4473996.0,4213566.0,0.0
1586176564061,4438660.0,4219056.0,0.0
1586176564063,4396440.0,4261995.0,0.0
1586176564084,4374052.0,4302750.0,0.0
1586176564150,4368987.0,4340112.0,0.0
1586176564165,4381933.0,4378938.0,0.0
1586176564210,4401607.0,4408017.0,0.0
1586176564264,4393624.0,4383926.0,0.0
1586176564312,4376641.0,4368237.0,0.0
1586176564362,4385901.0,4369190.0,0.0
1586176564410,4399707.0,4367467.0,0.0
1586176564459,4416227.0,4367717.0,0.0
1586176564503,4432227.0,4368690.0,0.0
1586176564553,4440220.0,4364231.0,0.0
1586176564604,4446858.0,4365425.0,0.0
1586176564653,4458821.0,4371348.0,0.0
1586176564701,4467821.0,4386297.0,0.0
1586176564750,4485867.0,4403817.0,0.0
1586176564798,4502251.0,4416473.0,0.0
1586176564844,4524029.0,4430998.0,0.0
1586176564895,4552376.0,4434582.0,0.0
1586176564944,4565798.0,4438272.0,0.0
1586176564994,4570105.0,4457439.0,0.0
1586176565035,4584139.0,4470865.0,0.0
1586176565084,4593273.0,4463101.0,0.0
1586176565138,4566532.0,4424671.0,0.0
1586176565182,4540934.0,4392866.0,0.0
1586176565238,4525488.0,4392181.0,0.0
1586176565280,4511331.0,4388782.0,0.0
1586176565333,4500183.0,4391354.0,0.0
1586176565383,4484364.0,4389514.0,0.0
1586176565430,4472277.0,4381066.0,0.0
1586176565474,4468037.0,4373487.0,0.0
1586176565522,4469676.0,4374901.0,0.0
1586176565577,4477263.0,4371618.0,0.0
1586176565624,4488458.0,4377541.0,0.0
1586176565672,4498226.0,4380903.0,0.0
1586176565722,4510957.0,4383821.0,0.0
1586176565769,4525679.0,4388937.0,0.0
1586176565817,4540651.0,4393165.0,0.0
1586176565865,4540277.0,4382896.0,0.0
1586176565911,4513401.0,4342597.0,0.0
1586176565958,4493637.0,4309308.0,0.0
1586176566011,4488899.0,4293156.0,0.0
1586176566250,4481062.0,4281549.0,0.0
1586176566250,4479128.0,4276839.0,0.0
1586176566250,4473419.0,4272014.0,0.0
1586176566252,4469054.0,4259155.0,0.0
1586176566288,4465674.0,4249185.0,0.0
1586176566304,4471135.0,4246798.0,0.0
1586176566437,4478100.0,4245892.0,0.0
1586176566437,4487111.0,4248809.0,0.0
1586176566459,4496158.0,4253328.0,0.0
1586176566499,4505937.0,4256979.0,0.0
1586176566821,4513298.0,4261148.0,0.0
1586176566821,4522390.0,4267572.0,0.0
1586176566821,4531628.0,4268478.0,0.0
1586176566821,4516656.0,4241221.0,0.0
1586176566821,4480101.0,4186365.0,0.0
1586176566821,4455281.0,4160408.0,0.0
1586176566894,4447368.0,4145373.0,0.0
1586176566894,4447118.0,4139719.0,0.0
1586176566970,4442855.0,4133477.0,0.0
1586176566992,4432656.0,4127187.0,0.0
1586176567030,4426325.0,4119568.0,0.0
1586176567075,4422513.0,4115976.0,0.0
1586176567126,4428722.0,4124383.0,0.0
1586176567176,4434194.0,4127910.0,0.0
1586176567224,4443816.0,4135249.0,0.0
1586176567270,4448282.0,4146123.0,0.0
1586176567320,4459544.0,4154764.0,0.0
1586176567368,4466590.0,4168161.0,0.0
1586176567419,4476438.0,4173238.0,0.0
1586176567465,4460686.0,4147529.0,0.0
1586176567515,4427026.0,4099620.0,0.0
1586176567558,4408945.0,4084740.0,0.0
1586176567612,4401743.0,4085672.0,0.0
1586176567663,4395593.0,4100872.0,0.0
1586176567708,4405666.0,4128284.0,0.0
1586176567762,4419925.0,4131137.0,0.0
1586176567805,4439090.0,4136683.0,0.0
1586176567858,4462766.0,4143995.0,0.0
1586176567897,4484002.0,4152047.0,0.0
1586176567947,4508730.0,4160900.0,0.0
1586176568001,4530497.0,4167448.0,0.0
1586176568047,4545184.0,4175857.0,0.0
1586176568099,4567958.0,4189082.0,0.0
1586176568142,4581288.0,4201238.0,0.0
1586176568188,4559827.0,4190720.0,0.0
1586176568238,4528235.0,4166292.0,0.0
1586176568286,4499685.0,4167237.0,0.0
1586176568343,4494652.0,4184970.0,0.0
1586176568387,4502885.0,4198733.0,0.0
1586176568437,4513729.0,4211053.0,0.0
1586176568484,4527240.0,4215889.0,0.0
1586176568533,4531787.0,4221744.0,0.0
1586176568576,4548475.0,4231194.0,0.0
1586176568630,4566769.0,4229266.0,0.0
1586176568681,4569912.0,4220676.0,0.0
1586176568727,4598418.0,4267073.0,0.0
1586176568776,4633494.0,4309540.0,0.0
1586176568820,4653947.0,4341461.0,0.0
1586176568873,4660461.0,4359810.0,0.0
1586176568923,4652478.0,4362120.0,0.0
1586176568969,4616092.0,4327263.0,0.0
1586176569017,4583505.0,4285826.0,0.0
1586176569061,4568884.0,4269913.0,0.0
1586176569116,4562553.0,4260136.0,0.0
1586176569159,4550103.0,4246450.0,0.0
1586176569212,4544314.0,4243984.0,0.0
1586176569264,4531447.0,4231415.0,0.0
1586176569307,4518816.0,4220655.0,0.0
1586176569354,4518499.0,4222331.0,0.0
1586176569405,4515017.0,4223343.0,0.0
1586176569454,4517426.0,4227216.0,0.0
1586176569497,4515809.0,4232667.0,0.0
1586176569550,4519371.0,4247702.0,0.0
1586176569603,4518523.0,4257970.0,0.0
1586176569647,4514236.0,4265878.0,0.0
1586176569697,4494845.0,4279873.0,0.0
1586176569744,4462417.0,4248742.0,0.0
1586176569793,4424764.0,4218768.0,0.0
1586176569840,4400091.0,4205860.0,0.0
1586176569890,4410313.0,4218873.0,0.0
1586176569938,4422605.0,4223343.0,0.0
1586176569982,4451980.0,4235721.0,0.0
1586176570036,4469575.0,4233929.0,0.0
1586176570082,4488490.0,4230857.0,0.0
1586176570132,4512666.0,4233004.0,0.0
1586176570181,4529060.0,4237049.0,0.0
1586176570225,4552332.0,4249589.0,0.0
1586176570278,4569925.0,4256284.0,0.0
1586176570322,4589261.0,4266233.0,0.0
1586176570371,4611128.0,4281742.0,0.0
1586176570421,4637722.0,4297472.0,0.0
1586176570472,4643149.0,4290718.0,0.0
1586176570526,4616510.0,4249494.0,0.0
1586176570568,4603676.0,4229623.0,0.0
1586176570619,4601224.0,4230846.0,0.0
1586176570665,4602670.0,4235585.0,0.0
1586176570715,4607329.0,4241210.0,0.0
1586176570762,4607872.0,4242925.0,0.0
1586176570811,4604265.0,4246662.0,0.0
1586176570864,4620241.0,4264124.0,0.0
1586176570908,4638648.0,4281193.0,0.0
1586176570959,4659974.0,4298038.0,0.0
1586176570999,4680632.0,4313153.0,0.0
1586176571248,4700204.0,4329063.0,0.0
1586176571248,4721034.0,4344994.0,0.0
1586176571248,4743580.0,4372089.0,0.0
1586176571248,4768997.0,4387250.0,0.0
1586176571248,4756028.0,4368323.0,0.0
1586176571300,4714136.0,4328167.0,0.0
1586176571422,4692845.0,4316042.0,0.0
1586176571422,4677613.0,4312429.0,0.0
1586176571460,4655847.0,4312064.0,0.0
1586176571744,4524052.0,4334293.0,0.0
1586176571744,4491192.0,4346199.0,0.0
1586176571744,4454615.0,4352768.0,0.0
1586176571744,4430090.0,4365626.0,0.0
1586176571789,4411670.0,4379322.0,0.0
1586176571868,4400195.0,4397557.0,0.0
1586176571881,4416182.0,4409559.0,0.0
1586176571923,4435234.0,4415154.0,0.0
1586176571976,4455700.0,4428196.0,0.0
1586176572025,4468331.0,4425557.0,0.0
1586176572067,4443658.0,4376250.0,0.0
1586176572120,4425126.0,4327281.0,0.0
1586176572169,4421067.0,4300111.0,0.0
1586176572219,4425092.0,4281500.0,0.0
1586176572260,4435957.0,4265965.0,0.0
1586176572314,4446565.0,4252566.0,0.0
1586176572363,4454184.0,4236769.0,0.0
1586176572411,4461151.0,4225115.0,0.0
1586176572460,4474075.0,4218219.0,0.0
1586176572509,4491769.0,4215204.0,0.0
1586176572557,4508131.0,4217496.0,0.0
1586176572604,4527477.0,4217622.0,0.0
1586176572654,4540141.0,4219625.0,0.0
1586176572702,4559827.0,4220174.0,0.0
1586176572746,4578054.0,4229219.0,0.0
1586176572800,4596587.0,4234207.0,0.0
1586176572848,4608662.0,4229680.0,0.0
1586176572898,4580293.0,4182349.0,0.0
1586176572947,4551007.0,4146452.0,0.0
1586176572993,4538932.0,4132522.0,0.0
1586176573041,4538118.0,4120088.0,0.0
1586176573090,4530836.0,4128796.0,0.0
1586176573139,4547356.0,4162267.0,0.0
1586176573181,4556074.0,4187357.0,0.0
1586176573236,4542019.0,4199157.0,0.0
1586176573288,4509612.0,4192115.0,0.0
1586176573328,4474028.0,4184025.0,0.0
1586176573382,4456108.0,4193387.0,0.0
1586176573432,4464249.0,4213373.0,0.0
1586176573479,4493307.0,4241403.0,0.0
1586176573523,4533573.0,4263403.0,0.0
1586176573575,4558053.0,4277560.0,0.0
1586176573623,4574098.0,4278755.0,0.0
1586176573671,4544879.0,4235585.0,0.0
1586176573721,4497978.0,4189486.0,0.0
1586176573765,4472074.0,4171591.0,0.0
1586176573817,4441386.0,4165946.0,0.0
1586176573870,4431028.0,4165965.0,0.0
1586176573915,4426020.0,4167921.0,0.0
1586176573958,4424029.0,4156535.0,0.0
1586176574011,4411105.0,4148772.0,0.0
1586176574060,4395038.0,4141655.0,0.0
1586176574106,4385664.0,4156409.0,0.0
1586176574154,4399650.0,4175731.0,0.0
1586176574207,4420321.0,4189370.0,0.0
1586176574253,4427918.0,4198627.0,0.0
1586176574302,4417019.0,4218353.0,0.0
1586176574350,4400408.0,4238571.0,0.0
1586176574399,4382622.0,4262402.0,0.0
1586176574445,4357973.0,4253125.0,0.0
1586176574499,4306379.0,4212969.0,0.0
1586176574544,4268216.0,4201055.0,0.0
1586176574593,4250002.0,4208162.0,0.0
1586176574642,4232838.0,4219278.0,0.0
1586176574684,4223939.0,4239140.0,0.0
1586176574739,4217199.0,4248098.0,0.0
1586176574787,4211116.0,4258509.0,0.0
1586176574832,4215401.0,4265358.0,0.0
1586176574885,4232996.0,4277676.0,0.0
1586176574932,4278099.0,4322389.0,0.0
1586176574981,4367833.0,4422050.0,0.0
1586176575030,4460958.0,4506109.0,0.0
1586176575079,4526878.0,4560481.0,0.0
1586176575128,4566690.0,4580429.0,0.0
1586176575176,4600454.0,4595705.0,0.0
1586176575223,4632080.0,4599645.0,0.0
1586176575273,4654230.0,4594503.0,0.0
1586176575321,4635144.0,4534235.0,0.0
1586176575364,4621620.0,4484697.0,0.0
1586176575415,4614475.0,4463691.0,0.0
1586176575468,4617358.0,4456860.0,0.0
1586176575516,4611705.0,4457496.0,0.0
1586176575562,4603755.0,4457496.0,0.0
1586176575607,4580191.0,4455320.0,0.0
1586176575657,4649900.0,4484388.0,0.0
1586176575707,4753767.0,4543010.0,0.0
1586176575754,4845592.0,4611907.0,0.0
1586176575805,4924594.0,4665817.0,0.0
1586176575854,4990323.0,4701917.0,0.0
1586176575903,5046418.0,4746735.0,0.0
1586176575946,5096984.0,4786929.0,0.0
1586176576000,5146825.0,4825805.0,0.0
1586176576050,5188673.0,4845106.0,0.0
1586176576097,5200363.0,4826237.0,0.0
1586176576144,5185552.0,4789569.0,0.0
1586176576189,5182567.0,4768465.0,0.0
1586176576240,5187043.0,4759391.0,0.0
1586176576289,5200081.0,4761510.0,0.0
1586176576335,5216430.0,4769379.0,0.0
1586176576390,5220524.0,4765748.0,0.0
1586176576432,5220467.0,4759035.0,0.0
1586176576484,5234364.0,4766153.0,0.0
1586176576534,5252309.0,4776326.0,0.0
1586176576581,5274063.0,4792324.0,0.0
1586176576627,5292460.0,4803728.0,0.0
1586176576678,5313050.0,4818531.0,0.0
1586176576726,5336297.0,4837006.0,0.0
1586176576776,5360042.0,4857002.0,0.0
1586176576820,5379661.0,4863967.0,0.0
1586176576877,5360235.0,4823675.0,0.0
1586176576917,5333595.0,4769072.0,0.0
1586176576969,5318647.0,4754952.0,0.0
1586176577018,5318013.0,4747708.0,0.0
1586176577065,5323645.0,4744972.0,0.0
1586176577116,5323408.0,4744866.0,0.0
1586176577164,5324290.0,4743604.0,0.0
1586176577218,5319484.0,4733972.0,0.0
1586176577446,5322063.0,4735957.0,0.0
1586176577446,5325137.0,4742806.0,0.0
1586176577446,5335913.0,4758747.0,0.0
1586176577446,5351970.0,4778329.0,0.0
1586176577482,5366962.0,4800182.0,0.0
1586176577532,5380102.0,4816857.0,0.0
1586176577634,5393162.0,4834763.0,0.0
1586176577634,5404513.0,4849036.0,0.0
1586176577657,5386388.0,4815845.0,0.0
1586176577704,5353902.0,4771681.0,0.0
1586176577999,5347108.0,4765326.0,0.0
1586176578000,5351631.0,4771807.0,0.0
1586176578000,5349776.0,4773426.0,0.0
1586176578000,5350026.0,4782451.0,0.0
1586176578002,5345028.0,4775216.0,0.0
1586176578002,5333223.0,4773627.0,0.0
1586176578055,5331334.0,4773955.0,0.0
1586176578163,5335009.0,4778550.0,0.0
1586176578164,5338593.0,4781198.0,0.0
1586176578183,5327920.0,4773195.0,0.0
1586176578231,5312134.0,4747621.0,0.0
1586176578281,5284884.0,4724707.0,0.0
1586176578329,5262090.0,4720026.0,0.0
1586176578378,5213819.0,4662204.0,0.0
1586176578424,5156910.0,4590244.0,0.0
1586176578475,5105475.0,4536362.0,0.0
1586176578518,5072459.0,4512428.0,0.0
1586176578570,5044258.0,4502180.0,0.0
1586176578621,5029729.0,4503671.0,0.0
1586176578669,5005779.0,4486430.0,0.0
1586176578718,4994247.0,4479063.0,0.0
1586176578766,4981380.0,4470924.0,0.0
1586176578816,4980939.0,4470682.0,0.0
1586176578863,4989848.0,4471771.0,0.0
1586176578914,5008436.0,4471753.0,0.0
1586176578955,5026291.0,4493462.0,0.0
1586176579007,5044315.0,4518206.0,0.0
1586176579058,5064159.0,4533926.0,0.0
1586176579105,5063808.0,4492288.0,0.0
1586176579153,5093613.0,4452295.0,0.0
1586176579202,5176957.0,4468457.0,0.0
1586176579253,5206243.0,4472955.0,0.0
1586176579300,5188242.0,4461108.0,0.0
1586176579343,5137678.0,4447624.0,0.0
1586176579398,5097549.0,4430238.0,0.0
1586176579444,5050918.0,4423602.0,0.0
1586176579492,5020342.0,4421300.0,0.0
1586176579542,5008822.0,4419768.0,0.0
1586176579586,4995433.0,4412304.0,0.0
1586176579639,4974368.0,4407440.0,0.0
1586176579688,4958415.0,4403905.0,0.0
1586176579737,4946541.0,4410290.0,0.0
1586176579784,4943953.0,4419364.0,0.0
1586176579836,4909273.0,4384631.0,0.0
1586176579882,4847660.0,4324662.0,0.0
1586176579930,4785416.0,4295873.0,0.0
1586176579979,4740742.0,4311255.0,0.0
1586176580025,4720140.0,4320520.0,0.0
1586176580070,4737326.0,4323256.0,0.0
1586176580124,4753089.0,4323949.0,0.0
1586176580174,4754094.0,4322119.0,0.0
1586176580221,4741160.0,4326578.0,0.0
1586176580267,4731040.0,4334323.0,0.0
1586176580314,4729898.0,4343781.0,0.0
1586176580365,4726676.0,4352075.0,0.0
1586176580411,4728925.0,4371579.0,0.0
1586176580463,4720727.0,4384997.0,0.0
1586176580511,4713366.0,4405995.0,0.0
1586176580560,4688164.0,4412515.0,0.0
1586176580603,4633923.0,4370048.0,0.0
1586176580658,4585392.0,4347847.0,0.0
1586176580705,4557498.0,4347239.0,0.0
1586176580752,4539475.0,4358133.0,0.0
1586176580802,4527240.0,4365868.0,0.0
1586176580851,4516963.0,4368160.0,0.0
1586176580898,4502739.0,4363469.0,0.0
1586176580947,4493907.0,4365647.0,0.0
1586176580992,4492324.0,4372349.0,0.0
1586176581044,4494157.0,4382598.0,0.0
1586176581097,4497277.0,4392732.0,0.0
1586176581143,4497355.0,4400735.0,0.0
1586176581186,4498306.0,4411243.0,0.0
1586176581239,4509714.0,4434824.0,0.0
1586176581287,4536230.0,4448847.0,0.0
1586176581333,4551552.0,4437741.0,0.0
1586176581384,4586930.0,4434986.0,0.0
1586176581434,4657962.0,4478726.0,0.0
1586176581482,4737970.0,4536257.0,0.0
1586176581530,4807521.0,4593277.0,0.0
1586176581578,4868150.0,4643173.0,0.0
1586176581626,4906164.0,4671634.0,0.0
1586176581673,4944642.0,4704711.0,0.0
1586176581723,4976290.0,4729996.0,0.0
1586176581772,5011976.0,4762589.0,0.0
1586176581821,5044213.0,4793413.0,0.0
1586176581872,5079842.0,4828877.0,0.0
1586176581914,5106661.0,4854296.0,0.0
1586176581964,5117234.0,4863658.0,0.0
1586176582019,5122525.0,4875804.0,0.0
1586176582063,5123295.0,4880004.0,0.0
1586176582113,5085846.0,4814295.0,0.0
1586176582156,5020649.0,4710375.0,0.0
1586176582209,4966375.0,4644983.0,0.0
1586176582254,4930734.0,4604712.0,0.0
1586176582305,4904220.0,4582962.0,0.0
1586176582356,4881525.0,4564681.0,0.0
1586176582403,4850001.0,4535659.0,0.0
1586176582452,4830575.0,4512176.0,0.0
1586176582500,4807623.0,4486412.0,0.0
1586176582549,4789894.0,4477214.0,0.0
1586176582598,4778642.0,4472425.0,0.0
1586176582645,4771305.0,4467293.0,0.0
1586176582688,4763684.0,4461984.0,0.0
1586176582743,4756130.0,4462321.0,0.0
1586176582791,4746055.0,4454944.0,0.0
1586176582839,4719664.0,4427213.0,0.0
1586176582890,4652320.0,4362351.0,0.0
1586176582939,4595128.0,4318073.0,0.0
1586176582985,4563797.0,4296488.0,0.0
1586176583034,4542268.0,4284409.0,0.0
1586176583083,4518851.0,4278727.0,0.0
1586176583130,4487688.0,4263826.0,0.0
1586176583177,4454796.0,4245621.0,0.0
1586176583226,4428812.0,4235528.0,0.0
1586176583276,4410426.0,4239362.0,0.0
1586176583320,4391013.0,4240652.0,0.0
1586176583375,4379355.0,4249252.0,0.0
1586176583419,4368568.0,4255380.0,0.0
1586176583469,4362032.0,4262593.0,0.0
1586176583517,4359917.0,4269982.0,0.0
1586176583565,4343580.0,4260571.0,0.0
1586176583621,4288751.0,4198166.0,0.0
1586176583664,4238175.0,4152192.0,0.0
1586176583713,4201878.0,4133640.0,0.0
1586176583943,4176201.0,4132542.0,0.0
1586176583944,4162021.0,4138995.0,0.0
1586176583944,4149729.0,4143628.0,0.0
1586176583944,4134001.0,4136578.0,0.0
1586176583996,4127636.0,4130375.0,0.0
1586176584007,4120354.0,4130771.0,0.0
1586176584136,4124322.0,4139891.0,0.0
1586176584136,4128845.0,4151537.0,0.0
1586176584158,4126155.0,4162970.0,0.0
1586176584203,4129999.0,4179295.0,0.0
1586176584242,4132916.0,4195640.0,0.0
1586176584296,4137033.0,4203849.0,0.0
1586176584339,4102647.0,4160707.0,0.0
1586176584393,4056807.0,4110976.0,0.0
1586176584436,4032148.0,4092300.0,0.0
1586176584489,4021733.0,4085067.0,0.0
1586176584539,4013015.0,4086192.0,0.0
1586176584586,4005146.0,4090778.0,0.0
1586176584636,3989158.0,4092060.0,0.0
1586176584682,3978563.0,4099774.0,0.0
1586176584733,3976720.0,4104118.0,0.0
1586176585047,3976244.0,4109186.0,0.0
1586176585047,3982067.0,4115551.0,0.0
1586176585047,3983177.0,4123788.0,0.0
1586176585047,3988864.0,4139652.0,0.0
1586176585047,3996135.0,4148502.0,0.0
1586176585047,3998644.0,4158858.0,0.0
1586176585109,3995083.0,4146864.0,0.0
1586176585125,3959635.0,4099909.0,0.0
1586176585196,3934104.0,4070282.0,0.0
1586176585223,3933131.0,4074268.0,0.0
1586176585267,3942074.0,4092907.0,0.0
1586176585315,3954389.0,4104994.0,0.0
1586176585357,3959647.0,4103261.0,0.0
1586176585412,3960766.0,4095796.0,0.0
1586176585462,3965775.0,4102558.0,0.0
1586176585504,3986285.0,4115090.0,0.0
1586176585557,4003902.0,4128101.0,0.0
1586176585605,4015561.0,4139276.0,0.0
1586176585655,4031219.0,4150044.0,0.0
1586176585697,4041567.0,4168421.0,0.0
1586176585751,4055519.0,4179315.0,0.0
1586176585801,4035031.0,4148829.0,0.0
1586176585847,3990729.0,4091481.0,0.0
1586176585899,3953247.0,4061352.0,0.0
1586176585945,3927263.0,4065475.0,0.0
1586176585990,3903733.0,4073382.0,0.0
1586176586042,3884816.0,4083738.0,0.0
1586176586091,3864023.0,4086357.0,0.0
1586176586142,3849153.0,4085963.0,0.0
1586176586183,3848984.0,4085654.0,0.0
1586176586234,3855666.0,4087003.0,0.0
1586176586284,3870004.0,4092964.0,0.0
1586176586329,3885165.0,4095681.0,0.0
1586176586378,3897683.0,4102983.0,0.0
1586176586431,3912031.0,4114915.0,0.0
1586176586481,3928586.0,4127341.0,0.0
1586176586528,3918218.0,4102288.0,0.0
1586176586577,3890391.0,4052250.0,0.0
1586176586621,3873792.0,4026426.0,0.0
1586176586675,3872660.0,4019433.0,0.0
1586176586717,3879602.0,4018692.0,0.0
1586176586771,3883674.0,4015823.0,0.0
1586176586822,3885811.0,4011073.0,0.0
1586176586868,3885596.0,4005554.0,0.0
1586176586919,3888095.0,4003783.0,0.0
1586176586961,3898587.0,4010524.0,0.0
1586176587014,3914270.0,4024443.0,0.0
1586176587248,3922683.0,4041260.0,0.0
1586176587249,3939134.0,4054263.0,0.0
1586176587249,3953980.0,4074057.0,0.0
1586176587256,3972796.0,4089719.0,0.0
1586176587306,3974052.0,4076513.0,0.0
1586176587306,3940628.0,4029720.0,0.0
1586176587447,3914158.0,4015831.0,0.0
1586176587447,3912427.0,4023151.0,0.0
1586176587467,3923305.0,4033247.0,0.0
1586176587515,3936128.0,4041732.0,0.0
1586176587546,3946699.0,4037967.0,0.0
1586176587596,3948554.0,4033054.0,0.0
1586176587639,3959035.0,4034759.0,0.0
1586176587692,3972910.0,4038024.0,0.0
1586176587744,3991363.0,4048012.0,0.0
1586176587789,4008074.0,4058579.0,0.0
1586176587837,4028326.0,4064424.0,0.0
1586176587881,4049401.0,4078112.0,0.0
1586176587935,4061773.0,4085298.0,0.0
1586176587981,4071564.0,4034681.0,0.0
1586176588059,4068465.0,3978266.0,0.0
1586176588157,4061828.0,3983583.0,0.0
1586176588157,4070897.0,4009600.0,0.0
1586176588355,4088649.0,4040277.0,0.0
1586176588356,4118105.0,4071976.0,0.0
1586176588356,4157949.0,4095026.0,0.0
1586176588362,4210031.0,4114897.0,0.0
1586176588400,4299459.0,4148859.0,0.0
1586176588420,4391318.0,4196276.0,0.0
1586176588492,4487450.0,4249610.0,0.0
1586176588517,4585472.0,4307102.0,0.0
1586176588562,4662473.0,4354570.0,0.0
1586176588615,4738084.0,4408017.0,0.0
1586176588666,4806243.0,4452189.0,0.0
1586176588706,4855011.0,4480989.0,0.0
1586176588759,4883006.0,4477724.0,0.0
1586176588807,4908775.0,4488974.0,0.0
1586176588856,4948792.0,4517050.0,0.0
1586176588903,4973588.0,4550349.0,0.0
1586176588948,4967653.0,4558913.0,0.0
1586176589002,4968354.0,4557746.0,0.0
1586176589049,4954977.0,4546574.0,0.0
1586176589098,4944924.0,4532538.0,0.0
1586176589145,4957013.0,4512138.0,0.0
1586176589196,4924978.0,4483165.0,0.0
1586176589243,4907713.0,4469093.0,0.0
1586176589292,4898159.0,4471964.0,0.0
1586176589336,4842211.0,4486538.0,0.0
1586176589385,4800093.0,4524795.0,0.0
1586176589437,4783630.0,4567531.0,0.0
1586176589480,4779627.0,4559057.0,0.0
1586176589535,4704717.0,4507853.0,0.0
1586176589584,4696519.0,4463199.0,0.0
1586176589631,4727466.0,4617378.0,0.0
1586176589680,4940267.0,4875150.0,0.0
1586176589724,5270310.0,5116478.0,0.0
1586176589777,5454886.0,5334873.0,0.0
1586176589845,5555791.0,5452422.0,0.0
1586176589902,5626315.0,5560811.0,0.0
1586176589926,5740097.0,5668295.0,0.0
1586176589967,5807114.0,5747143.0,0.0
1586176590018,5874708.0,5882404.0,0.0
1586176590066,5916013.0,6125312.0,0.0
1586176590121,6007489.0,6242361.0,0.0
1586176590169,6096418.0,6328401.0,0.0
1586176590217,6155452.0,6377909.0,0.0
1586176590264,6228248.0,6429152.0,0.0
1586176590314,6271418.0,6496776.0,0.0
1586176590354,6416455.0,6564985.0,0.0
1586176590402,6415969.0,6396740.0,0.0
1586176590460,6242564.0,6133230.0,0.0
1586176590504,6080837.0,6000390.0,0.0
1586176590549,6045186.0,5995545.0,0.0
1586176590605,6046317.0,5912759.0,0.0
1586176590651,5960811.0,5842201.0,0.0
1586176590700,5983357.0,5770752.0,0.0
1586176590741,5938864.0,5685602.0,0.0
1586176590791,5889588.0,5608919.0,0.0
1586176590845,5811411.0,5540343.0,0.0
1586176590897,5773340.0,5478583.0,0.0
1586176590943,5705723.0,5371825.0,0.0
1586176590990,5632239.0,5260273.0,0.0
1586176591037,5576630.0,5176465.0,0.0
1586176591087,5527818.0,5127313.0,0.0
1586176591138,5497323.0,5085734.0,0.0
1586176591181,5473420.0,5049002.0,0.0
1586176591232,5452964.0,5006854.0,0.0
1586176591284,5421813.0,4976460.0,0.0
1586176591326,5418489.0,4974822.0,0.0
1586176591383,5402999.0,4970417.0,0.0
1586176591426,5394688.0,4971082.0,0.0
1586176591471,5378326.0,4977600.0,0.0
1586176591526,5345716.0,4951837.0,0.0
1586176591573,5295819.0,4922690.0,0.0
1586176591623,5250635.0,4875059.0,0.0
1586176591665,5200363.0,4823650.0,0.0
1586176591719,5157770.0,4788091.0,0.0
1586176591767,5133279.0,4766805.0,0.0
1586176591817,5109816.0,4750647.0,0.0
1586176591863,5087644.0,4724277.0,0.0
1586176591907,5041273.0,4690109.0,0.0
1586176591956,4997504.0,4668774.0,0.0
1586176592005,4986118.0,4668347.0,0.0
1586176592058,4990232.0,4688256.0,0.0
1586176592108,4998554.0,4702835.0,0.0
1586176592154,5000330.0,4712132.0,0.0
1586176592207,5013400.0,4726937.0,0.0
1586176592254,5000454.0,4721653.0,0.0
1586176592307,4966747.0,4682997.0,0.0
1586176592346,4941939.0,4665937.0,0.0
1586176592394,4931990.0,4665568.0,0.0
1586176592448,4935799.0,4678841.0,0.0
1586176592498,4941568.0,4697719.0,0.0
1586176592546,4952535.0,4722472.0,0.0
1586176592592,4956446.0,4736994.0,0.0
1586176592644,4960733.0,4752179.0,0.0
1586176592685,4968116.0,4768490.0,0.0
1586176592740,4973635.0,4784791.0,0.0
1586176592788,4983673.0,4797614.0,0.0
1586176592828,4990187.0,4807136.0,0.0
1586176592889,4985439.0,4800985.0,0.0
1586176592926,4952862.0,4752070.0,0.0
1586176592982,4902964.0,4703001.0,0.0
1586176593028,4881966.0,4689621.0,0.0
1586176593081,4863321.0,4683223.0,0.0
1586176593128,4861218.0,4688138.0,0.0
1586176593173,4853122.0,4688827.0,0.0
1586176593218,4849017.0,4681156.0,0.0
1586176593266,4846077.0,4682331.0,0.0
1586176593328,4849188.0,4683639.0,0.0
1586176593372,4858087.0,4690026.0,0.0
1586176593416,4876472.0,4694205.0,0.0
1586176593467,4891940.0,4708179.0,0.0
1586176593510,4907125.0,4714304.0,0.0
1586176593558,4889327.0,4685335.0,0.0
1586176593607,4874731.0,4655880.0,0.0
1586176593659,4869948.0,4643842.0,0.0
1586176593711,4874561.0,4644234.0,0.0
1586176593758,4876755.0,4647914.0,0.0
1586176593807,4876019.0,4653363.0,0.0
1586176593853,4876834.0,4654039.0,0.0
1586176593908,4882984.0,4662944.0,0.0
1586176593946,4899720.0,4674875.0,0.0
1586176593998,4919168.0,4689088.0,0.0
1586176594049,4948124.0,4716441.0,0.0
1586176594097,4965142.0,4732682.0,0.0
1586176594147,4986433.0,4747618.0,0.0
1586176594188,4984273.0,4729501.0,0.0
1586176594241,4975014.0,4712678.0,0.0
1586176594289,4978110.0,4713949.0,0.0
1586176594334,4990866.0,4735379.0,0.0
1586176594390,5010608.0,4747761.0,0.0
1586176594436,5028610.0,4756928.0,0.0
1586176594487,5037236.0,4763159.0,0.0
1586176594527,5040278.0,4763648.0,0.0
1586176594584,5048781.0,4771814.0,0.0
1586176594630,5070829.0,4781337.0,0.0
1586176594680,5089182.0,4791677.0,0.0
1586176594728,5100997.0,4801032.0,0.0
1586176594770,5111738.0,4800962.0,0.0
1586176594828,5095253.0,4774237.0,0.0
1586176594872,5082237.0,4751869.0,0.0
1586176594925,5085494.0,4753911.0,0.0
1586176594964,5101222.0,4757497.0,0.0
1586176595015,5125014.0,4770924.0,0.0
1586176595068,5142144.0,4777905.0,0.0
1586176595109,5160699.0,4792960.0,0.0
1586176595159,5176551.0,4805045.0,0.0
1586176595209,5192088.0,4814592.0,0.0
1586176595263,5212237.0,4836211.0,0.0
1586176595311,5236638.0,4860526.0,0.0
1586176595355,5255056.0,4885209.0,0.0
1586176595409,5273228.0,4906282.0,0.0
1586176595448,5259318.0,4891443.0,0.0
1586176595505,5239791.0,4876648.0,0.0
1586176595549,5237869.0,4877337.0,0.0
1586176595596,5248916.0,4879948.0,0.0
1586176595644,5261840.0,4877301.0,0.0
1586176595698,5252579.0,4874120.0,0.0
1586176595747,5223667.0,4861819.0,0.0
1586176595789,5205508.0,4840996.0,0.0
1586176595843,5196157.0,4831532.0,0.0
1586176595894,5195548.0,4835238.0,0.0
1586176595944,5195491.0,4835355.0,0.0
1586176595990,5189373.0,4832947.0,0.0
1586176596038,5180487.0,4829670.0,0.0
1586176596088,5180950.0,4829028.0,0.0
1586176596128,5156142.0,4798208.0,0.0
1586176596183,5117346.0,4749672.0,0.0
1586176596229,5096360.0,4721452.0,0.0
1586176596279,5079310.0,4707669.0,0.0
1586176596333,5072095.0,4694619.0,0.0
1586176596376,5059047.0,4688066.0,0.0
1586176596427,5049912.0,4673890.0,0.0
1586176596472,5042301.0,4662030.0,0.0
1586176596525,5029333.0,4651464.0,0.0
1586176596573,5023362.0,4654788.0,0.0
1586176596620,5026732.0,4661009.0,0.0
1586176596669,5037893.0,4670376.0,0.0
1586176596711,5057204.0,4685824.0,0.0
1586176596767,5082624.0,4706350.0,0.0
1586176596815,5096880.0,4720157.0,0.0
1586176596864,5109861.0,4733051.0,0.0
1586176596915,5106119.0,4722734.0,0.0
1586176596955,5071802.0,4681941.0,0.0
1586176597010,5048714.0,4666363.0,0.0
1586176597053,5041058.0,4664678.0,0.0
1586176597107,5048169.0,4676430.0,0.0
1586176597152,5063785.0,4705292.0,0.0
1586176597204,5067290.0,4729312.0,0.0
1586176597245,5046282.0,4738382.0,0.0
1586176597294,5021643.0,4741480.0,0.0
1586176597346,5002138.0,4754090.0,0.0
1586176597392,5001528.0,4767517.0,0.0
1586176597447,5006118.0,4789006.0,0.0
1586176597493,5015346.0,4806660.0,0.0
1586176597544,5027602.0,4830833.0,0.0
1586176597592,5045026.0,4850137.0,0.0
1586176597634,5061061.0,4861356.0,0.0
1586176597688,5071711.0,4871793.0,0.0
1586176597732,5046202.0,4843084.0,0.0
1586176597786,5014148.0,4810722.0,0.0
1586176597834,5010720.0,4803812.0,0.0
1586176597885,5012280.0,4814412.0,0.0
1586176597932,5028033.0,4837316.0,0.0
1586176597980,5030938.0,4850696.0,0.0
1586176598028,5026948.0,4855955.0,0.0
1586176598071,5016781.0,4863044.0,0.0
1586176598124,5025229.0,4876601.0,0.0
1586176598173,5049764.0,4906508.0,0.0
1586176598219,5068162.0,4931773.0,0.0
1586176598271,5094733.0,4949557.0,0.0
1586176598313,5101653.0,4957772.0,0.0
1586176598359,5099505.0,4951481.0,0.0
1586176598415,5109873.0,4949986.0,0.0
1586176598464,5103756.0,4941388.0,0.0
1586176598513,5050534.0,4910818.0,0.0
1586176598556,4993489.0,4869501.0,0.0
1586176598609,4945117.0,4872422.0,0.0
1586176598653,4930826.0,4878097.0,0.0
1586176598705,4921597.0,4875699.0,0.0
1586176598756,4914702.0,4875319.0,0.0
1586176598797,4896938.0,4874073.0,0.0
1586176598851,4893228.0,4878133.0,0.0
1586176598897,4918013.0,4872648.0,0.0
1586176598949,4940458.0,4878619.0,0.0
1586176598995,4986229.0,4933363.0,0.0
1586176599044,5042517.0,5016648.0,0.0
1586176599095,5092303.0,5105265.0,0.0
1586176599142,5138255.0,5166158.0,0.0
1586176599184,5168737.0,5159189.0,0.0
1586176599233,5144868.0,5114086.0,0.0
1586176599289,5100239.0,5039622.0,0.0
1586176599340,5032543.0,4949843.0,0.0
1586176599387,4983369.0,4913798.0,0.0
1586176599435,4965335.0,4895716.0,0.0
1586176599476,4960845.0,4893994.0,0.0
1586176599532,4959205.0,4901760.0,0.0
1586176599575,4965967.0,4922133.0,0.0
1586176599627,4980971.0,4949570.0,0.0
1586176599677,4996701.0,4975298.0,0.0
1586176599724,5015740.0,4995266.0,0.0
1586176599775,5040357.0,5020081.0,0.0
1586176599822,5062586.0,5042233.0,0.0
1586176599869,5085437.0,5059022.0,0.0
1586176599918,5107533.0,5081318.0,0.0
1586176599968,5127263.0,5103200.0,0.0
1586176600016,5146790.0,5132322.0,0.0
1586176600061,5156650.0,5143291.0,0.0
1586176600115,5160868.0,5144040.0,0.0
1586176600161,5164497.0,5153574.0,0.0
1586176600212,5174696.0,5164460.0,0.0
1586176600256,5189780.0,5178683.0,0.0
1586176600309,5190956.0,5191078.0,0.0
1586176600350,5199402.0,5203153.0,0.0
1586176600398,5200975.0,5213186.0,0.0
1586176600454,5213842.0,5230816.0,0.0
1586176600495,5222808.0,5228488.0,0.0
1586176600552,5246338.0,5235447.0,0.0
1586176600596,5255712.0,5229011.0,0.0
1586176600651,5278248.0,5234828.0,0.0
1586176600697,5300522.0,5248341.0,0.0
1586176600737,5319145.0,5258848.0,0.0
1586176600794,5328054.0,5272085.0,0.0
1586176600837,5328847.0,5288409.0,0.0
1586176600886,5340505.0,5307630.0,0.0
1586176600936,5353711.0,5328763.0,0.0
1586176600984,5373362.0,5348947.0,0.0
1586176601038,5388842.0,5366280.0,0.0
1586176601076,5405283.0,5378711.0,0.0
1586176601127,5414702.0,5389408.0,0.0
1586176601178,5427151.0,5403383.0,0.0
1586176601230,5442031.0,5412394.0,0.0
1586176601278,5458245.0,5432125.0,0.0
1586176601333,5474742.0,5435225.0,0.0
1586176601375,5479062.0,5438286.0,0.0
1586176601425,5495218.0,5443001.0,0.0
1586176601472,5520107.0,5424253.0,0.0
1586176601520,5522629.0,5404189.0,0.0
1586176601567,5565933.0,5425369.0,0.0
1586176601617,5583969.0,5476979.0,0.0
1586176601662,5621532.0,5557832.0,0.0
1586176601717,5661478.0,5659436.0,0.0
1586176601759,5714883.0,5748979.0,0.0
1586176601810,5744542.0,5810692.0,0.0
1586176601863,5774244.0,5849241.0,0.0
1586176601910,5794564.0,5855106.0,0.0
1586176601952,5807227.0,5863524.0,0.0
1586176602000,5814972.0,5862632.0,0.0
1586176602055,5805372.0,5849051.0,0.0
1586176602100,5785654.0,5802310.0,0.0
1586176602151,5751688.0,5729685.0,0.0
1586176602201,5692653.0,5615366.0,0.0
1586176602250,5632398.0,5506982.0,0.0
1586176602296,5584420.0,5420100.0,0.0
1586176602339,5532160.0,5350408.0,0.0
1586176602395,5487835.0,5293740.0,0.0
1586176602438,5437100.0,5240789.0,0.0
1586176602490,5391589.0,5188157.0,0.0
1586176602539,5349798.0,5146854.0,0.0
1586176602581,5319903.0,5113766.0,0.0
1586176602632,5288706.0,5082018.0,0.0
1586176602679,5264961.0,5056076.0,0.0
1586176602734,5243140.0,5031989.0,0.0
1586176602780,5215234.0,5011733.0,0.0
1586176602834,5164407.0,4942600.0,0.0
1586176602883,5078653.0,4861356.0,0.0
1586176602921,5011874.0,4806720.0,0.0
1586176602971,4956164.0,4768966.0,0.0
1586176603020,4928099.0,4753378.0,0.0
1586176603075,4923182.0,4741196.0,0.0
1586176603121,4935507.0,4720763.0,0.0
1586176603168,4915006.0,4682950.0,0.0
1586176603217,4874912.0,4653446.0,0.0
1586176603261,4812779.0,4622909.0,0.0
1586176603327,4770265.0,4602156.0,0.0
1586176603358,4731119.0,4579921.0,0.0
1586176603414,4700737.0,4565898.0,0.0
1586176603461,4671983.0,4548957.0,0.0
1586176603510,4647401.0,4519573.0,0.0
1586176603556,4582430.0,4457634.0,0.0
1586176603602,4513976.0,4386577.0,0.0
1586176603657,4460686.0,4345902.0,0.0
1586176603697,4425916.0,4320578.0,0.0
1586176603752,4393884.0,4301939.0,0.0
1586176603803,4364170.0,4282325.0,0.0
1586176603843,4325589.0,4256823.0,0.0
1586176603896,4298136.0,4239144.0,0.0
1586176603939,4273418.0,4229480.0,0.0
1586176603997,4257056.0,4222429.0,0.0
1586176604038,4244382.0,4224471.0,0.0
1586176604094,4235337.0,4237922.0,0.0
1586176604139,4244551.0,4247253.0,0.0
1586176604183,4262393.0,4251895.0,0.0
1586176604232,4254762.0,4218557.0,0.0
1586176604280,4210041.0,4160443.0,0.0
1586176604334,4185551.0,4128435.0,0.0
1586176604387,4184374.0,4117762.0,0.0
1586176604434,4209670.0,4128209.0,0.0
1586176604480,4231966.0,4136710.0,0.0
1586176604523,4249923.0,4148452.0,0.0
1586176604579,4261636.0,4153378.0,0.0
1586176604620,4285980.0,4168635.0,0.0
1586176604675,4279421.0,4176908.0,0.0
1586176604724,4289871.0,4181124.0,0.0
1586176604769,4301200.0,4198613.0,0.0
1586176604823,4277138.0,4224684.0,0.0
1586176604862,4247503.0,4245710.0,0.0
1586176604922,4219010.0,4239739.0,0.0
1586176604965,4177263.0,4223473.0,0.0
1586176605015,4160540.0,4214427.0,0.0
1586176605065,4168025.0,4220955.0,0.0
1586176605113,4167200.0,4219093.0,0.0
1586176605159,4181898.0,4220469.0,0.0
1586176605206,4183651.0,4215080.0,0.0
1586176605259,4187936.0,4209213.0,0.0
1586176605298,4189338.0,4210971.0,0.0
1586176605348,4200567.0,4219389.0,0.0
1586176605403,4211931.0,4225527.0,0.0
1586176605453,4228213.0,4239097.0,0.0
1586176605497,4243783.0,4256467.0,0.0
1586176605547,4247718.0,4269205.0,0.0
1586176605599,4216872.0,4244785.0,0.0
1586176605639,4178415.0,4206922.0,0.0
1586176605689,4160392.0,4194990.0,0.0
1586176605738,4149097.0,4193898.0,0.0
1586176605786,4133573.0,4197661.0,0.0
1586176605839,4124029.0,4202496.0,0.0
1586176605884,4118702.0,4202436.0,0.0
1586176605941,4114541.0,4200654.0,0.0
1586176605984,4116827.0,4200108.0,0.0
1586176606034,4125691.0,4205890.0,0.0
1586176606083,4133719.0,4213192.0,0.0
1586176606133,4147978.0,4238208.0,0.0
1586176606178,4163604.0,4260669.0,0.0
1586176606222,4163480.0,4256776.0,0.0
1586176606279,4146088.0,4215933.0,0.0
1586176606326,4145422.0,4186039.0,0.0
1586176606368,4159906.0,4172482.0,0.0
1586176606423,4189633.0,4163827.0,0.0
1586176606466,4200035.0,4162402.0,0.0
1586176606517,4210222.0,4165785.0,0.0
1586176606563,4209013.0,4170984.0,0.0
1586176606617,4208199.0,4182216.0,0.0
1586176606668,4208855.0,4196322.0,0.0
1586176606715,4210868.0,4215246.0,0.0
1586176606761,4219867.0,4238801.0,0.0
1586176606810,4223339.0,4257975.0,0.0
1586176606858,4237643.0,4288166.0,0.0
1586176606903,4261784.0,4299754.0,0.0
1586176606951,4261682.0,4267426.0,0.0
1586176607007,4254581.0,4245331.0,0.0
1586176607053,4263808.0,4234941.0,0.0
1586176607102,4276811.0,4236759.0,0.0
1586176607149,4289531.0,4244226.0,0.0
1586176607199,4308085.0,4251671.0,0.0
1586176607242,4325126.0,4255411.0,0.0
1586176607295,4348249.0,4264243.0,0.0
1586176607347,4374763.0,4273171.0,0.0
1586176607395,4401810.0,4291206.0,0.0
1586176607438,4430338.0,4307031.0,0.0
1586176607484,4462382.0,4325316.0,0.0
1586176607537,4487891.0,4346056.0,0.0
1586176607587,4511908.0,4357787.0,0.0
1586176607637,4505203.0,4328580.0,0.0
1586176607686,4490888.0,4294899.0,0.0
1586176607734,4496869.0,4292142.0,0.0
1586176607783,4509137.0,4295552.0,0.0
1586176607826,4526947.0,4304657.0,0.0
1586176607879,4538355.0,4316388.0,0.0
1586176607925,4550544.0,4320364.0,0.0
1586176607979,4563356.0,4325672.0,0.0
1586176608196,4579354.0,4337341.0,0.0
1586176608196,4601947.0,4354105.0,0.0
1586176608196,4627342.0,4374978.0,0.0
1586176608196,4649447.0,4397239.0,0.0
1586176608235,4677319.0,4417529.0,0.0
1586176608389,4724177.0,4433260.0,0.0
1586176608423,4710981.0,4409158.0,0.0
1586176608458,4719937.0,4407805.0,0.0
1586176608510,4730396.0,4416934.0,0.0
1586176608556,4741386.0,4429888.0,0.0
1586176608605,4759092.0,4443042.0,0.0
1586176608655,4770399.0,4445832.0,0.0
1586176608705,4779897.0,4451507.0,0.0
1586176608746,4799335.0,4460008.0,0.0
1586176608806,4822265.0,4475050.0,0.0
