time,value
1575575466135,4934588.0
1575575466203,6157541.0
1575575466302,7437641.0
1575575466305,7602251.0
1575575466328,8819093.0
1575575466428,9585631.0
1575575466429,9238188.0
1575575466473,8456096.0
1575575466523,7268795.0
1575575466574,6152081.0
1575575466622,5785802.0
1575575466671,5845840.0
1575575466721,5390085.0
1575575466767,5370472.0
1575575466822,5245064.0
1575575466868,5416144.0
1575575466917,5402543.0
1575575466967,5272564.0
1575575467017,5375872.0
1575575467065,5347128.0
1575575467115,5546752.0
1575575467162,5633559.0
1575575467211,5542295.0
1575575467259,5601107.0
1575575467311,4911770.0
1575575467358,4457424.0
1575575467408,4214382.0
1575575467456,4095216.0
1575575467506,3358030.0
1575575467557,2955404.0
1575575467602,2778983.0
1575575467652,2748804.0
1575575467700,2727958.0
1575575467749,2832010.0
1575575467798,3012581.0
1575575467853,2968777.0
1575575467895,3041974.0
1575575467947,3027191.0
1575575467998,3010600.0
1575575468042,3106671.0
1575575468091,2874993.0
1575575468144,2822542.0
1575575468193,2801629.0
1575575468240,2867939.0
1575575468300,2949806.0
1575575468340,3073036.0
1575575468389,3169160.0
1575575468438,3232235.0
1575575468481,3376062.0
1575575468529,3250005.0
1575575468578,3135197.0
1575575468630,2896993.0
1575575468678,2865052.0
1575575468729,2810518.0
1575575468785,3095740.0
1575575468834,3273624.0
1575575468875,3092067.0
1575575468927,3263402.0
1575575468975,3170312.0
1575575469024,3043476.0
1575575469074,3118086.0
1575575469117,3118947.0
1575575469173,3011915.0
1575575469219,2914557.0
1575575469269,2723636.0
1575575469324,3036472.0
1575575469362,3009668.0
1575575469416,3091033.0
1575575469465,3114792.0
1575575469509,3084344.0
1575575469559,2936882.0
1575575469609,2883403.0
1575575469664,2805071.0
1575575469709,2851502.0
1575575469757,2706986.0
1575575469805,2684960.0
1575575469856,2774889.0
1575575469905,2679025.0
1575575469954,2698424.0
1575575469996,2699018.0
1575575470048,2667016.0
1575575470100,2665043.0
1575575470150,2632760.0
1575575470198,2675072.0
1575575470248,2693463.0
1575575470300,2797582.0
1575575470348,2852941.0
1575575470394,3042194.0
1575575470438,3165157.0
1575575470493,3147928.0
1575575470541,3141520.0
1575575470591,3183382.0
1575575470638,3383344.0
1575575470688,3531168.0
1575575470736,3656051.0
1575575470789,3806315.0
1575575470837,3882087.0
1575575470880,3871644.0
1575575470932,3840103.0
1575575470983,3842604.0
1575575471031,3837789.0
1575575471078,3835802.0
1575575471129,3872410.0
1575575471176,3845938.0
1575575471227,3869917.0
1575575471275,3859474.0
1575575471329,3858547.0
1575575471368,3827760.0
1575575471419,3828827.0
1575575471464,3806368.0
1575575471518,3836288.0
1575575471564,3859722.0
1575575471612,3819251.0
1575575471667,3754516.0
1575575471715,3751682.0
1575575471763,3776633.0
1575575471816,3782129.0
1575575471866,3802020.0
1575575471911,3807008.0
1575575471958,3805114.0
1575575472005,3811222.0
1575575472052,3812303.0
1575575472102,3788324.0
1575575472151,3794846.0
1575575472203,3821659.0
1575575472250,3814176.0
1575575472302,3793444.0
1575575472345,3776128.0
1575575472395,3793824.0
1575575472444,3754408.0
1575575472494,3756749.0
1575575472545,3814497.0
1575575472592,3827407.0
1575575472642,3820105.0
1575575472690,3831281.0
1575575472740,3860855.0
1575575472789,3867857.0
1575575472837,3885895.0
1575575472887,3913480.0
1575575472935,3948816.0
1575575472984,3981803.0
1575575473033,4039480.0
1575575473082,3992385.0
1575575473131,3976210.0
1575575473182,3944450.0
1575575473229,3962300.0
1575575473280,3949817.0
1575575473327,3945656.0
1575575473375,3966622.0
1575575473425,3963198.0
1575575473473,3949391.0
1575575473523,3934659.0
1575575473571,3931873.0
1575575473621,3932787.0
1575575473669,3895365.0
1575575473718,3904961.0
1575575473768,3900548.0
1575575473816,3896354.0
1575575473866,3889700.0
1575575473913,3893820.0
1575575473965,3875313.0
1575575474011,3860289.0
1575575474063,3846647.0
1575575474109,3867629.0
1575575474158,3896941.0
1575575474208,3907604.0
1575575474255,3872394.0
1575575474308,3861774.0
1575575474353,3847596.0
1575575474406,3834936.0
1575575474449,3835607.0
1575575474507,3846253.0
1575575474547,3866010.0
1575575474598,3838333.0
1575575474646,3835867.0
1575575474694,3848888.0
1575575474749,3925229.0
1575575474793,3983819.0
1575575474841,4074782.0
1575575474891,4136309.0
1575575474943,4160930.0
1575575474987,4176241.0
1575575475038,4189746.0
1575575475088,4192558.0
1575575475135,4205435.0
1575575475188,4229469.0
1575575475233,4252917.0
1575575475284,4281567.0
1575575475331,4275728.0
1575575475381,4229520.0
1575575475429,4250938.0
1575575475478,4230576.0
1575575475528,4226935.0
1575575475576,4168547.0
1575575475627,4164270.0
1575575475674,4171962.0
1575575475724,4188078.0
1575575475771,4195821.0
1575575475821,4209436.0
1575575475869,4049690.0
1575575475918,3885104.0
1575575475968,3837998.0
1575575476014,3724696.0
1575575476069,3677952.0
1575575476114,3688797.0
1575575476166,3779685.0
1575575476212,3855516.0
1575575476262,3961957.0
1575575476313,4013626.0
1575575476358,4052979.0
1575575476409,4046025.0
1575575476457,4034062.0
1575575476508,4102282.0
1575575476554,4208044.0
1575575476608,4234563.0
1575575476652,4227246.0
1575575476702,4323579.0
1575575476750,4009398.0
1575575476799,3969105.0
1575575476851,3800643.0
1575575476897,3779602.0
1575575476949,3802311.0
1575575476994,3776824.0
1575575477046,3817370.0
1575575477092,3786632.0
1575575477140,3975035.0
1575575477190,4023037.0
1575575477243,4064012.0
1575575477289,4072886.0
1575575477341,4106343.0
1575575477391,4029598.0
1575575477438,3935774.0
1575575477490,4016034.0
1575575477531,3951815.0
1575575477583,3922688.0
1575575477630,3839191.0
1575575477679,3711406.0
1575575477730,3554371.0
1575575477779,3178804.0
1575575477831,2833751.0
1575575477879,2801176.0
1575575477929,2678402.0
1575575477976,2802058.0
1575575478025,2887098.0
1575575478074,2952651.0
1575575478122,3019814.0
1575575478167,3071693.0
1575575478220,3121231.0
1575575478269,3181440.0
1575575478325,3229316.0
1575575478369,3286085.0
1575575478414,3335430.0
1575575478465,3382627.0
1575575478508,3421218.0
1575575478563,3462995.0
1575575478609,3490580.0
1575575478661,3522895.0
1575575478714,3543942.0
1575575478758,3562483.0
1575575478810,3579294.0
1575575478855,3582726.0
1575575478906,3548212.0
1575575478947,3532936.0
1575575479003,3486266.0
1575575479054,3452678.0
1575575479097,3464834.0
1575575479154,3433138.0
1575575479198,3397510.0
1575575479248,3003347.0
1575575479294,2797232.0
1575575479346,3076382.0
1575575479388,2622201.0
1575575479442,2466037.0
1575575479493,2418397.0
1575575479540,2524519.0
1575575479589,2328651.0
1575575479638,2303685.0
1575575479688,2380355.0
1575575479734,2381671.0
1575575479785,2471204.0
1575575479839,2455860.0
1575575479882,2433192.0
1575575479933,2733576.0
1575575479980,3132481.0
1575575480030,2858496.0
1575575480073,2566444.0
1575575480124,2587869.0
1575575480172,2491550.0
1575575480221,2502473.0
1575575480270,2464156.0
1575575480316,2460387.0
1575575480373,2461726.0
1575575480420,2452961.0
1575575480470,2466041.0
1575575480517,2484313.0
1575575480568,2487141.0
1575575480610,2474463.0
1575575480666,2463934.0
1575575480709,2444036.0
1575575480763,2432034.0
1575575480815,2427227.0
1575575480863,2423946.0
1575575480909,2416763.0
1575575480957,2418334.0
1575575481008,2407645.0
1575575481051,2391409.0
1575575481101,2388886.0
1575575481153,2374097.0
1575575481203,2379696.0
1575575481255,2355134.0
1575575481305,2359560.0
1575575481351,2340055.0
1575575481398,2337361.0
1575575481449,2331087.0
1575575481496,2325337.0
1575575481539,2314270.0
1575575481589,2315853.0
1575575481636,2311515.0
1575575481695,2310164.0
1575575481740,2305661.0
1575575481793,2302461.0
1575575481837,2318752.0
1575575481889,2373841.0
1575575481935,2310983.0
1575575481986,2355106.0
1575575482032,2320069.0
1575575482082,2336209.0
1575575482132,2313843.0
1575575482180,2312478.0
1575575482231,2318498.0
1575575482281,2324486.0
1575575482329,2302262.0
1575575482375,2288524.0
1575575482426,2248336.0
1575575482475,2250599.0
1575575482522,2233313.0
1575575482566,2229120.0
1575575482615,2219751.0
1575575482666,2205309.0
1575575482714,2225987.0
1575575482764,2189574.0
1575575482815,2209542.0
1575575482866,2179984.0
1575575482916,2113048.0
1575575482963,2088259.0
1575575483012,2058063.0
1575575483055,2061383.0
1575575483105,2037065.0
1575575483153,2051882.0
1575575483208,2057626.0
1575575483255,2063934.0
1575575483309,2088945.0
1575575483358,2099072.0
1575575483402,2092968.0
1575575483452,2083151.0
1575575483501,2080347.0
1575575483550,2081292.0
1575575483593,2078614.0
1575575483647,2071753.0
1575575483695,2064288.0
1575575483745,2058213.0
1575575483802,2052945.0
1575575483843,2047666.0
1575575483893,2041807.0
1575575483940,2039222.0
1575575483989,2032865.0
1575575484032,2027934.0
1575575484089,2022253.0
1575575484135,2021699.0
1575575484184,2027099.0
1575575484234,2027150.0
1575575484282,2059796.0
1575575484332,2075648.0
1575575484380,2092641.0
1575575484429,2085193.0
1575575484472,2103320.0
1575575484527,2178241.0
1575575484576,2163671.0
1575575484619,2189340.0
1575575484673,1959665.0
1575575484718,1832606.0
1575575484768,1929171.0
1575575484817,1988317.0
1575575484865,1984243.0
1575575484913,1992947.0
1575575484961,2076999.0
1575575485014,2111327.0
1575575485059,2153191.0
1575575485109,2126366.0
1575575485157,2127660.0
1575575485212,2121193.0
1575575485256,2101788.0
1575575485310,2144040.0
1575575485361,2220653.0
1575575485408,2360596.0
1575575485459,2470834.0
1575575485504,2524196.0
1575575485553,2581162.0
1575575485598,2629489.0
1575575485651,2673832.0
1575575485700,2704278.0
1575575485750,2733332.0
1575575485799,2766354.0
1575575485847,2794619.0
1575575485899,2824829.0
1575575485945,2854560.0
1575575485995,2889665.0
1575575486043,2926494.0
1575575486092,3019501.0
1575575486141,3111940.0
1575575486192,3633418.0
1575575486234,4377597.0
1575575486306,4920450.0
1575575486339,5878089.0
1575575486387,5322276.0
1575575486435,4810382.0
1575575486485,4774131.0
1575575486534,4728868.0
1575575486582,4652568.0
1575575486632,4606990.0
1575575486678,4564203.0
1575575486730,4629694.0
1575575486781,4668048.0
1575575486830,4612768.0
1575575486870,4489317.0
1575575486924,4455848.0
1575575486973,4448713.0
1575575487022,4471598.0
1575575487067,4271733.0
1575575487119,4055507.0
1575575487169,3888400.0
1575575487219,3809353.0
1575575487268,3760562.0
1575575487316,3778574.0
1575575487368,3836117.0
1575575487414,3807565.0
1575575487463,3842673.0
1575575487512,3916306.0
1575575487557,3925510.0
1575575487605,3857633.0
1575575487662,3794608.0
1575575487707,3771552.0
1575575487755,3713999.0
1575575487799,3724334.0
1575575487854,3747695.0
1575575487898,3826121.0
1575575487952,3899899.0
1575575487997,3919201.0
1575575488051,3902398.0
1575575488098,3887790.0
1575575488147,3901267.0
1575575488195,3939712.0
1575575488246,4051811.0
1575575488300,4131368.0
1575575488340,4220298.0
1575575488392,4263909.0
1575575488437,4293489.0
1575575488484,4342765.0
1575575488532,4381864.0
1575575488583,4371835.0
1575575488629,4337666.0
1575575488681,4333165.0
1575575488730,4303360.0
1575575488788,4275273.0
1575575488833,4281774.0
1575575488882,4292922.0
1575575488929,4309940.0
1575575488977,4322129.0
1575575489027,4315808.0
1575575489069,4293262.0
1575575489119,4279649.0
1575575489167,4286648.0
1575575489216,4326832.0
1575575489272,4411558.0
1575575489326,4389361.0
1575575489369,4439655.0
1575575489418,4474357.0
1575575489469,4523227.0
1575575489511,4569992.0
1575575489560,4549504.0
1575575489609,4575884.0
1575575489660,4610868.0
1575575489708,4529355.0
1575575489762,4539792.0
1575575489809,4504807.0
1575575489858,4541952.0
1575575489908,4565910.0
1575575489955,4553937.0
1575575490004,4504468.0
1575575490054,4488141.0
1575575490100,4500985.0
1575575490152,4427207.0
1575575490206,4474469.0
1575575490250,4470727.0
1575575490302,4553394.0
1575575490349,4495049.0
1575575490396,4488626.0
1575575490446,4492822.0
1575575490494,4498385.0
1575575490539,4353507.0
1575575490592,9508622.0
1575575490641,8000670.0
1575575490689,1.1002867E7
1575575490738,1.1053177E7
1575575490792,1.4371025E7
1575575490838,1.7552924E7
1575575490887,3224588.0
1575575490928,2563709.0
1575575490984,5156361.0
1575575491032,1.3568491E7
1575575491080,4633303.0
1575575491131,3703411.0
1575575491177,3772817.0
1575575491228,6783352.0
1575575491276,1.3636793E7
1575575491329,1.3586665E7
1575575491375,7650517.0
1575575491423,2735889.0
1575575491472,2963729.0
1575575491521,3363594.0
1575575491570,3355253.0
1575575491614,3381788.0
1575575491669,3486569.0
1575575491715,3514975.0
1575575491761,3415647.0
1575575491816,3277964.0
1575575491867,3318517.0
1575575491912,3490655.0
1575575491960,3611778.0
1575575492009,3728713.0
1575575492057,3864492.0
1575575492103,5448311.0
1575575492156,5401853.0
1575575492203,5245949.0
1575575492254,4855298.0
1575575492311,4570556.0
1575575492358,4579273.0
1575575492400,4525700.0
1575575492449,4418102.0
1575575492497,4289783.0
1575575492548,4547372.0
1575575492592,4879646.0
1575575492643,4902379.0
1575575492694,4455281.0
1575575492742,4107798.0
1575575492800,3959850.0
1575575492842,3946270.0
1575575492890,3834172.0
1575575492938,3815814.0
1575575492986,3821700.0
1575575493031,3822961.0
1575575493086,3593719.0
1575575493132,4309193.0
1575575493183,4757398.0
1575575493232,3049205.0
1575575493283,5622263.0
1575575493335,7493160.0
1575575493378,4579216.0
1575575493423,4981516.0
1575575493475,3779443.0
1575575493526,4419488.0
1575575493574,4073835.0
1575575493621,5421899.0
1575575493672,4295332.0
1575575493720,3892821.0
1575575493769,8752542.0
1575575493826,9200910.0
1575575493871,4189043.0
1575575493915,2853280.0
1575575493966,2847530.0
1575575494013,2019653.0
1575575494062,2282343.0
1575575494108,2479378.0
1575575494160,2848136.0
1575575494210,3356771.0
1575575494257,5401390.0
1575575494310,5389299.0
1575575494357,6313949.0
1575575494404,5112302.0
1575575494453,6692495.0
1575575494499,1.1793351E7
1575575494545,1.1788763E7
1575575494595,1.1768589E7
1575575494648,1.3477157E7
1575575494694,1.6056733E7
1575575494745,1.978218E7
1575575494791,1.731538E7
1575575494845,1.2716909E7
1575575494890,8326314.0
1575575494938,2.5756144E7
1575575494989,2.5618612E7
1575575495040,3.5399524E7
1575575495087,4.3100208E7
1575575495132,3.9999672E7
1575575495184,4.3294748E7
1575575495230,3.6171676E7
1575575495284,3.1147562E7
1575575495329,3.2487964E7
1575575495378,2.759643E7
1575575495428,3.2275754E7
1575575495476,4.4072788E7
1575575495527,4.4826852E7
1575575495573,3396465.0
1575575495625,3861703.0
1575575495671,5773895.0
1575575495721,3979550.0
1575575495769,3951421.0
1575575495818,3942974.0
1575575495868,4263573.0
1575575495915,6413346.0
1575575495967,1.1191953E7
1575575496012,8356436.0
1575575496062,5376881.0
1575575496111,4761751.0
1575575496159,4788401.0
1575575496210,4893408.0
1575575496258,2901816.0
1575575496312,2818355.0
1575575496356,2727978.0
1575575496410,3873783.0
1575575496452,4007497.0
1575575496502,4061698.0
1575575496550,4129826.0
1575575496599,4240426.0
1575575496649,4255140.0
1575575496694,4462100.0
1575575496749,4453201.0
1575575496794,5067428.0
1575575496851,5666698.0
1575575496892,5866930.0
1575575496942,6118152.0
1575575496990,6130986.0
1575575497039,6112394.0
1575575497089,6098884.0
1575575497135,6114519.0
1575575497194,6118082.0
1575575497238,6006990.0
1575575497294,5703044.0
1575575497343,5669896.0
1575575497386,5637282.0
1575575497449,6774201.0
1575575497493,4100652.0
1575575497530,3923195.0
1575575497587,3598839.0
1575575497628,6279178.0
1575575497678,9853051.0
1575575497729,1.1596486E7
1575575497772,1.1549425E7
1575575497831,1.3144913E7
1575575497870,1.5539429E7
1575575497927,1.9037236E7
1575575497971,2.457142E7
1575575498026,3.07008E7
1575575498073,2.34596E7
1575575498116,4.4133264E7
1575575498169,4806630.0
1575575498214,5212817.0
1575575498270,1.1549573E7
1575575498313,3.2960938E7
1575575498367,5.1282352E7
1575575498409,7814263.0
1575575498465,7992848.0
1575575498510,5020118.0
1575575498561,4239855.0
1575575498606,4676910.0
1575575498658,4406427.0
1575575498710,4146078.0
1575575498750,4135558.0
1575575498807,9398916.0
1575575498851,9330740.0
1575575498904,3372647.0
1575575498953,2989283.0
1575575499000,3015946.0
1575575499049,3033764.0
1575575499093,3059342.0
1575575499150,3121802.0
1575575499190,3177951.0
1575575499246,3237812.0
1575575499288,3286788.0
1575575499343,3320275.0
1575575499392,3376747.0
1575575499441,3452724.0
1575575499489,3432348.0
1575575499537,3452318.0
1575575499589,3483786.0
1575575499634,3521871.0
1575575499687,3542438.0
1575575499729,3572276.0
1575575499775,3609604.0
1575575499825,3620045.0
1575575499878,3643916.0
1575575499932,3663085.0
1575575499971,3635411.0
1575575500020,2985305.0
1575575500068,2879979.0
1575575500120,2910002.0
1575575500176,2927709.0
1575575500217,2940812.0
1575575500273,2961716.0
1575575500320,2886901.0
1575575500368,2863672.0
1575575500417,2887070.0
1575575500469,2908724.0
1575575500511,2919050.0
1575575500557,2920695.0
1575575500612,2933906.0
1575575500655,2942449.0
1575575500706,2958933.0
1575575500755,2971392.0
1575575500805,2977733.0
1575575500853,3021340.0
1575575500908,3415419.0
1575575500955,3344652.0
1575575501005,3158584.0
1575575501053,3549047.0
1575575501096,3821570.0
1575575501149,3885293.0
1575575501198,6183131.0
1575575501250,4277845.0
1575575501292,4873244.0
1575575501349,5276420.0
1575575501392,5106720.0
1575575501446,5735415.0
1575575501494,9697698.0
1575575501543,7395321.0
1575575501588,4319528.0
1575575501640,3942369.0
1575575501690,4132961.0
1575575501731,3645037.0
1575575501788,3580214.0
1575575501836,3608616.0
1575575501885,4248907.0
1575575501933,5306487.0
1575575501983,6860657.0
1575575502029,8738208.0
1575575502074,5192080.0
1575575502130,4806820.0
1575575502173,4722009.0
1575575502227,4623735.0
1575575502277,4356910.0
1575575502327,4227543.0
1575575502373,4213028.0
1575575502422,4052345.0
1575575502468,4033131.0
1575575502513,4050342.0
1575575502570,3913829.0
1575575502612,3745924.0
1575575502667,3886252.0
1575575502716,4241625.0
1575575502764,4234284.0
1575575502814,4252422.0
1575575502860,4294822.0
1575575502909,4303760.0
1575575502953,4316495.0
1575575503010,4320404.0
1575575503059,3458226.0
1575575503100,3479235.0
1575575503156,3517444.0
1575575503203,3211591.0
1575575503252,3271560.0
1575575503299,3424861.0
1575575503348,3480360.0
1575575503396,3546455.0
1575575503441,3607348.0
1575575503495,3668937.0
1575575503542,3731602.0
1575575503590,3788940.0
1575575503640,3846521.0
1575575503693,3874560.0
1575575503742,3895846.0
1575575503789,3885415.0
1575575503837,3881975.0
1575575503891,3884980.0
1575575503935,3881398.0
1575575503987,3899814.0
1575575504036,3924693.0
1575575504078,3941319.0
1575575504132,3963442.0
1575575504177,3976273.0
1575575504227,3995816.0
1575575504277,4011255.0
1575575504333,4018635.0
1575575504376,4034326.0
1575575504428,4050064.0
1575575504476,4071572.0
1575575504525,4098551.0
1575575504574,4125261.0
1575575504617,4140422.0
1575575504668,4137126.0
1575575504715,4089382.0
1575575504771,4064550.0
1575575504816,4059599.0
1575575504861,4090103.0
1575575504917,4362284.0
1575575504963,4309800.0
1575575505014,4298790.0
1575575505061,4304262.0
1575575505107,4214182.0
1575575505155,4151777.0
1575575505212,4167680.0
1575575505258,4042512.0
1575575505308,3935685.0
1575575505357,3952810.0
1575575505402,3925243.0
1575575505455,3899294.0
1575575505496,3919561.0
1575575505553,3929780.0
1575575505599,3933893.0
1575575505649,3947174.0
1575575505699,3975098.0
1575575505750,3975984.0
1575575505797,4003791.0
1575575505843,4003397.0
1575575505893,4008145.0
1575575505936,4034990.0
1575575505991,4034200.0
1575575506036,4025927.0
1575575506086,4027698.0
1575575506139,4019348.0
1575575506189,4037792.0
1575575506237,4036780.0
1575575506283,4009398.0
1575575506336,4004128.0
1575575506377,4004408.0
1575575506435,4005757.0
1575575506477,4000546.0
1575575506531,4018287.0
1575575506571,3977949.0
1575575506623,3966004.0
1575575506670,3983024.0
1575575506721,3954476.0
1575575506770,3956536.0
1575575506816,3965968.0
1575575506867,3979713.0
1575575506919,3980117.0
1575575506970,3971949.0
1575575507019,3970994.0
1575575507069,3963702.0
1575575507111,3971130.0
1575575507163,3974597.0
1575575507216,4012442.0
1575575507257,4038188.0
1575575507316,4055023.0
1575575507360,4055497.0
1575575507409,4053753.0
1575575507459,4054542.0
1575575507507,4052963.0
1575575507557,4071062.0
1575575507600,4086877.0
1575575507653,4179295.0
1575575507699,4238234.0
1575575507754,4227417.0
1575575507800,4229209.0
1575575507850,4208759.0
1575575507900,4175762.0
1575575507946,4155148.0
1575575507998,4141866.0
1575575508038,4167218.0
1575575508090,4200766.0
1575575508140,4145227.0
1575575508194,4140036.0
1575575508242,4131618.0
1575575508293,4147124.0
1575575508340,4165300.0
1575575508382,4234189.0
1575575508438,4273198.0
1575575508478,4298105.0
1575575508536,4318998.0
1575575508580,4350360.0
1575575508627,4416985.0
1575575508680,4769005.0
1575575508728,4725361.0
1575575508779,4727673.0
1575575508821,4718919.0
1575575508870,4709006.0
1575575508919,4696244.0
1575575508976,4680718.0
1575575509021,4679832.0
1575575509072,4663419.0
1575575509114,4647940.0
1575575509167,4632529.0
1575575509218,4617849.0
1575575509260,4602487.0
1575575509318,4589724.0
1575575509361,4579862.0
1575575509415,4571249.0
1575575509463,4607880.0
1575575509505,4559768.0
1575575509555,4522329.0
1575575509614,4498885.0
1575575509652,4514113.0
1575575509709,4515606.0
1575575509753,4540948.0
1575575509802,4505801.0
1575575509855,4459162.0
1575575509902,4449666.0
1575575509952,4436922.0
1575575509993,4438694.0
1575575510044,4471194.0
1575575510091,4470085.0
1575575510141,4437414.0
1575575510189,4448211.0
1575575510239,4455513.0
1575575510286,4462640.0
1575575510333,4461474.0
1575575510382,4460145.0
1575575510431,4464134.0
1575575510483,4465751.0
1575575510531,4460694.0
1575575510579,4454434.0
1575575510629,4458546.0
1575575510682,4464065.0
1575575510729,4465810.0
1575575510782,4467774.0
1575575510829,4470674.0
1575575510876,4491912.0
1575575510922,4565703.0
1575575510978,4606080.0
1575575511023,4977806.0
1575575511077,4855182.0
1575575511121,2259604.0
1575575511176,3587238.0
1575575511223,3651183.0
1575575511270,4674572.0
1575575511323,4313662.0
1575575511369,4194427.0
1575575511419,4259232.0
1575575511462,4295255.0
1575575511517,4364432.0
1575575511563,4426829.0
1575575511610,4453124.0
1575575511664,4490496.0
1575575511706,4489831.0
1575575511762,4650164.0
1575575511809,5132237.0
1575575511859,5398204.0
1575575511902,5483706.0
1575575511958,5302462.0
1575575512004,4724542.0
1575575512055,4501428.0
1575575512098,4492826.0
1575575512150,4630294.0
1575575512203,4697274.0
1575575512243,4696033.0
1575575512300,4903688.0
1575575512344,5118077.0
1575575512398,5130030.0
1575575512446,5196645.0
1575575512496,5282909.0
1575575512544,5311872.0
1575575512591,5337272.0
1575575512636,5346625.0
1575575512683,5347193.0
1575575512740,5354475.0
1575575512784,5352817.0
1575575512838,5330413.0
1575575512887,5328121.0
1575575512936,5324923.0
1575575512984,5343792.0
1575575513027,5325096.0
1575575513082,5267586.0
1575575513132,5163926.0
1575575513179,5187456.0
1575575513226,5128653.0
1575575513277,5107907.0
1575575513331,5072170.0
1575575513375,5083412.0
1575575513424,5111084.0
1575575513470,5129567.0
1575575513522,5174627.0
1575575513569,5179192.0
1575575513613,5210516.0
1575575513668,5206489.0
1575575513717,5222170.0
1575575513767,5233440.0
1575575513812,5232910.0
1575575513865,5251750.0
1575575513911,5253097.0
1575575513963,5263569.0
1575575514007,5299419.0
1575575514060,5345806.0
1575575514105,5389738.0
1575575514156,5459646.0
1575575514203,5541306.0
1575575514250,5585257.0
1575575514306,5599378.0
1575575514347,5661013.0
1575575514403,5663189.0
1575575514447,5687511.0
1575575514499,5731120.0
1575575514548,5673025.0
1575575514591,5688549.0
1575575514643,5691477.0
1575575514694,5702603.0
1575575514745,5726541.0
1575575514787,5773431.0
1575575514842,5845910.0
1575575514887,5892868.0
1575575514938,5862202.0
1575575514990,5865368.0
1575575515036,5894564.0
1575575515084,6001698.0
1575575515133,6058414.0
1575575515186,6072334.0
1575575515228,6077683.0
1575575515275,6098013.0
1575575515326,6109726.0
1575575515370,6109954.0
1575575515424,6131730.0
1575575515470,6149506.0
1575575515517,6160676.0
1575575515569,6161288.0
1575575515618,6174291.0
1575575515672,6174189.0
1575575515722,6182194.0
1575575515768,6200330.0
1575575515817,6210643.0
1575575515866,6224934.0
1575575515913,6234422.0
1575575515966,6253563.0
1575575516008,6260156.0
1575575516064,6287802.0
1575575516109,6306436.0
1575575516161,6323466.0
1575575516213,6333596.0
1575575516253,6352908.0
1575575516311,6357646.0
1575575516351,6366037.0
1575575516406,6370683.0
1575575516450,6384251.0
1575575516504,6397663.0
1575575516553,6389894.0
1575575516595,6446080.0
1575575516647,6494407.0
1575575516695,6463266.0
1575575516745,6451496.0
1575575516798,6437621.0
1575575516848,6442065.0
1575575516890,6468207.0
1575575516946,6485723.0
1575575516991,6499596.0
1575575517041,6487893.0
1575575517085,6402998.0
1575575517146,6330000.0
1575575517192,6295944.0
1575575517231,6673873.0
1575575517288,6545820.0
1575575517332,6716216.0
1575575517386,6780997.0
1575575517430,6661536.0
1575575517485,6440349.0
1575575517531,6385221.0
1575575517579,6404192.0
1575575517628,6513383.0
1575575517678,6779962.0
1575575517731,6816642.0
1575575517774,6726624.0
1575575517827,6663962.0
1575575517871,6658339.0
1575575517925,6638479.0
1575575517972,6606776.0
1575575518024,6593228.0
1575575518068,6625895.0
1575575518115,6624622.0
1575575518169,6535790.0
1575575518210,6553025.0
1575575518269,6614972.0
1575575518308,6458707.0
1575575518364,6321199.0
1575575518412,6378410.0
1575575518460,6495198.0
1575575518508,6524930.0
1575575518553,6468266.0
1575575518607,6558910.0
1575575518648,6445260.0
1575575518707,6389322.0
1575575518750,6484464.0
1575575518806,6541963.0
1575575518853,6457606.0
1575575518899,6600263.0
1575575518950,6550736.0
1575575518996,6472515.0
1575575519050,6491562.0
1575575519090,6474204.0
1575575519144,6441822.0
1575575519192,6429139.0
1575575519244,6394233.0
1575575519292,6371925.0
1575575519340,6354378.0
1575575519387,6347567.0
1575575519432,6339869.0
1575575519482,6286906.0
1575575519533,6241302.0
1575575519586,6199500.0
1575575519635,6173455.0
1575575519686,6130389.0
1575575519729,6135837.0
1575575519778,6101557.0
1575575519831,6081300.0
1575575519871,6058129.0
1575575519929,6041096.0
1575575519974,6024362.0
1575575520020,6003467.0
1575575520066,5976160.0
1575575520114,5941292.0
1575575520171,5913948.0
1575575520213,5876181.0
1575575520269,5829265.0
1575575520315,5795386.0
1575575520368,5769503.0
1575575520412,5770116.0
1575575520465,5762306.0
1575575520515,5726612.0
1575575520563,5692633.0
1575575520610,5672198.0
1575575520653,5655466.0
1575575520710,5650030.0
1575575520752,5629496.0
1575575520808,5597053.0
1575575520857,5556224.0
1575575520904,5524181.0
1575575520954,5503011.0
1575575521001,5495287.0
1575575521049,5490400.0
1575575521093,5468155.0
1575575521150,5444497.0
1575575521197,5415428.0
1575575521247,5405419.0
1575575521298,5404305.0
1575575521347,5398633.0
1575575521393,5374612.0
1575575521440,5348980.0
1575575521488,5323412.0
1575575521535,5299478.0
1575575521583,5287044.0
1575575521633,5266573.0
1575575521677,5242028.0
1575575521731,5217259.0
1575575521777,5207087.0
1575575521828,5201924.0
1575575521875,5196276.0
1575575521928,5180079.0
1575575521974,5138337.0
1575575522030,5102859.0
1575575522078,5080113.0
1575575522125,5065829.0
1575575522177,5053107.0
1575575522224,5037022.0
1575575522273,5016290.0
1575575522319,5003304.0
1575575522368,4984645.0
1575575522416,4973386.0
1575575522469,4959627.0
1575575522515,4921860.0
1575575522565,4891966.0
1575575522611,4876245.0
1575575522656,4881156.0
1575575522712,4888353.0
1575575522754,4904414.0
1575575522809,4916798.0
1575575522859,4935507.0
1575575522909,4963251.0
1575575522957,4985346.0
1575575523005,4999693.0
1575575523053,4972961.0
1575575523096,4929046.0
1575575523155,4908537.0
1575575523194,4895528.0
1575575523248,4890053.0
1575575523297,4878282.0
1575575523351,4868846.0
1575575523396,4850537.0
1575575523444,4863647.0
1575575523495,4874844.0
1575575523535,4885279.0
1575575523587,4884268.0
1575575523636,4859973.0
1575575523689,4836841.0
1575575523736,4824769.0
1575575523788,4825905.0
1575575523837,4829004.0
1575575523885,4827955.0
1575575523932,4832617.0
1575575523977,4839289.0
1575575524029,4852962.0
1575575524075,4867808.0
1575575524127,4856535.0
1575575524178,4799299.0
1575575524227,4765581.0
1575575524277,4751371.0
1575575524321,4778527.0
1575575524374,4811371.0
1575575524415,4820843.0
1575575524470,4828005.0
1575575524517,4833778.0
1575575524570,4837304.0
1575575524611,4837791.0
1575575524661,4833704.0
1575575524717,4802723.0
1575575524757,4771505.0
1575575524815,4761070.0
1575575524854,4767717.0
1575575524909,4783252.0
1575575524958,4783139.0
1575575525003,4781527.0
1575575525049,4786277.0
1575575525101,4793624.0
1575575525148,4799061.0
1575575525198,4814046.0
1575575525247,4825555.0
1575575525297,4826017.0
1575575525353,4786014.0
1575575525396,4758918.0
1575575525450,4758406.0
1575575525498,4775992.0
1575575525544,4807897.0
1575575525589,4834741.0
1575575525646,4865071.0
1575575525692,4892629.0
1575575525738,4906289.0
1575575525790,4913749.0
1575575525839,4928520.0
1575575525889,4918460.0
1575575525937,4893127.0
1575575525983,4877444.0
1575575526036,4864783.0
1575575526077,4864397.0
1575575526132,4863809.0
1575575526182,4860148.0
1575575526230,4861172.0
1575575526279,4861509.0
1575575526329,4867146.0
1575575526378,4900839.0
1575575526423,4938893.0
1575575526475,4934858.0
1575575526517,4915235.0
1575575526574,4909574.0
1575575526617,4945917.0
1575575526674,4975885.0
1575575526719,5001442.0
1575575526767,5017476.0
1575575526816,5027662.0
1575575526858,5042272.0
1575575526915,5049757.0
1575575526958,5064380.0
1575575527013,5085651.0
1575575527060,5080450.0
1575575527109,5052344.0
1575575527157,5024725.0
1575575527200,5008253.0
1575575527258,5000706.0
1575575527297,5001992.0
1575575527376,5009515.0
1575575527416,5020963.0
1575575527453,5020389.0
1575575527512,5019389.0
1575575527559,5033460.0
1575575527593,5047170.0
1575575527646,4998831.0
1575575527697,4986008.0
1575575527738,4992419.0
1575575527796,4989282.0
1575575527842,4975910.0
1575575527888,4984596.0
1575575527941,5008503.0
1575575527988,5029236.0
1575575528040,5055793.0
1575575528082,5070877.0
1575575528137,5082738.0
1575575528179,5078514.0
1575575528235,5073077.0
1575575528280,5063066.0
1575575528334,4775390.0
1575575528381,4834216.0
1575575528430,4791563.0
1575575528471,4807810.0
1575575528521,4932558.0
1575575528577,4835278.0
1575575528619,4998768.0
1575575528668,5077488.0
1575575528724,5062467.0
1575575528775,4978584.0
1575575528820,4803786.0
1575575528862,4804985.0
1575575528911,4842976.0
1575575528960,4957527.0
1575575529011,5112782.0
1575575529058,4665290.0
1575575529108,4517557.0
1575575529157,4654291.0
1575575529205,4822442.0
1575575529260,4893754.0
1575575529304,4885566.0
1575575529360,4788700.0
1575575529400,4742586.0
1575575529456,4674688.0
1575575529503,4603466.0
1575575529554,4565973.0
1575575529596,4540903.0
1575575529650,4516183.0
1575575529700,4488115.0
1575575529742,4462407.0
1575575529798,4438364.0
1575575529842,4429853.0
1575575529896,4419779.0
1575575529944,4418380.0
1575575529988,4402007.0
1575575530043,4357643.0
1575575530085,4318964.0
1575575530140,4294368.0
1575575530182,4289095.0
1575575530238,4273374.0
1575575530283,4250415.0
1575575530336,4231958.0
1575575530385,4219210.0
1575575530433,4203737.0
1575575530481,4191566.0
1575575530524,4192215.0
1575575530579,4189516.0
1575575530630,4167471.0
1575575530670,4138001.0
1575575530723,4126955.0
1575575530776,4126030.0
1575575530824,4120057.0
1575575530867,4134103.0
1575575530921,4157660.0
1575575530968,4201427.0
1575575531020,4209412.0
1575575531062,4168434.0
1575575531111,4088863.0
1575575531163,3959754.0
1575575531216,3881283.0
1575575531265,3884680.0
1575575531311,3767424.0
1575575531363,3814985.0
1575575531404,3828047.0
1575575531459,3829741.0
1575575531503,3839229.0
1575575531557,3846674.0
1575575531600,3824790.0
1575575531655,3789277.0
1575575531704,3817585.0
1575575531747,3807252.0
1575575531801,3889210.0
1575575531847,3875319.0
1575575531899,3830964.0
1575575531946,3745097.0
1575575531990,3684664.0
1575575532046,3665082.0
1575575532089,3725494.0
1575575532144,3665796.0
1575575532187,3653534.0
1575575532241,3609604.0
1575575532283,3603246.0
1575575532339,3653485.0
1575575532386,3668108.0
1575575532437,3637178.0
1575575532486,3627355.0
1575575532533,3618927.0
1575575532583,3622597.0
1575575532628,3631449.0
1575575532673,3644856.0
1575575532724,3664024.0
1575575532779,3681824.0
1575575532826,3639972.0
1575575532870,3567270.0
1575575532926,3213295.0
1575575532973,3118256.0
1575575533023,3091006.0
1575575533065,3069972.0
1575575533114,3010954.0
1575575533165,2998828.0
1575575533218,2992780.0
1575575533269,2990098.0
1575575533314,2983946.0
1575575533366,2986449.0
1575575533406,2987808.0
1575575533463,2987207.0
1575575533507,2980059.0
1575575533561,2985268.0
1575575533606,2982481.0
1575575533656,2971158.0
1575575533708,2963236.0
1575575533754,2956682.0
1575575533806,2947009.0
1575575533846,2944438.0
1575575533903,2939660.0
1575575533947,2934562.0
1575575534001,2935773.0
1575575534047,2938069.0
1575575534093,2940663.0
1575575534149,2943203.0
1575575534189,2946058.0
1575575534245,2939794.0
1575575534286,2928209.0
1575575534344,2918684.0
1575575534388,2912881.0
1575575534440,2911475.0
1575575534487,2913594.0
1575575534537,2917182.0
1575575534587,2912286.0
1575575534635,2913133.0
1575575534678,2919940.0
1575575534727,2923544.0
1575575534783,2928091.0
1575575534829,2917792.0
1575575534878,2906120.0
1575575534931,2899336.0
1575575534977,2893769.0
1575575535028,2891117.0
1575575535073,2885396.0
1575575535121,2878531.0
1575575535169,2873693.0
1575575535222,2874042.0
1575575535271,2873744.0
1575575535317,2872214.0
1575575535369,2862874.0
1575575535411,2842953.0
1575575535468,2822623.0
1575575535510,2805459.0
1575575535565,2789975.0
1575575535610,2773591.0
1575575535656,2763678.0
1575575535712,2759361.0
1575575535754,2757794.0
1575575535808,2757579.0
1575575535853,2760090.0
1575575535908,2752162.0
1575575535950,2725032.0
1575575536005,2704400.0
1575575536054,2691218.0
1575575536098,2678824.0
1575575536151,2665606.0
1575575536198,2654488.0
1575575536249,2628817.0
1575575536293,2596272.0
1575575536351,2577956.0
1575575536389,2566111.0
1575575536445,2570496.0
1575575536489,2577562.0
1575575536541,2575213.0
1575575536592,2576700.0
1575575536638,2585268.0
1575575536685,2597254.0
1575575536733,2610322.0
1575575536788,2619239.0
1575575536829,2629032.0
1575575536885,2636812.0
1575575536930,2646599.0
1575575536980,2647119.0
1575575537029,2643143.0
1575575537077,2635103.0
1575575537130,2633520.0
1575575537174,2635156.0
1575575537228,2640861.0
1575575537270,2646003.0
1575575537325,2651434.0
1575575537370,2655796.0
1575575537421,2659669.0
1575575537468,2666229.0
1575575537518,2670955.0
1575575537569,2667136.0
1575575537611,2659208.0
1575575537667,2657401.0
1575575537708,2659557.0
1575575537764,2663643.0
1575575537810,2667938.0
1575575537859,2666207.0
1575575537909,2670309.0
1575575537957,2674610.0
1575575538009,2679084.0
1575575538049,2681126.0
1575575538100,2674440.0
1575575538150,2671786.0
1575575538197,2668212.0
1575575538246,2672865.0
1575575538295,2677152.0
1575575538345,2678393.0
1575575538392,2682924.0
1575575538443,2685533.0
1575575538492,2689464.0
1575575538540,2694389.0
1575575538591,2694932.0
1575575538637,2692703.0
1575575538687,2690348.0
1575575538734,2692762.0
1575575538786,2702102.0
1575575538832,2707132.0
1575575538882,2709607.0
1575575538930,2712297.0
1575575538978,2718055.0
1575575539030,2721131.0
1575575539076,2728273.0
1575575539126,2728659.0
1575575539174,2724045.0
1575575539225,2724601.0
1575575539272,2725888.0
1575575539322,2728303.0
1575575539369,2729417.0
1575575539419,2728726.0
1575575539468,2728161.0
1575575539517,2726749.0
1575575539566,2726727.0
1575575539614,2726786.0
1575575539664,2724075.0
1575575539712,2723279.0
1575575539762,2718821.0
1575575539810,2717633.0
1575575539858,2721399.0
1575575539908,2722820.0
1575575539956,2723279.0
1575575540006,2728429.0
1575575540053,2734336.0
1575575540103,2739374.0
1575575540151,2744322.0
1575575540201,2741284.0
1575575540258,2743779.0
1575575540304,2745437.0
1575575540352,2749114.0
1575575540401,2751752.0
1575575540445,2754844.0
1575575540493,2758619.0
1575575540541,2763485.0
1575575540591,2765752.0
1575575540639,2767422.0
1575575540691,2765246.0
1575575540739,2760261.0
1575575540789,2757422.0
1575575540833,2758105.0
1575575540888,2760750.0
1575575540933,2765417.0
1575575540990,2767699.0
1575575541037,2769503.0
1575575541087,2774505.0
1575575541136,2781021.0
1575575541184,2789930.0
1575575541231,2803409.0
1575575541279,2824636.0
1575575541328,2846565.0
1575575541372,2873693.0
1575575541430,2902887.0
1575575541473,2937795.0
1575575541527,2984324.0
1575575541574,3005277.0
1575575541621,3018317.0
1575575541671,3032762.0
1575575541719,3063279.0
1575575541768,3067544.0
1575575541817,3096878.0
1575575541866,3111962.0
1575575541915,3117202.0
1575575541966,3130018.0
1575575542013,3148460.0
1575575542063,3167705.0
1575575542107,3203602.0
1575575542153,3239810.0
1575575542208,3267110.0
1575575542257,3277110.0
1575575542308,3290105.0
1575575542356,3323284.0
1575575542404,3356466.0
1575575542456,3377450.0
1575575542496,3406770.0
1575575542554,3434969.0
1575575542595,3452734.0
1575575542651,3475212.0
1575575542697,3497124.0
1575575542747,3515373.0
1575575542797,3534179.0
1575575542843,3558462.0
1575575542894,3576153.0
1575575542936,3590020.0
1575575542992,3599530.0
1575575543035,3608395.0
1575575543092,3614242.0
1575575543134,3629683.0
1575575543179,3636705.0
1575575543236,3645056.0
1575575543278,3653400.0
1575575543333,3665802.0
1575575543378,3670914.0
1575575543431,3677586.0
1575575543476,3690284.0
1575575543529,3695108.0
1575575543577,3702099.0
1575575543619,3709752.0
1575575543676,3711089.0
1575575543717,3712412.0
1575575543774,3711366.0
1575575543816,3710354.0
1575575543864,3699959.0
1575575543917,3676984.0
1575575543969,3657813.0
1575575544009,3635984.0
1575575544064,3627357.0
1575575544108,3625945.0
1575575544157,3617058.0
1575575544213,3611694.0
1575575544262,3599315.0
1575575544309,3594433.0
1575575544358,3579729.0
1575575544406,3558247.0
1575575544457,3516466.0
1575575544502,3476378.0
1575575544556,3442726.0
1575575544597,3416051.0
1575575544654,3400053.0
1575575544699,3381054.0
1575575544750,3361706.0
1575575544798,3339369.0
1575575544846,3320890.0
1575575544897,3302893.0
1575575544939,3289378.0
1575575544995,3261456.0
1575575545038,3212600.0
1575575545090,3160082.0
1575575545139,3120678.0
1575575545189,3093609.0
1575575545238,3071162.0
1575575545283,3044219.0
1575575545337,3014818.0
1575575545379,2993099.0
1575575545434,2978194.0
1575575545476,2965585.0
1575575545532,2955079.0
1575575545579,2916788.0
1575575545624,2871761.0
1575575545678,2839720.0
1575575545721,2815766.0
1575575545776,2798364.0
1575575545817,2784847.0
1575575545867,2768115.0
1575575545919,2754375.0
1575575545970,2742769.0
1575575546013,2733533.0
1575575546063,2726676.0
1575575546111,2717907.0
1575575546162,2684976.0
1575575546211,2655894.0
1575575546261,2641381.0
1575575546312,2632175.0
1575575546361,2627019.0
1575575546413,2620139.0
1575575546462,2609178.0
1575575546511,2603316.0
1575575546558,2599519.0
1575575546602,2597794.0
1575575546657,2597520.0
1575575546698,2596390.0
1575575546755,2572204.0
1575575546801,2555012.0
1575575546850,2546458.0
1575575546900,2545722.0
1575575546952,2545879.0
1575575546999,2539377.0
1575575547041,2530714.0
1575575547094,2524657.0
1575575547139,2513676.0
1575575547195,2506103.0
1575575547241,2488472.0
1575575547292,2448979.0
1575575547341,2387968.0
1575575547384,2360683.0
1575575547438,2351077.0
1575575547483,2358603.0
1575575547537,2326499.0
1575575547579,2262928.0
1575575547627,2164723.0
1575575547683,2106999.0
1575575547730,2097932.0
1575575547781,2122166.0
1575575547830,2148244.0
1575575547872,2166416.0
1575575547920,2186634.0
1575575547977,2215899.0
1575575548020,2230215.0
1575575548076,2231742.0
1575575548116,2232090.0
1575575548174,2243561.0
1575575548221,2257091.0
1575575548270,2286780.0
1575575548318,2320312.0
1575575548361,2346351.0
1575575548417,2362112.0
1575575548462,2370001.0
1575575548515,2376957.0
1575575548564,2383563.0
1575575548607,2391078.0
1575575548653,2395824.0
1575575548713,2401342.0
1575575548759,2406509.0
1575575548799,2412009.0
1575575548857,2413338.0
1575575548903,2415303.0
1575575548956,2414882.0
1575575549003,2412962.0
1575575549048,2408695.0
1575575549093,2409591.0
1575575549144,2410426.0
1575575549198,2410975.0
1575575549242,2412160.0
1575575549296,2411113.0
1575575549344,2410400.0
1575575549390,2412657.0
1575575549442,2413935.0
1575575549489,2413238.0
1575575549539,2410987.0
1575575549581,2404020.0
1575575549630,2396267.0
1575575549684,2394144.0
1575575549737,2391996.0
1575575549784,2391172.0
1575575549831,2390385.0
1575575549879,2388859.0
1575575549928,2380393.0
1575575549978,2376935.0
1575575550021,2373105.0
1575575550077,2373298.0
1575575550121,2372226.0
1575575550175,2365537.0
1575575550224,2357983.0
1575575550271,2353722.0
1575575550320,2365596.0
1575575550363,2395564.0
1575575550419,2423917.0
1575575550465,2447329.0
1575575550516,2464763.0
1575575550566,2476505.0
1575575550608,2482184.0
1575575550663,2475062.0
1575575550705,2452514.0
1575575550760,2446969.0
1575575550803,2459119.0
1575575550858,2475643.0
1575575550906,2497903.0
1575575550956,2523075.0
1575575551005,2550574.0
1575575551052,2580979.0
1575575551096,2613432.0
1575575551146,2631868.0
1575575551191,2650046.0
1575575551244,2662064.0
1575575551292,2674088.0
1575575551342,2679399.0
1575575551390,2678863.0
1575575551444,2676766.0
1575575551490,2679698.0
1575575551541,2686543.0
1575575551583,2690074.0
1575575551632,2692935.0
1575575551685,2698817.0
1575575551736,2703674.0
1575575551785,2705582.0
1575575551833,2711127.0
1575575551883,2716296.0
1575575551925,2720672.0
1575575551981,2721940.0
1575575552023,2719886.0
1575575552078,2723234.0
1575575552122,2731225.0
1575575552174,2735347.0
1575575552226,2739596.0
1575575552272,2746319.0
1575575552323,2752804.0
1575575552366,2758525.0
1575575552420,2761252.0
1575575552467,2768501.0
1575575552516,2769708.0
1575575552568,2764340.0
1575575552609,2762327.0
1575575552666,2761768.0
1575575552707,2764430.0
1575575552763,2759665.0
1575575552807,2759084.0
1575575552861,2759858.0
1575575552907,2754824.0
1575575552958,2757126.0
1575575553008,2758414.0
1575575553055,2754448.0
1575575553099,2743513.0
1575575553146,2736668.0
1575575553204,2734401.0
1575575553247,2732369.0
1575575553300,2730837.0
1575575553348,2728425.0
1575575553391,2726123.0
1575575553448,2722421.0
1575575553489,2722226.0
1575575553544,2720922.0
1575575553591,2721867.0
1575575553635,2719831.0
1575575553688,2710873.0
1575575553739,2711759.0
1575575553789,2716623.0
1575575553833,2709827.0
1575575553886,2697378.0
1575575553927,2688292.0
1575575553975,2667751.0
1575575554026,2658251.0
1575575554080,2640158.0
1575575554133,2624420.0
1575575554172,2592211.0
1575575554221,2589212.0
1575575554270,2573206.0
1575575554319,2570853.0
1575575554369,2559034.0
1575575554417,2538788.0
1575575554471,2540371.0
1575575554518,2544603.0
1575575554567,2546944.0
1575575554612,2555294.0
1575575554668,2576006.0
1575575554709,2600025.0
1575575554765,2625456.0
1575575554809,2648529.0
1575575554862,2663070.0
1575575554911,2681088.0
1575575554958,2704891.0
1575575555010,2739137.0
1575575555050,2764667.0
1575575555100,2797795.0
1575575555149,2817792.0
1575575555204,2831122.0
1575575555251,2838609.0
1575575555302,2860426.0
1575575555352,2863835.0
1575575555391,2858345.0
1575575555450,2857825.0
1575575555490,2833241.0
1575575555548,2818854.0
1575575555589,2820542.0
1575575555638,2833899.0
1575575555692,2843123.0
1575575555740,2853493.0
1575575555792,2860558.0
1575575555834,2868299.0
1575575555890,2857520.0
1575575555930,2864233.0
1575575555987,2849895.0
1575575556030,2837723.0
1575575556085,2815784.0
1575575556133,2814506.0
1575575556182,2825079.0
1575575556227,2848713.0
1575575556277,2879461.0
1575575556330,2928125.0
1575575556375,3027746.0
1575575556427,3071681.0
1575575556468,3128230.0
1575575556523,3184310.0
1575575556574,3220193.0
1575575556615,3212298.0
1575575556669,3246780.0
1575575556717,3237213.0
1575575556769,3235726.0
1575575556812,3240173.0
1575575556866,3244690.0
1575575556910,3233617.0
1575575556963,3239925.0
1575575557006,3253436.0
1575575557058,3250665.0
1575575557105,3274093.0
1575575557154,3324584.0
1575575557208,3322477.0
1575575557251,3316861.0
1575575557305,3325338.0
1575575557355,3344615.0
1575575557403,3355292.0
1575575557452,3373549.0
1575575557500,3378710.0
1575575557548,3349077.0
1575575557593,3370735.0
1575575557640,3429495.0
1575575557694,3471553.0
1575575557745,3520164.0
1575575557792,3551798.0
1575575557842,3509241.0
1575575557888,3515924.0
1575575557937,3499160.0
1575575557989,3517090.0
1575575558031,3636226.0
1575575558087,3694401.0
1575575558134,3687619.0
1575575558183,3667033.0
1575575558232,3631112.0
1575575558282,3641447.0
1575575558327,3635939.0
1575575558376,3646309.0
1575575558429,3630019.0
1575575558471,3640894.0
1575575558526,3632426.0
1575575558575,3635492.0
1575575558617,3644921.0
1575575558669,3634980.0
1575575558719,3630624.0
1575575558769,3649523.0
1575575558815,3652443.0
1575575558868,3620843.0
1575575558914,3617676.0
1575575558964,3655637.0
1575575559012,3669327.0
1575575559062,3666206.0
1575575559106,3685778.0
1575575559157,3694894.0
1575575559210,3702229.0
1575575559255,3706924.0
1575575559300,3707491.0
1575575559356,3706317.0
1575575559406,3677570.0
1575575559453,3668514.0
1575575559500,3666521.0
1575575559547,3659759.0
1575575559593,3649202.0
1575575559642,3635352.0
1575575559698,3612434.0
1575575559746,3600637.0
1575575559793,3596336.0
1575575559844,3595757.0
1575575559892,3607460.0
1575575559939,3606446.0
1575575559987,3635126.0
1575575560032,3660212.0
1575575560088,3655470.0
1575575560136,3625104.0
1575575560185,3593022.0
1575575560231,3571531.0
1575575560283,3551492.0
1575575560329,3534915.0
1575575560377,3519764.0
1575575560427,3523226.0
1575575560476,3515836.0
1575575560527,3474413.0
1575575560575,3424674.0
1575575560619,3400515.0
1575575560672,3392581.0
1575575560722,3393261.0
1575575560768,3389527.0
1575575560815,3385465.0
1575575560863,3386880.0
1575575560915,3389372.0
1575575560967,3395108.0
1575575561013,3412746.0
1575575561062,3431263.0
1575575561107,3436198.0
1575575561159,3440099.0
1575575561209,3454382.0
1575575561258,3460364.0
1575575561302,3470165.0
1575575561355,3479655.0
1575575561402,3489678.0
1575575561455,3501661.0
1575575561500,3519778.0
1575575561553,3521806.0
1575575561596,3536249.0
1575575561645,3562502.0
1575575561697,3587961.0
1575575561748,3603712.0
1575575561797,3634405.0
1575575561842,3648950.0
1575575561895,3668815.0
1575575561939,3685491.0
1575575561992,3698568.0
1575575562036,3711626.0
1575575562091,3723387.0
1575575562135,3731350.0
1575575562187,3739432.0
1575575562236,3745946.0
1575575562281,3753142.0
1575575562334,3761836.0
1575575562375,3771832.0
1575575562428,3780768.0
1575575562477,3788210.0
1575575562530,3802014.0
1575575562577,3810488.0
1575575562624,3818764.0
1575575562675,3823173.0
1575575562716,3828573.0
1575575562773,3839882.0
1575575562815,3846097.0
1575575562865,3860874.0
1575575562917,3870136.0
1575575562968,3880880.0
1575575563017,3892236.0
1575575563061,3906665.0
1575575563109,3924402.0
1575575563158,3935213.0
1575575563213,3945075.0
1575575563257,4001026.0
1575575563309,4003718.0
1575575563357,4013785.0
1575575563405,4017643.0
1575575563456,4020882.0
1575575563497,4024456.0
1575575563555,4032351.0
1575575563598,4037282.0
1575575563645,4042770.0
1575575563698,4047845.0
1575575563750,4051770.0
1575575563797,4065261.0
1575575563845,4068817.0
1575575563895,4076050.0
1575575563936,4078398.0
1575575563994,4087777.0
1575575564037,4091536.0
1575575564091,4098440.0
1575575564137,4104153.0
1575575564189,4105352.0
1575575564237,4111032.0
1575575564283,4114446.0
1575575564335,4114588.0
1575575564377,4121226.0
1575575564434,4118523.0
1575575564480,4121888.0
1575575564531,4126435.0
1575575564580,4134806.0
1575575564628,4138632.0
1575575564677,4149707.0
1575575564720,4149243.0
1575575564775,4154235.0
1575575564816,4156635.0
1575575564866,4162517.0
1575575564920,4164555.0
1575575564969,4170335.0
1575575565018,4177038.0
1575575565062,4183346.0
1575575565110,4185788.0
1575575565156,4190787.0
1575575565215,4194738.0
1575575565259,4202524.0
1575575565312,4206275.0
1575575565360,4206760.0
1575575565408,4209739.0
1575575565458,4216106.0
1575575565503,4215820.0
1575575565556,4217390.0
1575575565601,4220350.0
1575575565647,4214345.0
1575575565700,4216970.0
1575575565752,4216610.0
1575575565800,4214538.0
1575575565846,4216224.0
1575575565898,4214278.0
1575575565939,4201912.0
1575575565996,4196232.0
1575575566041,4204344.0
1575575566092,4220686.0
1575575566138,4208028.0
1575575566190,4206283.0
1575575566239,4170083.0
1575575566285,4139487.0
1575575566337,4131074.0
1575575566378,4117768.0
1575575566435,4090185.0
1575575566479,4038432.0
1575575566533,3978668.0
1575575566581,3924819.0
1575575566628,3876053.0
1575575566678,3842470.0
1575575566722,3804576.0
1575575566777,3755333.0
1575575566820,3702934.0
1575575566868,3664863.0
1575575566924,3632741.0
1575575566970,3600209.0
1575575567020,3575586.0
1575575567063,3551097.0
1575575567111,3495344.0
1575575567159,3444414.0
1575575567216,3405295.0
1575575567261,3374313.0
1575575567315,3342411.0
1575575567363,3304415.0
1575575567403,3259719.0
1575575567459,3221867.0
1575575567503,3186732.0
1575575567558,3159552.0
1575575567603,3133159.0
1575575567648,3111590.0
1575575567704,3065116.0
1575575567753,3012331.0
1575575567801,2967525.0
1575575567850,2936240.0
1575575567898,2912030.0
1575575567941,2885252.0
1575575567997,2854580.0
1575575568043,2833684.0
1575575568092,2813683.0
1575575568139,2796873.0
1575575568190,2783483.0
1575575568240,2783022.0
1575575568285,2774909.0
1575575568338,2750815.0
1575575568382,2738962.0
1575575568436,2744892.0
1575575568484,2759507.0
1575575568532,2771100.0
1575575568583,2773459.0
1575575568628,2770783.0
1575575568679,2777041.0
1575575568721,2793500.0
1575575568777,2825949.0
1575575568823,2863366.0
1575575568868,2898222.0
1575575568924,2898876.0
1575575568972,2905092.0
1575575569021,2916518.0
1575575569064,2908539.0
1575575569112,2902215.0
1575575569163,2925730.0
1575575569216,2948557.0
1575575569265,2954412.0
1575575569312,2946661.0
1575575569363,2986443.0
1575575569404,3012516.0
1575575569459,3038563.0
1575575569503,3031123.0
1575575569558,3021710.0
1575575569604,3024747.0
1575575569648,3063663.0
1575575569705,3079066.0
1575575569751,3081876.0
1575575569802,3102557.0
1575575569843,3123118.0
1575575569899,3128671.0
1575575569944,3127547.0
1575575569998,3127631.0
1575575570047,3131566.0
1575575570092,3135701.0
1575575570138,3139712.0
1575575570191,3150677.0
1575575570242,3156179.0
1575575570284,3156028.0
1575575570339,3152798.0
1575575570387,3155994.0
1575575570437,3192915.0
1575575570487,3240624.0
1575575570534,3209291.0
1575575570583,3229090.0
1575575570630,3231288.0
1575575570681,3233050.0
1575575570724,3235305.0
1575575570779,3239332.0
1575575570825,3242185.0
1575575570870,3242479.0
1575575570926,3253142.0
1575575570971,3254558.0
1575575571023,3256949.0
1575575571064,3248627.0
1575575571114,3248963.0
1575575571165,3243702.0
1575575571218,3269885.0
1575575571268,3320699.0
1575575571314,3311195.0
1575575571366,3315632.0
1575575571407,3314700.0
1575575571463,3315338.0
1575575571506,3331295.0
1575575571560,3332276.0
1575575571604,3337746.0
1575575571651,3349634.0
1575575571707,3370530.0
1575575571754,3398215.0
1575575571804,3423449.0
1575575571846,3419322.0
1575575571902,3408239.0
1575575571947,3414901.0
1575575571999,3479363.0
1575575572049,3470973.0
1575575572091,3449211.0
1575575572140,3457265.0
1575575572186,3465201.0
1575575572244,3469070.0
1575575572286,3478666.0
1575575572342,3477853.0
1575575572387,3465520.0
1575575572435,3471242.0
1575575572489,3503079.0
1575575572529,3532340.0
1575575572587,3552014.0
1575575572626,3535662.0
1575575572683,3501511.0
1575575572726,3494849.0
1575575572779,3558188.0
1575575572827,3587809.0
1575575572875,3596056.0
1575575572928,3584570.0
1575575572969,3571325.0
1575575573024,3577860.0
1575575573070,3585066.0
1575575573117,3591476.0
1575575573172,3588010.0
1575575573218,3575543.0
1575575573268,3617649.0
1575575573313,3640192.0
1575575573369,3652280.0
1575575573411,3642339.0
1575575573465,3633647.0
1575575573509,3653345.0
1575575573563,3675131.0
1575575573609,3641272.0
1575575573654,3652658.0
1575575573708,3661458.0
1575575573755,3670718.0
1575575573809,3675198.0
1575575573850,3677826.0
1575575573906,3681214.0
1575575573949,3661884.0
1575575574004,3676139.0
1575575574050,3686515.0
1575575574095,3703218.0
1575575574148,3702590.0
1575575574192,3694671.0
1575575574249,3691046.0
1575575574289,3708688.0
1575575574345,3719235.0
1575575574390,3730131.0
1575575574443,3718487.0
1575575574490,3713050.0
1575575574539,3704645.0
1575575574587,3711288.0
1575575574638,3706221.0
1575575574689,3715173.0
1575575574729,3725157.0
1575575574785,3711422.0
1575575574829,3735742.0
1575575574882,3735686.0
1575575574932,3728428.0
1575575574978,3717438.0
1575575575029,3697548.0
1575575575077,3719452.0
1575575575128,3746801.0
1575575575170,3745601.0
1575575575225,3734855.0
1575575575268,3735056.0
1575575575323,3713202.0
1575575575375,3727681.0
1575575575419,3730852.0
1575575575468,3732766.0
1575575575516,3720878.0
1575575575570,3720659.0
1575575575610,3741850.0
1575575575665,3746204.0
1575575575708,3701810.0
1575575575764,3694486.0
1575575575815,3703052.0
1575575575860,3712020.0
1575575575907,3756271.0
1575575575956,3768250.0
1575575576010,3770987.0
1575575576051,3757397.0
1575575576099,3734536.0
1575575576155,3734887.0
1575575576203,3737799.0
1575575576248,3747992.0
1575575576300,3744711.0
1575575576347,3740206.0
1575575576396,3738042.0
1575575576449,3722825.0
1575575576490,3719117.0
1575575576545,3707304.0
1575575576592,3692950.0
1575575576642,3697505.0
1575575576688,3732203.0
1575575576738,3750794.0
1575575576790,3765030.0
1575575576834,3759553.0
1575575576888,3756684.0
1575575576930,3756322.0
1575575576985,3767035.0
1575575577032,3777840.0
1575575577083,3777497.0
1575575577129,3759585.0
1575575577177,3791599.0
1575575577231,3784996.0
1575575577274,3771255.0
1575575577327,3774175.0
1575575577374,3764947.0
1575575577425,3783519.0
1575575577471,3833266.0
1575575577522,3833526.0
1575575577566,3831070.0
1575575577613,3813493.0
1575575577669,3790953.0
1575575577711,3801967.0
1575575577766,3804978.0
1575575577816,3807353.0
1575575577864,3803268.0
1575575577912,3799661.0
1575575577960,3824156.0
1575575578007,3824526.0
1575575578055,3813453.0
1575575578102,3799996.0
1575575578156,3773049.0
1575575578205,3773403.0
1575575578252,3784074.0
1575575578302,3795037.0
1575575578352,3771129.0
1575575578398,3770231.0
1575575578447,3765853.0
1575575578495,3775650.0
1575575578549,3797187.0
1575575578594,3807630.0
1575575578644,3812622.0
1575575578693,3793696.0
1575575578742,3805214.0
1575575578789,3797136.0
1575575578836,3785927.0
1575575578890,3783923.0
1575575578937,3779685.0
1575575578987,3802069.0
1575575579035,3849937.0
1575575579085,3859886.0
1575575579133,3842612.0
1575575579181,3832738.0
1575575579226,3819392.0
1575575579273,3825156.0
1575575579330,3832730.0
1575575579373,3845323.0
1575575579427,3831649.0
1575575579475,3827067.0
1575575579521,3841706.0
1575575579571,3835188.0
1575575579615,3831003.0
1575575579667,3826381.0
1575575579714,3815499.0
1575575579768,3827689.0
1575575579816,3875514.0
1575575579864,3871790.0
1575575579911,3873393.0
1575575579962,3862637.0
1575575580014,3851497.0
1575575580052,3856052.0
1575575580101,3866506.0
1575575580152,3877016.0
1575575580206,3860817.0
1575575580253,3864986.0
1575575580301,3863125.0
1575575580354,3842789.0
1575575580393,3840877.0
1575575580451,3832445.0
1575575580496,3833502.0
1575575580550,3866798.0
1575575580590,3880809.0
1575575580643,3873576.0
1575575580694,3854685.0
1575575580737,3833360.0
1575575580793,3813721.0
1575575580833,3811707.0
1575575580887,3819619.0
1575575580936,3824132.0
1575575580988,3820582.0
1575575581035,3805190.0
1575575581081,3772966.0
1575575581134,3752086.0
1575575581177,3751866.0
1575575581230,3737732.0
1575575581277,3716750.0
1575575581329,3718042.0
1575575581377,3707379.0
1575575581423,3691373.0
1575575581474,3680979.0
1575575581515,3681231.0
1575575581573,3689016.0
1575575581617,3690802.0
1575575581670,3691767.0
1575575581717,3667019.0
1575575581768,3622424.0
1575575581817,3580428.0
1575575581859,3553767.0
1575575581915,3552298.0
1575575581955,3547089.0
1575575582011,3548086.0
1575575582056,3559119.0
1575575582104,3551821.0
1575575582154,3530871.0
1575575582204,3515511.0
1575575582256,3509388.0
1575575582296,3494907.0
1575575582353,3482030.0
1575575582397,3459791.0
1575575582448,3430840.0
1575575582499,3413861.0
1575575582549,3393214.0
1575575582593,3386361.0
1575575582640,3386989.0
1575575582695,3388029.0
1575575582735,3386302.0
1575575582794,3363626.0
1575575582838,3338124.0
1575575582888,3316723.0
1575575582938,3305849.0
1575575582985,3318375.0
1575575583036,3324080.0
1575575583077,3331421.0
1575575583135,3315683.0
1575575583176,3295993.0
1575575583228,3274256.0
1575575583279,3251606.0
1575575583329,3228956.0
1575575583377,3219720.0
1575575583419,3217505.0
1575575583475,3221481.0
1575575583516,3233879.0
1575575583574,3225902.0
1575575583619,3207237.0
1575575583670,3199041.0
1575575583719,3206808.0
1575575583766,3205105.0
1575575583816,3186287.0
1575575583859,3160273.0
1575575583914,3145835.0
1575575583959,3134561.0
1575575584013,3117019.0
1575575584059,3109083.0
1575575584104,3111976.0
1575575584150,3116558.0
1575575584200,3124242.0
1575575584256,3134226.0
1575575584299,3113429.0
1575575584355,3087825.0
1575575584400,3076540.0
1575575584450,3079862.0
1575575584498,3087104.0
1575575584546,3101423.0
1575575584593,3105852.0
1575575584638,3089410.0
1575575584693,3080291.0
1575575584740,3072079.0
1575575584793,3070065.0
1575575584840,3067255.0
1575575584887,3060358.0
1575575584938,3057716.0
1575575584980,3062834.0
1575575585027,3075366.0
1575575585079,3074401.0
1575575585133,3063228.0
1575575585183,3069318.0
1575575585229,3080382.0
1575575585280,3076918.0
1575575585325,3060148.0
1575575585377,3033640.0
1575575585420,3037565.0
1575575585476,3025694.0
1575575585521,3014310.0
1575575585574,3018892.0
1575575585614,3027206.0
1575575585668,3034201.0
1575575585720,3036667.0
1575575585762,3044303.0
1575575585817,3025208.0
1575575585859,2999092.0
1575575585915,2997491.0
1575575585963,3012331.0
1575575586012,3031466.0
1575575586061,3034764.0
1575575586105,3017667.0
1575575586151,3014680.0
1575575586199,3006894.0
1575575586249,3001224.0
1575575586302,3000645.0
1575575586347,2994135.0
1575575586402,2986877.0
1575575586447,2993170.0
1575575586500,3021064.0
1575575586543,3024637.0
1575575586592,3012642.0
1575575586640,3014219.0
1575575586687,3024109.0
1575575586743,3036072.0
1575575586792,3044713.0
1575575586841,3066272.0
1575575586889,3103294.0
1575575586938,3128872.0
1575575586980,3168705.0
1575575587036,3156112.0
1575575587083,3144224.0
1575575587135,3151313.0
1575575587183,3164192.0
1575575587230,3202824.0
1575575587280,3237085.0
1575575587327,3245919.0
1575575587378,3240045.0
1575575587424,3243922.0
1575575587476,3249903.0
1575575587525,3269668.0
1575575587573,3284291.0
1575575587615,3283837.0
1575575587668,3289398.0
1575575587719,3309391.0
1575575587761,3334070.0
1575575587816,3334676.0
1575575587863,3333333.0
1575575587914,3320901.0
1575575587964,3318954.0
1575575588010,3344540.0
1575575588060,3387552.0
1575575588105,3384657.0
1575575588151,3389003.0
1575575588203,3385388.0
1575575588256,3384541.0
1575575588305,3374951.0
1575575588351,3374340.0
1575575588402,3383643.0
1575575588444,3381453.0
1575575588499,3399078.0
1575575588547,3438793.0
1575575588594,3461762.0
1575575588646,3473609.0
1575575588689,3468826.0
1575575588744,3446972.0
1575575588789,3445857.0
1575575588840,3496955.0
1575575588884,3515704.0
1575575588939,3528230.0
1575575588986,3529378.0
1575575589036,3530051.0
1575575589086,3532986.0
1575575589135,3539646.0
1575575589183,3546022.0
1575575589226,3543539.0
1575575589280,3554017.0
1575575589324,3586694.0
1575575589379,3603581.0
1575575589428,3620183.0
1575575589477,3623580.0
1575575589526,3613706.0
1575575589572,3614537.0
1575575589617,3640031.0
1575575589663,3676448.0
1575575589720,3660501.0
1575575589764,3656072.0
1575575589817,3643613.0
1575575589866,3643219.0
1575575589914,3646937.0
1575575589964,3650291.0
1575575590007,3653538.0
1575575590062,3633202.0
1575575590106,3637414.0
1575575590152,3657203.0
1575575590206,3657187.0
1575575590256,3673984.0
1575575590306,3673571.0
1575575590350,3669587.0
1575575590404,3680778.0
1575575590446,3715031.0
1575575590501,3710945.0
1575575590546,3706473.0
1575575590593,3703143.0
1575575590649,3691550.0
1575575590690,3686515.0
1575575590745,3695038.0
1575575590785,3692422.0
1575575590842,3692137.0
1575575590887,3675938.0
1575575590940,3688001.0
1575575590988,3720937.0
1575575591036,3742362.0
1575575591088,3755759.0
1575575591133,3755786.0
1575575591184,3747957.0
1575575591225,3757521.0
1575575591275,3797831.0
1575575591327,3770851.0
1575575591377,3758445.0
1575575591431,3773990.0
1575575591469,3784594.0
1575575591526,3790289.0
1575575591569,3797093.0
1575575591618,3787329.0
1575575591670,3782605.0
1575575591721,3777462.0
1575575591771,3791455.0
1575575591812,3807337.0
1575575591867,3830038.0
1575575591909,3834711.0
1575575591964,3843518.0
1575575592009,3842553.0
1575575592062,3848897.0
1575575592108,3835054.0
1575575592153,3817646.0
1575575592211,3826941.0
1575575592254,3828628.0
1575575592306,3841186.0
1575575592348,3838494.0
1575575592403,3861422.0
1575575592450,3848007.0
1575575592500,3834140.0
1575575592551,3850162.0
1575575592593,3859047.0
1575575592649,3882410.0
1575575592689,3904314.0
1575575592746,3897579.0
1575575592790,3883024.0
1575575592843,3867377.0
1575575592891,3921513.0
1575575592938,3887678.0
1575575592988,3899877.0
1575575593032,3897646.0
1575575593080,3899373.0
1575575593132,3901773.0
1575575593184,3903199.0
1575575593230,3895354.0
1575575593284,3866865.0
1575575593329,3886782.0
1575575593378,3894089.0
1575575593431,3913626.0
1575575593470,3930774.0
1575575593527,3929667.0
1575575593566,3926253.0
1575575593618,3940715.0
1575575593674,3961303.0
1575575593721,3915304.0
1575575593767,3933911.0
1575575593816,3931001.0
1575575593865,3935305.0
1575575593910,3940766.0
1575575593966,3944970.0
1575575594009,3945589.0
1575575594063,3925658.0
1575575594109,3928425.0
1575575594153,3937881.0
1575575594207,3942158.0
1575575594256,3923878.0
1575575594309,3904893.0
1575575594348,3892890.0
1575575594405,3901236.0
1575575594452,3920430.0
1575575594502,3946471.0
1575575594547,3934726.0
1575575594594,3929465.0
1575575594650,3918886.0
1575575594691,3919315.0
1575575594747,3920111.0
1575575594788,3913912.0
1575575594844,3914449.0
1575575594895,3898735.0
1575575594941,3892729.0
1575575594987,3894231.0
1575575595037,3876597.0
1575575595089,3868771.0
1575575595133,3847755.0
1575575595186,3827856.0
1575575595234,3873678.0
1575575595283,3857302.0
1575575595330,3844642.0
1575575595381,3831515.0
1575575595427,3836808.0
1575575595476,3844392.0
1575575595529,3843208.0
1575575595569,3836060.0
1575575595625,3809978.0
1575575595675,3815080.0
1575575595716,3820775.0
1575575595773,3828796.0
1575575595818,3836279.0
1575575595867,3829802.0
1575575595913,3816045.0
1575575595968,3819552.0
1575575596011,3854819.0
1575575596065,3877906.0
1575575596110,3860943.0
1575575596156,3832429.0
1575575596211,3814426.0
1575575596258,3813571.0
1575575596307,3815298.0
1575575596355,3805391.0
1575575596409,3798570.0
1575575596450,3807437.0
1575575596506,3803225.0
1575575596554,3813603.0
1575575596597,3804761.0
1575575596651,3786372.0
1575575596693,3765333.0
1575575596747,3759234.0
1575575596794,3811372.0
1575575596848,3808570.0
1575575596895,3795961.0
1575575596945,3775676.0
1575575596992,3764803.0
1575575597043,3738788.0
1575575597088,3721490.0
1575575597137,3713042.0
1575575597187,3713672.0
1575575597234,3710803.0
1575575597287,3712280.0
1575575597336,3723463.0
1575575597385,3715232.0
1575575597433,3703076.0
1575575597482,3676222.0
1575575597529,3635291.0
1575575597577,3622818.0
1575575597630,3642339.0
1575575597677,3642699.0
1575575597727,3634830.0
1575575597773,3627381.0
1575575597823,3631668.0
1575575597870,3640376.0
1575575597919,3643245.0
1575575597966,3663227.0
1575575598014,3671491.0
1575575598068,3692564.0
1575575598112,3715610.0
1575575598158,3696709.0
1575575598212,3662951.0
1575575598264,3641760.0
1575575598310,3627020.0
1575575598356,3630602.0
1575575598406,3633883.0
1575575598455,3595233.0
1575575598508,3565108.0
1575575598555,3552961.0
1575575598598,3560452.0
1575575598653,3564966.0
1575575598696,3584991.0
1575575598747,3609352.0
1575575598796,3598908.0
1575575598850,3612909.0
1575575598895,3607263.0
1575575598946,3580216.0
1575575598993,3551542.0
1575575599043,3521970.0
1575575599092,3535427.0
1575575599133,3616022.0
1575575599187,3623824.0
1575575599237,3622406.0
1575575599288,3607306.0
1575575599336,3605300.0
1575575599385,3602759.0
1575575599436,3599748.0
1575575599476,3597021.0
1575575599533,3590528.0
1575575599573,3598421.0
1575575599630,3616509.0
1575575599675,3640736.0
1575575599719,3645551.0
1575575599767,3642347.0
1575575599815,3637087.0
1575575599867,3628001.0
1575575599913,3662405.0
1575575599971,3672547.0
1575575600015,3663638.0
1575575600069,3653136.0
1575575600110,3646021.0
1575575600159,3654989.0
1575575600214,3658605.0
1575575600255,3660468.0
1575575600313,3651332.0
1575575600354,3619462.0
1575575600408,3604161.0
1575575600456,3573447.0
1575575600508,3537802.0
1575575600556,3542525.0
1575575600599,3529388.0
1575575600654,3526501.0
1575575600694,3556526.0
1575575600752,3565175.0
1575575600798,3523204.0
1575575600850,3476469.0
1575575600897,3464555.0
1575575600943,3463909.0
1575575600995,3469129.0
1575575601035,3466107.0
1575575601092,3438163.0
1575575601137,3433801.0
1575575601186,3402124.0
1575575601238,3375825.0
1575575601289,3348827.0
1575575601336,3329852.0
1575575601384,3319139.0
1575575601435,3312973.0
1575575601475,3338049.0
1575575601532,3324432.0
1575575601577,3289953.0
1575575601628,3295674.0
1575575601677,3298846.0
1575575601727,3272923.0
1575575601776,3256279.0
1575575601815,3272009.0
1575575601867,3276615.0
1575575601916,3260314.0
1575575601969,3223996.0
1575575602019,3212487.0
1575575602068,3216800.0
1575575602111,3214484.0
1575575602160,3188335.0
1575575602215,3162882.0
1575575602256,3148058.0
1575575602306,3118295.0
1575575602359,3120668.0
1575575602410,3136079.0
1575575602460,3157211.0
1575575602506,3161388.0
1575575602556,3182831.0
1575575602599,3200709.0
1575575602654,3179544.0
1575575602698,3177790.0
1575575602752,3155886.0
1575575602800,3139033.0
1575575602851,3128563.0
1575575602897,3125373.0
1575575602945,3121473.0
1575575602995,3155734.0
1575575603038,3158353.0
1575575603091,3101927.0
1575575603141,3094326.0
1575575603188,3102648.0
1575575603241,3127572.0
1575575603290,3140114.0
1575575603337,3162487.0
1575575603383,3186196.0
1575575603437,3197437.0
1575575603477,3211824.0
1575575603534,3187421.0
1575575603579,3181665.0
1575575603632,3157983.0
1575575603680,3154980.0
1575575603727,3161750.0
1575575603777,3154468.0
1575575603819,3137915.0
1575575603869,3128823.0
1575575603918,3143436.0
1575575603974,3151591.0
1575575604022,3137379.0
1575575604068,3130357.0
1575575604113,3145851.0
1575575604163,3161020.0
1575575604218,3164997.0
1575575604258,3145760.0
1575575604315,3141046.0
1575575604360,3144551.0
1575575604413,3147715.0
1575575604462,3142363.0
1575575604508,3153412.0
1575575604559,3168956.0
1575575604602,3146122.0
1575575604657,3147136.0
1575575604698,3150524.0
1575575604754,3165466.0
1575575604803,3185147.0
1575575604852,3198561.0
1575575604900,3209057.0
1575575604948,3222320.0
1575575604998,3230699.0
1575575605039,3245305.0
1575575605094,3236286.0
1575575605143,3238914.0
1575575605194,3240683.0
1575575605243,3239098.0
1575575605292,3275255.0
1575575605339,3242193.0
1575575605386,3231548.0
1575575605440,3213309.0
1575575605480,3208612.0
1575575605537,3222881.0
1575575605583,3225935.0
1575575605634,3240726.0
1575575605682,3259499.0
1575575605733,3261051.0
1575575605780,3270800.0
1575575605824,3258150.0
1575575605870,3249710.0
1575575605921,3231455.0
1575575605977,3212084.0
1575575606022,3223677.0
1575575606074,3262126.0
1575575606116,3281521.0
1575575606165,3272695.0
1575575606220,3280481.0
1575575606266,3292663.0
1575575606317,3298828.0
1575575606362,3300221.0
1575575606415,3303509.0
1575575606466,3312796.0
1575575606511,3308409.0
1575575606562,3303257.0
1575575606605,3293039.0
1575575606659,3294323.0
1575575606701,3287998.0
1575575606757,3286363.0
1575575606804,3325834.0
1575575606854,3325448.0
1575575606904,3311605.0
1575575606950,3314978.0
1575575607000,3319868.0
1575575607044,3322595.0
1575575607094,3331748.0
1575575607146,3337124.0
1575575607195,3355513.0
1575575607246,3351178.0
1575575607294,3370841.0
1575575607343,3362704.0
1575575607388,3343878.0
1575575607432,3330673.0
1575575607482,3331915.0
1575575607538,3340765.0
1575575607585,3415990.0
1575575607635,3423433.0
1575575607684,3418945.0
1575575607734,3410220.0
1575575607782,3405212.0
1575575607823,3409708.0
1575575607875,3412744.0
1575575607923,3421444.0
1575575607978,3425497.0
1575575608024,3414834.0
1575575608074,3429465.0
1575575608118,3419690.0
1575575608167,3409708.0
1575575608222,3400137.0
1575575608264,3388684.0
1575575608319,3395941.0
1575575608364,3432996.0
1575575608417,3446544.0
1575575608467,3432728.0
1575575608513,3436913.0
1575575608563,3446192.0
1575575608607,3456377.0
1575575608660,3455445.0
1575575608705,3448112.0
1575575608759,3426964.0
1575575608806,3423811.0
1575575608856,3412073.0
1575575608906,3394054.0
1575575608948,3390908.0
1575575609003,3393625.0
1575575609045,3398836.0
1575575609094,3443423.0
1575575609146,3468491.0
1575575609197,3453356.0
1575575609248,3423164.0
1575575609294,3417317.0
1575575609345,3412435.0
1575575609385,3427015.0
1575575609444,3437409.0
1575575609486,3466737.0
1575575609540,3450689.0
1575575609586,3456871.0
1575575609637,3440077.0
1575575609687,3422309.0
1575575609735,3402585.0
1575575609784,3384994.0
1575575609826,3384549.0
1575575609878,3461997.0
1575575609925,3472995.0
1575575609979,3441259.0
1575575610029,3445814.0
1575575610074,3448450.0
1575575610124,3440849.0
1575575610167,3431176.0
1575575610223,3435018.0
1575575610270,3453565.0
1575575610319,3431570.0
1575575610371,3447375.0
1575575610416,3425036.0
1575575610469,3434682.0
1575575610508,3429825.0
1575575610565,3427980.0
1575575610609,3456737.0
1575575610663,3508045.0
1575575610710,3507651.0
1575575610760,3515008.0
1575575610807,3503028.0
1575575610852,3494404.0
1575575610907,3499741.0
1575575610948,3505125.0
1575575611004,3519169.0
1575575611051,3512382.0
1575575611096,3490494.0
1575575611151,3494891.0
1575575611197,3491779.0
1575575611247,3484773.0
1575575611291,3484606.0
1575575611347,3479631.0
1575575611388,3504924.0
1575575611446,3564840.0
1575575611488,3557264.0
1575575611540,3554194.0
1575575611592,3545813.0
1575575611639,3534396.0
1575575611689,3543665.0
1575575611737,3547274.0
1575575611785,3542844.0
1575575611829,3548606.0
1575575611884,3565133.0
1575575611931,3588045.0
1575575611978,3603094.0
1575575612028,3595410.0
1575575612075,3584621.0
1575575612128,3573087.0
1575575612169,3598941.0
1575575612224,3653455.0
1575575612266,3663244.0
1575575612322,3657348.0
1575575612371,3641299.0
1575575612420,3635996.0
1575575612466,3633438.0
1575575612515,3634009.0
1575575612567,3626835.0
1575575612609,3626526.0
1575575612665,3623647.0
1575575612707,3642246.0
1575575612761,3651600.0
1575575612809,3665745.0
1575575612857,3664629.0
1575575612910,3660241.0
1575575612954,3668530.0
1575575613006,3745643.0
1575575613048,3722498.0
1575575613097,3716221.0
1575575613150,3718243.0
1575575613201,3702028.0
1575575613247,3701280.0
1575575613295,3709696.0
1575575613349,3708680.0
1575575613390,3677992.0
1575575613449,3692791.0
1575575613491,3709956.0
1575575613543,3718454.0
1575575613591,3744150.0
1575575613639,3755424.0
1575575613687,3750617.0
1575575613736,3749418.0
1575575613787,3769207.0
1575575613828,3807453.0
1575575613884,3760920.0
1575575613935,3767539.0
1575575613981,3760290.0
1575575614027,3776642.0
1575575614076,3770650.0
1575575614128,3768001.0
1575575614169,3769880.0
1575575614227,3769427.0
1575575614274,3758344.0
1575575614323,3785827.0
1575575614370,3797447.0
1575575614420,3804501.0
1575575614467,3797504.0
1575575614515,3785307.0
1575575614568,3803377.0
1575575614610,3847580.0
1575575614664,3815767.0
1575575614714,3815708.0
1575575614763,3804015.0
1575575614809,3812713.0
1575575614859,3808335.0
1575575614906,3797957.0
1575575614955,3800230.0
1575575615007,3798294.0
1575575615055,3789401.0
1575575615097,3815625.0
1575575615153,3823737.0
1575575615201,3825156.0
1575575615247,3823402.0
1575575615296,3813955.0
1575575615350,3819266.0
1575575615395,3851656.0
1575575615448,3831808.0
1575575615496,3840583.0
1575575615543,3844224.0
1575575615591,3854583.0
1575575615637,3860146.0
1575575615686,3859669.0
1575575615731,3857444.0
1575575615788,3837076.0
1575575615834,3842143.0
1575575615885,3851422.0
1575575615931,3857109.0
1575575615982,3876715.0
1575575616028,3881957.0
1575575616077,3889475.0
1575575616130,3918752.0
1575575616173,3942485.0
1575575616226,3930522.0
1575575616275,3920640.0
1575575616323,3928610.0
1575575616370,3930967.0
1575575616420,3928988.0
1575575616467,3923317.0
1575575616511,3910087.0
1575575616568,3900523.0
1575575616611,3901336.0
1575575616665,3911228.0
1575575616711,3919642.0
1575575616763,3944667.0
1575575616811,3961547.0
1575575616852,3973022.0
1575575616907,3962636.0
1575575616957,3993768.0
1575575617006,3958861.0
1575575617055,3952627.0
1575575617097,3966973.0
1575575617154,3977687.0
1575575617198,3975228.0
1575575617246,3968266.0
1575575617295,3962855.0
1575575617350,3954525.0
1575575617394,3946404.0
1575575617445,3969993.0
1575575617495,3976773.0
1575575617540,4006972.0
1575575617589,4024070.0
1575575617632,4023056.0
1575575617689,4011495.0
1575575617732,3984138.0
1575575617788,3977545.0
1575575617836,3998677.0
1575575617885,4010144.0
1575575617933,4025270.0
1575575617979,4029490.0
1575575618028,4018600.0
1575575618073,4003315.0
1575575618130,4001026.0
1575575618174,4001999.0
1575575618225,4003004.0
1575575618274,4007645.0
1575575618319,4025571.0
1575575618373,4043164.0
1575575618413,4039188.0
1575575618468,4039237.0
1575575618515,4059607.0
1575575618561,4052920.0
1575575618610,4029901.0
1575575618663,4022442.0
1575575618714,4025077.0
1575575618756,4027367.0
1575575618812,4022895.0
1575575618855,4007795.0
1575575618906,3988282.0
1575575618957,3985253.0
1575575619006,4006377.0
1575575619056,4011133.0
1575575619098,4022040.0
1575575619154,4037156.0
1575575619194,4029515.0
1575575619249,4028584.0
1575575619297,4043776.0
1575575619350,4022804.0
1575575619396,4008482.0
1575575619440,4020538.0
1575575619495,4012216.0
1575575619535,4010563.0
1575575619586,4017300.0
1575575619636,4013072.0
1575575619688,4009246.0
1575575619736,4004868.0
1575575619788,4033332.0
1575575619836,4048272.0
1575575619884,4050923.0
1575575619934,4051076.0
1575575619975,4042140.0
1575575620033,4048424.0
1575575620077,4081956.0
1575575620130,4036654.0
1575575620177,4036762.0
1575575620228,4035982.0
1575575620275,4042040.0
1575575620317,4046778.0
1575575620373,4042569.0
1575575620415,4045253.0
1575575620472,4063674.0
1575575620518,4108365.0
1575575620568,4092769.0
1575575620611,4098490.0
1575575620665,4080101.0
1575575620716,4066988.0
1575575620756,4064422.0
1575575620814,4084874.0
1575575620857,4125561.0
1575575620911,4097769.0
1575575620959,4095863.0
1575575621010,4092676.0
1575575621057,4100260.0
1575575621100,4086485.0
1575575621155,4087710.0
1575575621196,4080755.0
1575575621254,4068382.0
1575575621296,4081040.0
1575575621350,4084069.0
1575575621398,4104094.0
1575575621446,4100209.0
1575575621497,4080361.0
1575575621536,4061385.0
1575575621592,4074581.0
1575575621639,4076763.0
1575575621692,4061679.0
1575575621739,4059816.0
1575575621789,4055714.0
1575575621837,4059958.0
1575575621886,4059036.0
1575575621935,4049883.0
1575575621976,4037837.0
1575575622034,4022099.0
1575575622080,4016184.0
1575575622128,4033105.0
1575575622179,4035228.0
1575575622226,4031571.0
1575575622276,4018214.0
1575575622317,4027761.0
1575575622374,4051352.0
1575575622419,4048751.0
1575575622472,4030010.0
1575575622520,4024858.0
1575575622568,4019683.0
1575575622611,4018659.0
1575575622661,4020597.0
1575575622716,4019758.0
1575575622757,4016050.0
1575575622807,3954121.0
1575575622860,3947973.0
1575575622912,3919717.0
1575575622960,3902293.0
1575575623009,3885045.0
1575575623057,3877579.0
1575575623101,3904676.0
1575575623156,3955825.0
1575575623201,3929088.0
1575575623254,3893786.0
1575575623301,3848728.0
1575575623348,3803578.0
1575575623399,3801372.0
1575575623443,3804954.0
1575575623497,3806539.0
1575575623539,3811330.0
1575575623591,3777017.0
1575575623642,3762001.0
1575575623693,3718530.0
1575575623740,3690652.0
1575575623787,3641886.0
1575575623838,3632540.0
1575575623888,3669520.0
1575575623937,3693797.0
1575575623981,3667364.0
1575575624034,3647674.0
1575575624083,3638422.0
1575575624133,3606643.0
1575575624175,3577701.0
1575575624227,3562752.0
1575575624277,3573859.0
1575575624319,3566366.0
1575575624375,3565913.0
1575575624421,3539027.0
1575575624470,3518506.0
1575575624522,3501326.0
1575575624568,3460286.0
1575575624612,3440554.0
1575575624661,3470244.0
1575575624717,3502441.0
1575575624763,3474740.0
1575575624815,3467383.0
1575575624863,3475051.0
1575575624910,3477676.0
1575575624961,3488339.0
1575575625008,3477400.0
1575575625059,3475890.0
1575575625101,3442232.0
1575575625149,3450563.0
1575575625201,3441149.0
1575575625247,3431428.0
1575575625296,3417862.0
1575575625345,3408684.0
1575575625393,3447165.0
1575575625445,3504849.0
1575575625490,3495310.0
1575575625542,3483650.0
1575575625588,3469590.0
1575575625637,3457828.0
1575575625687,3463356.0
1575575625735,3470319.0
1575575625785,3476754.0
1575575625832,3481083.0
1575575625884,3491368.0
1575575625930,3495840.0
1575575625983,3472627.0
1575575626028,3448962.0
1575575626077,3422661.0
1575575626127,3404598.0
1575575626176,3443852.0
1575575626225,3477684.0
1575575626272,3486644.0
1575575626320,3452635.0
1575575626370,3418861.0
1575575626423,3391059.0
1575575626468,3396142.0
1575575626517,3401805.0
1575575626567,3433323.0
1575575626615,3445873.0
1575575626666,3459094.0
1575575626712,3492148.0
1575575626763,3486526.0
1575575626810,3463541.0
1575575626859,3421738.0
1575575626908,3413408.0
1575575626956,3453978.0
1575575627006,3486167.0
1575575627054,3492232.0
1575575627105,3476528.0
1575575627158,3465193.0
1575575627204,3469748.0
1575575627254,3461989.0
1575575627307,3450965.0
1575575627353,3472073.0
1575575627402,3461847.0
1575575627445,3476226.0
1575575627502,3497274.0
1575575627545,3511661.0
1575575627592,3512307.0
1575575627648,3506232.0
1575575627695,3512122.0
1575575627746,3525016.0
1575575627792,3549915.0
1575575627843,3552408.0
1575575627883,3555226.0
1575575627940,3540670.0
1575575627986,3540612.0
1575575628038,3545856.0
1575575628087,3545955.0
1575575628135,3555309.0
1575575628177,3571382.0
1575575628225,3598128.0
1575575628283,3620293.0
1575575628325,3657675.0
1575575628379,3662976.0
1575575628426,3652406.0
1575575628470,3642372.0
1575575628527,3686030.0
1575575628568,3655543.0
1575575628617,3664922.0
1575575628665,3667254.0
1575575628721,3659176.0
1575575628766,3653605.0
1575575628819,3657892.0
1575575628866,3660661.0
1575575628914,3663908.0
1575575628965,3670796.0
1575575629006,3696666.0
1575575629063,3714822.0
1575575629105,3740676.0
1575575629160,3740040.0
1575575629210,3735474.0
1575575629252,3741330.0
1575575629308,3751732.0
1575575629348,3731458.0
1575575629405,3729887.0
1575575629448,3747815.0
1575575629503,3737321.0
1575575629549,3734493.0
1575575629594,3728881.0
1575575629646,3730090.0
1575575629695,3715844.0
1575575629748,3726919.0
1575575629789,3730358.0
1575575629844,3752196.0
1575575629888,3757011.0
1575575629943,3754636.0
1575575629990,3742220.0
1575575630037,3747657.0
1575575630088,3746809.0
1575575630128,3719669.0
1575575630178,3738453.0
1575575630228,3738999.0
1575575630284,3747581.0
1575575630327,3753335.0
1575575630381,3748035.0
1575575630430,3758000.0
1575575630472,3746523.0
1575575630529,3734334.0
1575575630570,3750710.0
1575575630619,3768084.0
1575575630668,3805659.0
1575575630723,3810919.0
1575575630770,3799895.0
1575575630819,3787932.0
1575575630867,3800273.0
1575575630914,3757732.0
1575575630968,3766280.0
1575575631008,3774955.0
1575575631065,3783310.0
1575575631106,3786674.0
1575575631160,3781020.0
1575575631210,3768076.0
1575575631257,3743705.0
1575575631306,3753797.0
1575575631355,3769199.0
1575575631407,3796699.0
1575575631447,3837001.0
1575575631503,3842722.0
1575575631550,3835365.0
1575575631595,3833025.0
1575575631647,3864618.0
1575575631696,3842352.0
1575575631748,3813418.0
1575575631788,3805608.0
1575575631845,3798863.0
1575575631892,3797042.0
1575575631941,3802077.0
1575575631988,3803788.0
1575575632037,3785106.0
1575575632087,3800498.0
1575575632134,3830290.0
1575575632187,3850741.0
1575575632229,3867806.0
1575575632284,3863318.0
1575575632333,3854114.0
1575575632381,3856589.0
1575575632426,3870273.0
1575575632474,3849130.0
1575575632529,3843854.0
1575575632571,3834097.0
1575575632618,3832210.0
1575575632674,3831086.0
1575575632723,3832789.0
1575575632771,3830381.0
1575575632818,3823662.0
1575575632867,3887922.0
1575575632911,3902620.0
1575575632967,3879391.0
1575575633008,3892419.0
1575575633064,3874718.0
1575575633107,3851934.0
1575575633162,3842234.0
1575575633206,3876723.0
1575575633256,3884222.0
1575575633309,3866546.0
1575575633352,3853645.0
1575575633407,3849945.0
1575575633455,3848033.0
1575575633503,3849256.0
1575575633551,3841682.0
1575575633594,3821799.0
1575575633646,3834451.0
1575575633694,3844098.0
1575575633747,3859575.0
1575575633795,3889609.0
1575575633844,3886437.0
1575575633891,3880214.0
1575575633942,3872050.0
1575575633987,3917502.0
1575575634036,3897612.0
1575575634089,3891590.0
1575575634129,3870474.0
1575575634186,3846540.0
1575575634233,3830909.0
1575575634283,3805096.0
1575575634331,3781757.0
1575575634379,3774561.0
1575575634426,3786388.0
1575575634471,3799828.0
1575575634528,3811388.0
1575575634573,3827646.0
1575575634619,3850197.0
1575575634671,3837513.0
1575575634722,3812270.0
1575575634767,3840977.0
1575575634816,3800541.0
1575575634870,3806356.0
1575575634914,3818729.0
1575575634966,3828075.0
1575575635014,3828947.0
1575575635063,3824182.0
1575575635106,3808016.0
1575575635158,3788948.0
1575575635206,3780349.0
1575575635250,3766456.0
1575575635307,3769921.0
1575575635354,3788478.0
1575575635404,3799283.0
1575575635453,3807085.0
1575575635500,3815440.0
1575575635551,3833770.0
1575575635593,3846849.0
1575575635646,3828083.0
1575575635698,3837403.0
1575575635747,3837143.0
1575575635796,3828469.0
1575575635843,3825030.0
1575575635892,3823804.0
1575575635939,3806423.0
1575575635987,3808713.0
1575575636034,3826178.0
1575575636089,3829853.0
1575575636135,3841204.0
1575575636179,3860490.0
1575575636234,3870138.0
1575575636276,3870976.0
1575575636332,3879442.0
1575575636372,3902896.0
1575575636426,3862152.0
1575575636476,3876077.0
1575575636528,3883284.0
1575575636576,3887678.0
1575575636617,3894257.0
1575575636666,3892721.0
1575575636714,3879123.0
1575575636762,3869425.0
1575575636811,3872294.0
1575575636860,3886043.0
1575575636913,3906068.0
1575575636965,3917277.0
1575575637015,3910406.0
1575575637059,3893794.0
1575575637107,3906387.0
1575575637155,3953812.0
1575575637204,3956965.0
1575575637253,3923500.0
1575575637301,3896580.0
1575575637349,3857251.0
1575575637398,3852042.0
1575575637447,3849181.0
1575575637496,3848720.0
1575575637545,3839945.0
1575575637594,3844349.0
1575575637644,3845717.0
1575575637690,3867680.0
1575575637740,3879450.0
1575575637788,3882756.0
1575575637837,3909416.0
1575575637886,3900322.0
1575575637937,3899349.0
1575575637984,3910749.0
1575575638035,3880490.0
1575575638081,3896445.0
1575575638129,3852109.0
1575575638178,3817622.0
1575575638227,3803428.0
1575575638277,3800852.0
1575575638325,3798570.0
1575575638376,3782832.0
1575575638423,3772288.0
1575575638470,3799820.0
1575575638520,3809115.0
1575575638568,3792152.0
1575575638616,3763998.0
1575575638667,3750089.0
1575575638714,3785098.0
1575575638764,3804643.0
1575575638811,3796699.0
1575575638862,3788393.0
1575575638909,3769090.0
1575575638958,3757220.0
1575575639008,3715911.0
1575575639057,3686649.0
1575575639106,3675938.0
1575575639158,3695837.0
1575575639206,3711205.0
1575575639258,3735812.0
1575575639305,3718696.0
1575575639355,3706918.0
1575575639396,3688856.0
1575575639453,3657943.0
1575575639497,3666844.0
1575575639548,3666986.0
1575575639592,3661064.0
1575575639648,3659117.0
1575575639697,3647465.0
1575575639739,3637347.0
1575575639795,3635301.0
1575575639835,3615410.0
1575575639891,3613019.0
1575575639938,3612984.0
1575575639988,3625435.0
1575575640032,3644554.0
1575575640079,3631786.0
1575575640129,3613807.0
1575575640178,3579495.0
1575575640232,3585468.0
1575575640280,3562223.0
1575575640329,3530008.0
1575575640379,3510007.0
1575575640430,3463265.0
1575575640480,3450329.0
1575575640520,3446804.0
1575575640575,3450118.0
1575575640616,3448758.0
1575575640673,3454364.0
1575575640720,3409952.0
1575575640769,3393399.0
1575575640818,3363366.0
1575575640861,3330086.0
1575575640915,3324265.0
1575575640956,3313836.0
1575575641013,3336681.0
1575575641059,3363063.0
1575575641104,3357586.0
1575575641158,3329987.0
1575575641208,3278937.0
1575575641256,3263301.0
1575575641297,3266966.0
1575575641355,3277655.0
1575575641400,3289725.0
1575575641453,3304683.0
1575575641501,3335279.0
1575575641547,3360144.0
1575575641594,3381461.0
1575575641638,3374163.0
1575575641686,3364725.0
1575575641738,3362066.0
1575575641784,3387544.0
1575575641833,3437149.0
1575575641882,3396512.0
1575575641930,3413987.0
1575575641980,3409212.0
1575575642027,3399885.0
1575575642080,3390715.0
1575575642129,3387426.0
1575575642181,3381353.0
1575575642232,3395019.0
1575575642280,3416478.0
1575575642326,3433801.0
1575575642377,3458391.0
1575575642419,3463968.0
1575575642478,3443072.0
1575575642521,3429977.0
1575575642573,3468357.0
1575575642614,3497055.0
1575575642667,3487307.0
1575575642718,3478097.0
1575575642761,3470982.0
1575575642817,3462064.0
1575575642859,3458718.0
1575575642917,3457225.0
1575575642962,3444742.0
1575575643012,3456654.0
1575575643059,3464573.0
1575575643105,3478625.0
1575575643158,3506476.0
1575575643205,3519648.0
1575575643256,3510133.0
1575575643302,3493004.0
1575575643354,3494060.0
1575575643403,3516568.0
1575575643451,3512819.0
1575575643500,3509707.0
1575575643540,3519882.0
1575575643594,3509144.0
1575575643641,3496594.0
1575575643695,3506795.0
1575575643742,3492601.0
1575575643794,3495328.0
1575575643843,3503481.0
1575575643892,3509447.0
1575575643939,3516962.0
1575575643981,3528029.0
1575575644036,3521107.0
1575575644083,3515578.0
1575575644134,3534236.0
1575575644184,3571055.0
1575575644231,3540603.0
1575575644282,3525965.0
1575575644321,3496301.0
1575575644378,3482626.0
1575575644421,3487634.0
1575575644475,3487349.0
1575575644526,3479732.0
1575575644571,3487433.0
1575575644616,3507130.0
1575575644669,3523447.0
1575575644719,3540880.0
1575575644761,3510629.0
1575575644816,3480017.0
1575575644864,3469421.0
1575575644913,3474842.0
1575575644963,3528222.0
1575575645010,3524648.0
1575575645051,3476998.0
1575575645104,3419489.0
1575575645157,3392048.0
1575575645208,3389372.0
1575575645254,3390606.0
1575575645305,3389708.0
1575575645352,3401864.0
1575575645401,3421066.0
1575575645442,3445723.0
1575575645500,3438264.0
1575575645543,3392652.0
1575575645591,3361570.0
1575575645646,3328148.0
1575575645693,3365731.0
1575575645743,3406033.0
1575575645784,3400850.0
1575575645840,3369959.0
1575575645886,3349331.0
1575575645937,3303450.0
1575575645986,3285095.0
1575575646033,3295691.0
1575575646085,3303082.0
1575575646133,3332620.0
1575575646183,3341076.0
1575575646224,3361956.0
1575575646279,3391075.0
1575575646325,3421352.0
1575575646375,3439723.0
1575575646426,3443701.0
1575575646471,3459330.0
1575575646523,3435688.0
1575575646565,3447592.0
1575575646615,3463424.0
1575575646665,3476770.0
1575575646718,3483733.0
1575575646768,3491779.0
1575575646813,3494044.0
1575575646864,3485301.0
1575575646905,3484194.0
1575575646962,3495243.0
1575575647006,3521846.0
1575575647052,3544202.0
1575575647104,3564765.0
1575575647151,3575267.0
1575575647198,3579999.0
1575575647249,3590040.0
1575575647297,3587230.0
1575575647345,3565746.0
1575575647402,3583254.0
1575575647449,3587139.0
1575575647491,3597129.0
1575575647549,3605510.0
1575575647588,3597372.0
1575575647645,3590251.0
1575575647687,3591793.0
1575575647743,3613698.0
1575575647790,3618606.0
1575575647837,3645511.0
1575575647887,3678000.0
1575575647931,3685434.0
1575575647987,3688923.0
1575575648028,3676860.0
1575575648084,3649897.0
1575575648132,3661994.0
1575575648181,3661994.0
1575575648231,3672112.0
1575575648276,3678973.0
1575575648329,3680459.0
1575575648368,3673496.0
1575575648425,3682590.0
1575575648467,3696902.0
1575575648523,3696424.0
1575575648568,3701414.0
1575575648614,3704972.0
1575575648666,3706945.0
1575575648712,3701357.0
1575575648768,3702044.0
1575575648807,3724468.0
1575575648864,3703671.0
1575575648909,3706382.0
1575575648961,3706154.0
1575575649011,3704057.0
1575575649057,3703312.0
1575575649103,3696239.0
1575575649149,3695376.0
1575575649199,3710106.0
1575575649248,3711953.0
1575575649304,3726659.0
1575575649347,3739142.0
1575575649399,3764770.0
1575575649446,3772446.0
1575575649494,3775416.0
1575575649549,3767102.0
1575575649591,3766901.0
1575575649642,3758839.0
1575575649688,3758746.0
1575575649742,3767789.0
1575575649794,3777036.0
1575575649837,3775634.0
1575575649887,3766826.0
1575575649932,3769912.0
1575575649988,3765274.0
1575575650028,3784894.0
1575575650084,3794576.0
1575575650128,3810667.0
1575575650181,3806917.0
1575575650224,3810005.0
1575575650278,3798418.0
1575575650328,3805809.0
1575575650373,3779183.0
1575575650426,3777060.0
1575575650467,3774787.0
1575575650524,3784374.0
1575575650570,3785744.0
1575575650614,3783612.0
1575575650666,3784183.0
1575575650716,3781690.0
1575575650767,3819324.0
1575575650808,3814611.0
1575575650865,3822236.0
1575575650910,3833518.0
1575575650962,3837630.0
1575575651008,3830842.0
1575575651060,3833738.0
1575575651104,3841540.0
1575575651155,3810742.0
1575575651199,3806086.0
1575575651247,3797262.0
1575575651297,3799836.0
1575575651353,3802648.0
1575575651402,3803243.0
1575575651449,3802873.0
1575575651494,3823427.0
1575575651549,3839752.0
1575575651589,3848443.0
1575575651639,3856497.0
1575575651693,3849583.0
1575575651742,3845339.0
1575575651791,3846422.0
1575575651839,3878914.0
1575575651886,3859047.0
1575575651935,3840012.0
1575575651988,3835172.0
1575575652029,3816539.0
1575575652084,3806447.0
1575575652132,3799208.0
1575575652181,3796994.0
1575575652231,3806673.0
1575575652277,3796096.0
1575575652326,3801809.0
1575575652369,3811850.0
1575575652427,3801163.0
1575575652471,3766926.0
1575575652523,3734595.0
1575575652570,3749552.0
1575575652615,3759408.0
1575575652666,3722085.0
1575575652716,3709200.0
1575575652769,3695191.0
1575575652810,3686373.0
1575575652866,3657136.0
1575575652915,3623631.0
1575575652963,3610737.0
1575575653012,3619907.0
1575575653059,3625459.0
1575575653104,3634637.0
1575575653156,3632146.0
1575575653202,3618429.0
1575575653253,3591726.0
1575575653306,3580125.0
1575575653356,3598547.0
1575575653403,3592624.0
1575575653450,3592013.0
1575575653502,3577835.0
1575575653546,3578380.0
1575575653590,3577977.0
1575575653642,3574328.0
1575575653696,3587825.0
1575575653745,3568388.0
1575575653793,3535831.0
1575575653843,3523565.0
1575575653892,3513415.0
1575575653940,3503658.0
1575575653987,3487693.0
1575575654033,3480537.0
1575575654088,3516157.0
1575575654134,3538094.0
1575575654185,3502642.0
1575575654232,3478416.0
1575575654283,3453383.0
1575575654331,3444069.0
1575575654371,3452241.0
1575575654426,3457174.0
1575575654476,3453423.0
1575575654528,3464866.0
1575575654575,3476427.0
1575575654618,3469740.0
1575575654670,3451302.0
1575575654719,3430428.0
1575575654769,3406252.0
1575575654810,3413650.0
1575575654868,3465153.0
1575575654916,3466880.0
1575575654965,3463751.0
1575575655014,3438256.0
1575575655062,3388684.0
1575575655106,3365605.0
1575575655159,3367511.0
1575575655203,3369884.0
1575575655252,3377359.0
1575575655309,3408759.0
1575575655355,3424304.0
1575575655403,3441294.0
1575575655454,3464287.0
1575575655495,3440975.0
1575575655552,3406167.0
1575575655593,3420202.0
1575575655643,3467148.0
1575575655694,3453324.0
1575575655747,3451745.0
1575575655786,3442576.0
1575575655842,3434154.0
1575575655893,3428516.0
1575575655933,3395464.0
1575575655985,3391713.0
1575575656034,3395354.0
1575575656088,3405531.0
1575575656136,3417719.0
1575575656182,3423859.0
1575575656234,3420816.0
1575575656275,3405496.0
1575575656332,3398131.0
1575575656374,3422283.0
1575575656427,3403861.0
1575575656476,3394003.0
1575575656528,3392199.0
1575575656575,3390077.0
1575575656617,3399029.0
1575575656671,3396864.0
1575575656714,3401118.0
1575575656770,3422594.0
1575575656816,3440337.0
1575575656863,3442450.0
1575575656916,3456367.0
1575575656964,3441082.0
1575575657015,3422728.0
1575575657056,3434624.0
1575575657106,3467593.0
1575575657154,3489001.0
1575575657203,3473030.0
1575575657256,3425655.0
1575575657309,3389415.0
1575575657355,3377477.0
1575575657403,3373366.0
1575575657453,3405186.0
1575575657496,3406738.0
1575575657552,3427224.0
1575575657593,3438801.0
1575575657643,3449565.0
1575575657698,3464086.0
1575575657745,3449673.0
1575575657795,3448868.0
1575575657838,3503599.0
1575575657891,3507047.0
1575575657936,3499111.0
1575575657987,3485789.0
1575575658039,3482693.0
1575575658087,3485990.0
1575575658136,3478330.0
1575575658179,3479019.0
1575575658233,3486199.0
1575575658276,3491896.0
1575575658333,3514227.0
1575575658379,3519345.0
1575575658429,3509404.0
1575575658477,3504479.0
1575575658525,3506216.0
1575575658575,3506996.0
1575575658624,3449297.0
1575575658673,3445806.0
1575575658716,3461922.0
1575575658771,3461788.0
1575575658819,3464708.0
1575575658864,3465378.0
1575575658917,3473349.0
1575575658962,3469724.0
1575575659006,3460327.0
1575575659055,3432425.0
1575575659104,3399515.0
1575575659159,3365304.0
1575575659203,3358610.0
1575575659257,3402938.0
1575575659305,3405094.0
1575575659355,3392209.0
1575575659396,3347460.0
1575575659454,3300589.0
1575575659501,3269274.0
1575575659552,3254625.0
1575575659593,3263880.0
1575575659644,3290422.0
1575575659697,3282025.0
1575575659740,3273502.0
1575575659795,3239576.0
1575575659838,3222865.0
1575575659894,3169485.0
1575575659942,3118730.0
1575575659989,3137733.0
1575575660038,3224374.0
1575575660084,3217052.0
1575575660136,3208746.0
1575575660178,3186104.0
1575575660234,3178796.0
1575575660281,3188829.0
1575575660332,3182043.0
1575575660381,3191346.0
1575575660428,3216505.0
1575575660477,3234726.0
1575575660522,3250775.0
1575575660576,3256445.0
1575575660620,3247806.0
1575575660673,3247957.0
1575575660721,3302645.0
1575575660771,3334070.0
1575575660820,3319893.0
1575575660864,3318686.0
1575575660917,3316102.0
1575575660958,3318635.0
1575575661015,3325866.0
1575575661061,3322260.0
1575575661106,3350170.0
1575575661162,3378878.0
1575575661204,3383174.0
1575575661259,3387316.0
1575575661303,3416470.0
1575575661356,3414985.0
1575575661399,3422980.0
1575575661453,3439683.0
1575575661504,3498808.0
1575575661551,3500889.0
1575575661593,3485437.0
1575575661643,3474590.0
1575575661697,3461327.0
1575575661739,3462668.0
1575575661795,3462265.0
1575575661842,3453777.0
1575575661892,3477652.0
1575575661941,3482861.0
1575575661986,3500932.0
1575575662038,3516838.0
1575575662080,3535469.0
1575575662136,3529346.0
1575575662182,3514044.0
1575575662234,3554588.0
1575575662282,3570712.0
1575575662332,3554488.0
1575575662380,3547743.0
1575575662422,3549840.0
1575575662477,3549698.0
1575575662521,3540855.0
1575575662575,3543933.0
1575575662629,3557306.0
1575575662673,3571114.0
1575575662722,3591777.0
1575575662769,3607054.0
1575575662819,3624336.0
1575575662860,3628405.0
1575575662917,3624612.0
1575575662963,3630041.0
1575575663015,3675073.0
1575575663063,3689183.0
1575575663106,3682086.0
1575575663160,3665265.0
1575575663202,3639452.0
1575575663257,3628489.0
1575575663301,3633631.0
1575575663356,3629395.0
1575575663405,3618874.0
1575575663453,3625939.0
1575575663503,3643430.0
1575575663547,3657372.0
1575575663592,3684612.0
1575575663642,3700837.0
1575575663697,3709007.0
1575575663743,3708765.0
1575575663794,3727597.0
1575575663844,3758000.0
1575575663890,3747169.0
1575575663941,3745743.0
1575575663985,3722128.0
1575575664037,3697698.0
1575575664082,3690762.0
1575575664136,3695802.0
1575575664186,3686298.0
1575575664234,3689847.0
1575575664283,3692564.0
1575575664324,3704612.0
1575575664382,3711985.0
1575575664424,3733731.0
1575575664478,3721565.0
1575575664525,3704636.0
1575575664575,3733479.0
1575575664625,3786985.0
1575575664674,3777353.0
1575575664723,3770886.0
1575575664769,3754207.0
1575575664821,3724921.0
1575575664864,3713277.0
1575575664919,3715634.0
1575575664965,3718042.0
1575575665017,3722530.0
1575575665065,3686960.0
1575575665108,3683043.0
1575575665162,3699955.0
1575575665204,3670300.0
1575575665260,3635191.0
1575575665304,3570041.0
1575575665357,3540628.0
1575575665408,3602314.0
1575575665453,3615494.0
1575575665507,3612558.0
1575575665545,3581777.0
1575575665595,3566317.0
1575575665645,3564395.0
1575575665698,3557264.0
1575575665745,3544387.0
1575575665795,3503213.0
1575575665846,3461896.0
1575575665888,3455420.0
1575575665935,3422703.0
1575575665985,3398316.0
1575575666040,3354567.0
1575575666088,3321295.0
1575575666138,3242193.0
1575575666188,3216674.0
1575575666235,3205918.0
1575575666284,3174166.0
1575575666327,3148562.0
1575575666379,3156833.0
1575575666429,3177295.0
1575575666476,3192311.0
1575575666526,3200180.0
1575575666569,3176246.0
1575575666623,3117043.0
1575575666675,3078042.0
1575575666716,3059250.0
1575575666768,3040091.0
1575575666811,3026635.0
1575575666865,3035241.0
1575575666908,3075653.0
1575575666959,3119443.0
1575575667006,3150283.0
1575575667055,3128529.0
1575575667105,3090334.0
1575575667153,3090173.0
1575575667206,3102908.0
1575575667250,3098847.0
1575575667300,3104981.0
1575575667347,3095954.0
1575575667397,3095694.0
1575575667445,3067036.0
1575575667494,3017506.0
1575575667548,2990049.0
1575575667594,2969126.0
1575575667649,2984840.0
1575575667691,3068765.0
1575575667748,3100584.0
1575575667788,3108268.0
1575575667845,3091498.0
1575575667888,3073631.0
1575575667941,3048563.0
1575575667990,3040971.0
1575575668037,3056416.0
1575575668087,3059663.0
1575575668137,3054628.0
1575575668187,3077808.0
1575575668232,3057440.0
1575575668284,3043965.0
1575575668329,3038984.0
1575575668381,2988497.0
1575575668426,2979319.0
1575575668476,2995502.0
1575575668530,3015820.0
1575575668570,3010031.0
1575575668622,2979344.0
1575575668671,2983631.0
1575575668723,2995679.0
1575575668768,2996711.0
1575575668818,2975327.0
1575575668865,2991853.0
1575575668911,3019377.0
1575575668966,3015637.0
1575575669007,3011466.0
1575575669064,2987550.0
1575575669108,2962045.0
1575575669161,2961485.0
1575575669210,3073084.0
1575575669257,3077111.0
1575575669307,3062406.0
1575575669354,3064797.0
1575575669406,3039496.0
1575575669446,3043126.0
1575575669502,3058990.0
1575575669551,3072859.0
1575575669594,3095399.0
1575575669646,3089418.0
1575575669695,3079931.0
1575575669747,3064596.0
1575575669787,3042405.0
1575575669843,3025259.0
1575575669894,3023160.0
1575575669942,3072355.0
1575575669988,3118780.0
1575575670038,3126231.0
1575575670088,3133446.0
1575575670127,3115056.0
1575575670186,3086667.0
1575575670234,3091013.0
1575575670283,3093069.0
1575575670330,3111818.0
1575575670380,3129738.0
1575575670425,3148596.0
1575575670474,3170675.0
1575575670529,3172303.0
1575575670567,3159208.0
1575575670618,3115257.0
1575575670667,3122421.0
1575575670721,3162152.0
1575575670767,3169158.0
1575575670816,3162932.0
1575575670865,3153460.0
1575575670910,3145827.0
1575575670965,3156825.0
1575575671014,3170643.0
1575575671062,3180960.0
1575575671106,3165919.0
1575575671158,3160643.0
1575575671206,3179904.0
1575575671255,3180919.0
1575575671307,3156514.0
1575575671352,3139234.0
1575575671404,3129384.0
1575575671450,3090417.0
1575575671501,3059770.0
1575575671549,3027045.0
1575575671593,2965126.0
1575575671645,2980201.0
1575575671690,3004647.0
1575575671745,3037826.0
1575575671792,3054461.0
1575575671835,3062406.0
1575575671890,3092112.0
1575575671938,3063261.0
1575575671986,3028689.0
1575575672033,3000216.0
1575575672078,2990644.0
1575575672131,2973464.0
1575575672176,2974906.0
1575575672228,3004436.0
1575575672273,3038724.0
1575575672325,3011240.0
1575575672371,2942675.0
1575575672426,2919245.0
1575575672477,2926854.0
1575575672526,2947608.0
1575575672574,2972852.0
1575575672616,2988572.0
1575575672671,3000905.0
1575575672719,3003363.0
1575575672765,2987944.0
1575575672813,2957056.0
1575575672868,2942675.0
1575575672916,2924741.0
1575575672965,2934950.0
1575575673012,2997465.0
1575575673062,3008790.0
1575575673105,3034168.0
1575575673153,3044370.0
1575575673206,3042389.0
1575575673253,3032155.0
1575575673307,3032565.0
1575575673355,3038622.0
1575575673402,3051515.0
1575575673452,3062767.0
1575575673498,3091013.0
1575575673549,3104444.0
1575575673590,3134057.0
1575575673648,3189745.0
1575575673694,3219141.0
1575575673744,3225348.0
1575575673793,3235498.0
1575575673838,3258585.0
1575575673889,3234198.0
1575575673937,3245775.0
1575575673986,3243973.0
1575575674036,3261874.0
1575575674086,3267193.0
1575575674134,3267269.0
1575575674180,3265666.0
1575575674226,3287033.0
1575575674273,3304844.0
1575575674327,3328207.0
1575575674375,3355983.0
1575575674428,3383040.0
1575575674475,3410789.0
1575575674519,3428347.0
1575575674573,3422937.0
1575575674615,3424674.0
1575575674671,3411218.0
1575575674713,3418516.0
1575575674767,3424516.0
1575575674816,3434372.0
1575575674859,3439530.0
1575575674914,3449128.0
1575575674956,3450646.0
1575575675012,3444801.0
1575575675053,3454933.0
1575575675103,3432669.0
1575575675156,3434658.0
1575575675199,3441109.0
1575575675256,3436034.0
1575575675300,3417467.0
1575575675354,3387335.0
1575575675394,3362937.0
1575575675451,3386914.0
1575575675494,3396201.0
1575575675547,3404094.0
1575575675590,3386922.0
1575575675646,3375782.0
1575575675694,3372157.0
1575575675737,3373643.0
1575575675792,3356722.0
1575575675835,3318485.0
1575575675886,3259810.0
1575575675938,3220197.0
1575575675988,3200609.0
1575575676036,3178922.0
1575575676082,3158294.0
1575575676133,3135969.0
1575575676173,3145902.0
1575575676225,3195877.0
1575575676277,3192748.0
1575575676327,3173428.0
1575575676375,3136373.0
1575575676424,3094393.0
1575575676475,3094922.0
1575575676516,3112295.0
1575575676572,3125692.0
1575575676614,3139384.0
1575575676668,3165911.0
1575575676718,3188327.0
1575575676768,3194426.0
1575575676815,3195432.0
1575575676858,3197462.0
1575575676914,3196925.0
1575575676955,3192840.0
1575575677011,3220817.0
1575575677059,3266757.0
1575575677104,3260222.0
1575575677157,3252284.0
1575575677197,3200574.0
1575575677247,3165533.0
1575575677298,3160005.0
1575575677348,3162404.0
1575575677397,3164342.0
1575575677443,3172983.0
1575575677489,3197832.0
1575575677545,3208242.0
1575575677589,3228208.0
1575575677636,3247504.0
1575575677694,3251137.0
1575575677739,3242638.0
1575575677792,3249214.0
1575575677839,3301294.0
1575575677885,3292369.0
1575575677936,3293058.0
1575575677978,3301932.0
1575575678035,3285573.0
1575575678077,3246724.0
1575575678131,3236951.0
1575575678180,3238300.0
1575575678223,3247546.0
1575575678277,3263242.0
1575575678321,3284835.0
1575575678374,3294012.0
1575575678417,3313139.0
1575575678474,3307780.0
1575575678521,3252721.0
1575575678571,3233310.0
1575575678612,3276606.0
1575575678669,3296018.0
1575575678716,3294508.0
1575575678758,3291546.0
1575575678815,3278401.0
1575575678859,3265649.0
1575575678913,3221934.0
1575575678960,3193193.0
1575575679007,3203325.0
1575575679058,3218511.0
1575575679102,3227538.0
1575575679155,3238812.0
1575575679198,3234651.0
1575575679254,3225591.0
1575575679302,3217387.0
1575575679351,3184392.0
1575575679398,3183705.0
1575575679446,3166203.0
1575575679496,3142580.0
1575575679539,3126759.0
1575575679592,3128990.0
1575575679641,3141540.0
1575575679692,3161715.0
1575575679741,3174769.0
1575575679790,3194912.0
1575575679839,3211749.0
1575575679884,3237404.0
1575575679937,3253845.0
1575575679979,3266279.0
1575575680034,3267965.0
1575575680082,3262746.0
1575575680133,3267025.0
1575575680180,3313123.0
1575575680223,3302536.0
1575575680278,3272746.0
1575575680318,3241699.0
1575575680374,3230305.0
1575575680421,3230390.0
1575575680473,3237152.0
1575575680524,3240699.0
1575575680569,3249089.0
1575575680612,3265204.0
1575575680667,3273853.0
1575575680717,3266488.0
1575575680762,3250700.0
1575575680814,3245080.0
1575575680863,3233007.0
1575575680911,3236246.0
1575575680959,3296774.0
1575575681006,3305348.0
1575575681049,3309072.0
1575575681101,3277060.0
1575575681148,3249903.0
1575575681202,3238117.0
1575575681246,3244643.0
1575575681293,3252989.0
1575575681349,3270682.0
1575575681398,3287377.0
1575575681442,3313659.0
1575575681496,3338542.0
1575575681543,3359297.0
1575575681590,3341017.0
1575575681644,3314860.0
1575575681687,3315372.0
1575575681741,3373417.0
1575575681786,3368651.0
1575575681839,3364382.0
1575575681882,3363181.0
1575575681937,3353929.0
1575575681984,3320783.0
1575575682035,3296881.0
1575575682083,3290540.0
1575575682132,3305482.0
1575575682180,3318359.0
1575575682222,3331563.0
1575575682270,3332762.0
1575575682323,3317461.0
1575575682375,3303736.0
1575575682424,3266840.0
1575575682471,3259759.0
1575575682523,3283216.0
1575575682563,3295640.0
1575575682613,3278602.0
1575575682662,3275079.0
1575575682717,3272864.0
1575575682763,3274122.0
1575575682815,3288762.0
1575575682863,3289406.0
1575575682911,3311622.0
1575575682961,3329214.0
1575575683003,3347151.0
1575575683059,3364868.0
1575575683102,3370219.0
1575575683155,3357947.0
1575575683205,3340556.0
1575575683255,3336596.0
1575575683302,3320011.0
1575575683343,3316026.0
1575575683399,3301538.0
1575575683445,3281899.0
1575575683496,3268813.0
1575575683548,3282545.0
1575575683589,3294835.0
1575575683644,3293728.0
1575575683684,3304801.0
1575575683741,3325716.0
1575575683784,3348098.0
1575575683839,3358323.0
1575575683886,3379246.0
1575575683935,3387083.0
1575575683985,3384935.0
1575575684030,3392032.0
1575575684083,3453734.0
1575575684131,3459565.0
1575575684181,3443902.0
1575575684225,3395957.0
1575575684278,3367602.0
1575575684326,3333944.0
1575575684374,3326094.0
1575575684425,3332057.0
1575575684465,3347913.0
1575575684522,3343073.0
1575575684565,3367938.0
1575575684613,3390648.0
1575575684665,3406075.0
1575575684717,3404472.0
1575575684767,3386554.0
1575575684811,3368844.0
1575575684863,3367519.0
1575575684905,3425076.0
1575575684961,3391477.0
1575575685006,3398509.0
1575575685058,3354063.0
1575575685103,3308367.0
1575575685149,3283267.0
1575575685206,3282202.0
1575575685251,3281982.0
1575575685303,3289886.0
1575575685346,3276076.0
1575575685400,3271808.0
1575575685449,3267864.0
1575575685495,3234123.0
1575575685548,3171774.0
1575575685591,3105214.0
1575575685645,3089578.0
1575575685687,3144988.0
1575575685743,3165332.0
1575575685788,3140516.0
1575575685837,3104174.0
1575575685886,3094217.0
1575575685931,3044965.0
1575575685987,3017079.0
1575575686027,3003229.0
1575575686083,3017994.0
1575575686130,3015040.0
1575575686182,2989639.0
1575575686229,2982188.0
1575575686276,2955243.0
1575575686325,2946586.0
1575575686370,2901745.0
1575575686426,2840604.0
1575575686467,2853248.0
1575575686524,2883935.0
1575575686567,2893574.0
1575575686614,2884815.0
1575575686666,2876964.0
1575575686718,2879766.0
1575575686768,2881763.0
1575575686809,2832896.0
1575575686864,2816637.0
1575575686907,2800613.0
1575575686962,2795278.0
1575575687009,2782234.0
1575575687058,2764877.0
1575575687103,2757367.0
1575575687155,2743552.0
1575575687207,2731176.0
1575575687255,2762997.0
1575575687304,2790816.0
1575575687349,2794272.0
1575575687401,2777116.0
1575575687451,2782250.0
1575575687496,2789280.0
1575575687547,2803139.0
1575575687591,2821126.0
1575575687647,2845765.0
1575575687688,2875168.0
1575575687743,2916703.0
1575575687792,2949881.0
1575575687841,2976845.0
1575575687886,3011323.0
1575575687935,3027632.0
1575575687988,3045158.0
1575575688030,3090056.0
1575575688086,3108831.0
1575575688131,3096246.0
1575575688182,3109678.0
1575575688230,3115341.0
1575575688279,3129829.0
1575575688325,3143361.0
1575575688374,3141623.0
1575575688426,3158176.0
1575575688467,3180180.0
1575575688515,3212755.0
1575575688575,3236614.0
1575575688615,3260204.0
1575575688669,3281253.0
1575575688718,3286916.0
1575575688765,3290213.0
1575575688813,3294986.0
1575575688865,3323668.0
1575575688909,3302511.0
1575575688963,3320892.0
1575575689010,3307109.0
1575575689060,3305045.0
1575575689103,3312343.0
1575575689154,3312938.0
1575575689207,3312552.0
1575575689248,3318954.0
1575575689304,3323938.0
1575575689354,3354038.0
1575575689401,3361277.0
1575575689449,3388164.0
1575575689499,3404464.0
1575575689547,3415320.0
1575575689591,3408633.0
1575575689648,3437425.0
1575575689689,3412224.0
1575575689744,3415161.0
1575575689790,3423248.0
1575575689841,3425588.0
1575575689889,3415990.0
1575575689936,3406118.0
1575575689986,3407611.0
1575575690030,3410564.0
1575575690086,3414322.0
1575575690132,3428339.0
1575575690183,3433516.0
1575575690230,3423575.0
1575575690281,3417258.0
1575575690325,3392392.0
1575575690374,3367377.0
1575575690428,3395027.0
1575575690475,3439993.0
1575575690524,3421679.0
1575575690573,3424103.0
1575575690615,3413323.0
1575575690669,3410354.0
1575575690719,3393190.0
1575575690765,3363098.0
1575575690814,3346891.0
1575575690866,3360481.0
1575575690917,3384809.0
1575575690962,3403131.0
1575575691010,3412057.0
1575575691060,3417484.0
1575575691103,3410186.0
1575575691150,3372964.0
1575575691208,3350347.0
1575575691255,3372913.0
1575575691304,3353392.0
1575575691353,3350237.0
1575575691402,3336043.0
1575575691450,3315740.0
1575575691497,3317619.0
1575575691547,3318903.0
1575575691592,3293677.0
1575575691647,3273100.0
1575575691693,3265917.0
1575575691744,3249450.0
1575575691791,3244348.0
1575575691838,3247705.0
1575575691890,3244844.0
1575575691930,3236085.0
1575575691989,3245592.0
1575575692036,3236085.0
1575575692085,3215299.0
1575575692133,3183150.0
1575575692181,3178536.0
1575575692230,3184099.0
1575575692277,3195928.0
1575575692324,3199266.0
1575575692375,3198636.0
1575575692428,3220626.0
1575575692474,3227227.0
1575575692524,3199207.0
1575575692573,3173772.0
1575575692615,3142438.0
1575575692671,3129057.0
1575575692718,3118520.0
1575575692771,3168973.0
1575575692814,3195515.0
1575575692859,3199030.0
1575575692914,3156994.0
1575575692957,3113788.0
1575575693012,3091852.0
1575575693052,3091876.0
1575575693103,3095962.0
1575575693155,3105861.0
1575575693208,3131424.0
1575575693252,3140073.0
1575575693302,3146784.0
1575575693353,3145583.0
1575575693393,3095970.0
1575575693451,3040686.0
1575575693493,3021667.0
1575575693549,3080610.0
1575575693594,3091163.0
1575575693646,3095040.0
1575575693694,3080878.0
1575575693741,3072792.0
1575575693792,3039292.0
1575575693834,3006390.0
1575575693886,2994395.0
1575575693937,3000275.0
1575575693988,3012179.0
1575575694036,3023815.0
1575575694082,3025308.0
1575575694134,3017750.0
1575575694174,3014211.0
1575575694232,2994639.0
1575575694278,2989328.0
1575575694327,3016198.0
1575575694376,3006610.0
1575575694424,3002993.0
1575575694473,2998741.0
1575575694515,2987725.0
1575575694572,2988505.0
1575575694616,2988456.0
1575575694671,2969346.0
1575575694718,2933540.0
1575575694769,2920210.0
1575575694816,2918330.0
1575575694859,2909118.0
1575575694913,2907509.0
1575575694954,2900343.0
1575575695012,2902576.0
1575575695057,2958447.0
1575575695104,2983968.0
1575575695158,2970394.0
1575575695207,2938607.0
1575575695247,2922886.0
1575575695298,2919655.0
1575575695353,2936661.0
1575575695397,2946988.0
1575575695451,2956785.0
1575575695498,2950586.0
1575575695547,2927752.0
1575575695592,2902542.0
1575575695643,2876562.0
1575575695694,2861872.0
1575575695734,2859280.0
1575575695792,2862827.0
1575575695838,2906636.0
1575575695885,2947299.0
1575575695937,2941736.0
1575575695985,2939253.0
1575575696036,2909212.0
1575575696079,2861594.0
1575575696134,2844556.0
1575575696177,2852703.0
1575575696232,2865789.0
1575575696279,2849993.0
1575575696326,2833198.0
1575575696377,2824866.0
1575575696424,2801412.0
1575575696474,2779129.0
1575575696515,2729616.0
1575575696573,2695984.0
1575575696618,2708333.0
1575575696670,2734624.0
1575575696711,2721554.0
1575575696766,2679576.0
1575575696817,2686195.0
1575575696856,2669730.0
1575575696914,2676992.0
1575575696960,2664730.0
1575575697011,2665902.0
1575575697059,2674826.0
1575575697103,2683119.0
1575575697157,2692315.0
1575575697203,2691023.0
1575575697247,2698556.0
1575575697297,2700078.0
1575575697353,2717482.0
1575575697402,2763926.0
1575575697450,2772215.0
1575575697497,2769761.0
1575575697540,2764247.0
1575575697591,2766567.0
1575575697638,2780438.0
1575575697693,2789686.0
1575575697739,2809472.0
1575575697792,2830376.0
1575575697839,2847827.0
1575575697885,2868945.0
1575575697937,2891225.0
1575575697978,2926027.0
1575575698034,2950085.0
1575575698080,2968143.0
1575575698133,2986107.0
1575575698182,3015582.0
1575575698231,2997124.0
1575575698278,3015082.0
1575575698326,3029252.0
1575575698376,3035999.0
1575575698419,3039146.0
1575575698474,3046316.0
1575575698521,3046089.0
1575575698570,3062586.0
1575575698613,3084099.0
1575575698665,3096015.0
1575575698712,3111659.0
1575575698761,3127062.0
1575575698815,3129630.0
1575575698861,3134317.0
1575575698913,3175334.0
1575575698962,3187931.0
1575575699008,3171185.0
1575575699058,3175574.0
1575575699102,3179849.0
1575575699156,3179708.0
1575575699199,3170580.0
1575575699247,3160937.0
1575575699302,3163217.0
1575575699349,3186356.0
1575575699400,3204754.0
1575575699441,3221526.0
1575575699496,3242804.0
1575575699541,3243205.0
1575575699587,3240517.0
1575575699642,3231701.0
1575575699694,3254853.0
1575575699741,3266962.0
1575575699788,3260127.0
1575575699839,3259142.0
1575575699888,3256281.0
1575575699936,3257321.0
1575575699983,3271163.0
1575575700025,3277998.0
1575575700074,3271511.0
1575575700123,3272417.0
1575575700175,3293669.0
1575575700226,3290489.0
1575575700275,3303464.0
1575575700323,3318849.0
1575575700375,3314360.0
1575575700424,3313141.0
1575575700471,3308434.0
1575575700521,3327305.0
1575575700565,3279366.0
1575575700613,3223312.0
1575575700661,3206942.0
1575575700716,3198045.0
1575575700763,3200359.0
1575575700815,3205034.0
1575575700863,3208021.0
1575575700910,3221386.0
1575575700961,3243737.0
1575575701001,3268691.0
1575575701058,3287795.0
1575575701100,3270278.0
1575575701156,3252538.0
1575575701205,3251600.0
1575575701247,3294850.0
1575575701301,3328237.0
1575575701344,3287115.0
1575575701393,3300811.0
1575575701446,3314088.0
1575575701488,3316695.0
1575575701540,3327530.0
1575575701586,3331118.0
1575575701635,3335340.0
1575575701684,3360333.0
1575575701733,3393139.0
1575575701784,3399641.0
1575575701829,3399489.0
1575575701883,3380784.0
1575575701929,3306093.0
1575575701977,3275371.0
1575575702025,3288281.0
1575575702074,3339794.0
1575575702124,3336706.0
1575575702172,3331551.0
1575575702223,3322749.0
1575575702268,3304133.0
1575575702322,3277346.0
1575575702366,3262762.0
1575575702416,3266003.0
1575575702464,3270877.0
1575575702522,3290542.0
1575575702564,3291889.0
1575575702612,3287875.0
1575575702664,3282740.0
1575575702710,3266876.0
1575575702760,3237916.0
1575575702805,3234614.0
1575575702854,3279626.0
1575575702904,3265089.0
1575575702952,3275973.0
1575575703003,3284414.0
1575575703048,3289534.0
1575575703099,3292509.0
1575575703148,3296442.0
1575575703196,3280213.0
1575575703245,3272838.0
1575575703296,3287787.0
1575575703346,3306219.0
1575575703393,3330291.0
1575575703443,3338394.0
1575575703490,3338940.0
1575575703540,3332372.0
1575575703587,3313127.0
1575575703637,3309167.0
1575575703686,3326963.0
1575575703734,3300931.0
1575575703787,3326758.0
1575575703831,3321195.0
1575575703881,3331653.0
1575575703929,3343662.0
1575575703978,3347403.0
1575575704027,3336466.0
1575575704076,3333725.0
1575575704127,3355251.0
1575575704173,3365493.0
1575575704222,3379543.0
1575575704270,3389220.0
1575575704327,3403830.0
1575575704367,3401309.0
1575575704423,3397335.0
1575575704468,3405643.0
1575575704521,3411972.0
1575575704570,3374862.0
1575575704611,3382078.0
1575575704668,3375928.0
1575575704708,3384118.0
1575575704765,3389899.0
1575575704807,3391926.0
1575575704862,3380004.0
1575575704909,3376524.0
1575575704957,3403182.0
1575575705006,3416732.0
1575575705047,3421421.0
1575575705100,3426448.0
1575575705147,3420966.0
1575575705204,3403924.0
1575575705247,3400681.0
1575575705300,3446387.0
1575575705349,3406598.0
1575575705396,3385825.0
1575575705446,3358285.0
1575575705494,3353697.0
1575575705548,3356478.0
1575575705586,3359378.0
1575575705643,3369701.0
1575575705688,3376635.0
1575575705737,3398475.0
1575575705786,3421381.0
1575575705834,3435050.0
1575575705887,3440859.0
1575575705927,3451747.0
1575575705984,3453009.0
1575575706027,3452708.0
1575575706081,3456056.0
1575575706124,3450914.0
1575575706175,3443559.0
1575575706222,3402969.0
1575575706272,3389779.0
1575575706325,3382339.0
1575575706367,3382050.0
1575575706423,3381185.0
1575575706474,3388726.0
1575575706511,3397495.0
1575575706560,3409818.0
1575575706610,3421053.0
1575575706659,3395401.0
1575575706708,3366660.0
1575575706759,3347935.0
1575575706812,3350836.0
1575575706853,3406350.0
1575575706906,3401537.0
1575575706955,3385171.0
1575575707004,3382891.0
1575575707049,3364520.0
1575575707099,3335387.0
1575575707149,3322989.0
1575575707202,3322016.0
1575575707249,3327425.0
1575575707300,3354258.0
1575575707345,3383438.0
1575575707395,3396289.0
1575575707447,3420615.0
1575575707489,3420413.0
1575575707545,3386693.0
1575575707589,3371834.0
1575575707642,3414698.0
1575575707689,3399182.0
1575575707731,3389992.0
1575575707785,3390939.0
1575575707833,3412024.0
1575575707886,3441233.0
1575575707933,3443974.0
1575575707982,3422067.0
1575575708030,3439672.0
1575575708079,3449640.0
1575575708127,3451534.0
1575575708175,3470839.0
1575575708227,3489631.0
1575575708272,3499966.0
1575575708324,3494465.0
1575575708374,3472432.0
1575575708421,3494111.0
1575575708469,3504140.0
1575575708518,3485862.0
1575575708559,3487977.0
1575575708610,3482843.0
1575575708659,3481581.0
1575575708709,3483536.0
1575575708757,3481201.0
1575575708813,3474954.0
1575575708861,3477508.0
1575575708906,3496051.0
1575575708951,3503461.0
1575575709008,3511649.0
1575575709048,3508762.0
1575575709098,3495298.0
1575575709151,3471553.0
1575575709201,3471678.0
1575575709250,3485295.0
1575575709296,3454675.0
1575575709346,3452568.0
1575575709393,3433870.0
1575575709447,3425062.0
1575575709491,3423481.0
1575575709542,3423400.0
1575575709590,3416513.0
1575575709638,3415499.0
1575575709685,3428370.0
1575575709732,3420820.0
1575575709787,3406010.0
1575575709834,3383031.0
1575575709884,3361139.0
1575575709933,3338307.0
1575575709979,3351637.0
1575575710030,3402363.0
