time,value,value2,value3
1577725551578,5691091.0,5969580.0,0.0
1577725551636,5642098.0,5954777.0,0.0
1577725551673,5596739.0,5942867.0,0.0
1577725551727,5667249.0,5939770.0,0.0
1577725551777,5616336.0,5951479.0,0.0
1577725552037,5564452.0,5937958.0,0.0
1577725552038,5488203.0,5929241.0,0.0
1577725552038,5444997.0,5914173.0,0.0
1577725552038,5411210.0,5904434.0,0.0
1577725552038,5376117.0,5900452.0,0.0
1577725552087,5364762.0,5899430.0,0.0
1577725552392,5212160.0,5840397.0,0.0
1577725552392,5194874.0,5797812.0,0.0
1577725552394,5174159.0,5746462.0,0.0
1577725552452,5139907.0,5685387.0,0.0
1577725552477,5046358.0,5657280.0,0.0
1577725552580,4986885.0,5592378.0,0.0
1577725552580,5181092.0,5540655.0,0.0
1577725552614,5196533.0,5605913.0,0.0
1577725552661,5186340.0,5612897.0,0.0
1577725552712,5184916.0,5585472.0,0.0
1577725552756,5174478.0,5580176.0,0.0
1577725552803,5165654.0,5562011.0,0.0
1577725552852,5165641.0,5549328.0,0.0
1577725552907,5129485.0,5516669.0,0.0
1577725552958,5168067.0,5514189.0,0.0
1577725553006,5242485.0,5515506.0,0.0
1577725553051,5432842.0,5501849.0,0.0
1577725553100,5711733.0,5508321.0,0.0
1577725553151,5559525.0,5475675.0,0.0
1577725553198,5471702.0,5440740.0,0.0
1577725553250,5543721.0,5451394.0,0.0
1577725553301,5309069.0,5413331.0,0.0
1577725553351,5191066.0,5420360.0,0.0
1577725553399,5129513.0,5411737.0,0.0
1577725553449,5101630.0,5414043.0,0.0
1577725553494,5060589.0,5407771.0,0.0
1577725553547,5032604.0,5385705.0,0.0
1577725553598,5023490.0,5379603.0,0.0
1577725553642,5015115.0,5368809.0,0.0
1577725553694,4995824.0,5367368.0,0.0
1577725553743,4974991.0,5360448.0,0.0
1577725553794,4964176.0,5357364.0,0.0
1577725553838,4967157.0,5337588.0,0.0
1577725553892,4973902.0,5310411.0,0.0
1577725553936,4930928.0,5302731.0,0.0
1577725553990,4914573.0,5293965.0,0.0
1577725554035,4913948.0,5291706.0,0.0
1577725554088,4924489.0,5293609.0,0.0
1577725554136,4940261.0,5274501.0,0.0
1577725554187,4929329.0,5244023.0,0.0
1577725554233,4923776.0,5241282.0,0.0
1577725554285,4921451.0,5242693.0,0.0
1577725554337,4912815.0,5233741.0,0.0
1577725554379,4910691.0,5229298.0,0.0
1577725554439,4889119.0,5215251.0,0.0
1577725554482,4873519.0,5203019.0,0.0
1577725554532,4865538.0,5194440.0,0.0
1577725554579,4872267.0,5184264.0,0.0
1577725554630,4860246.0,5176381.0,0.0
1577725554672,4858456.0,5164318.0,0.0
1577725554728,4857950.0,5163592.0,0.0
1577725554775,4847728.0,5151635.0,0.0
1577725554827,4843062.0,5141153.0,0.0
1577725554875,4842830.0,5143863.0,0.0
1577725554919,4828598.0,5126363.0,0.0
1577725554976,4824860.0,5122632.0,0.0
1577725555019,4818580.0,5111730.0,0.0
1577725555075,4804827.0,5098334.0,0.0
1577725555118,4812285.0,5094555.0,0.0
1577725555168,4794273.0,5076825.0,0.0
1577725555216,4792442.0,5072659.0,0.0
1577725555264,4792704.0,5073711.0,0.0
1577725555316,4788997.0,5066292.0,0.0
1577725555365,4784606.0,5051258.0,0.0
1577725555415,4773441.0,5049817.0,0.0
1577725555466,4773237.0,5041391.0,0.0
1577725555516,4771973.0,5039688.0,0.0
1577725555560,4762130.0,5028880.0,0.0
1577725555618,4758554.0,5032985.0,0.0
1577725555659,4749787.0,5027951.0,0.0
1577725555711,4742752.0,4759563.0,0.0
1577725555757,4740542.0,4721440.0,0.0
1577725555808,4729291.0,4694625.0,0.0
1577725555856,4712805.0,4673978.0,0.0
1577725555905,4718474.0,4680027.0,0.0
1577725555953,4709707.0,4662664.0,0.0
1577725556007,4706816.0,4661276.0,0.0
1577725556054,4699125.0,4653585.0,0.0
1577725556107,4444411.0,4637769.0,0.0
1577725556155,4320105.0,4620589.0,0.0
1577725556199,4299050.0,4607754.0,0.0
1577725556254,4307777.0,4618114.0,0.0
1577725556301,4294773.0,4605991.0,0.0
1577725556353,4299869.0,4611605.0,0.0
1577725556397,4286086.0,4594774.0,0.0
1577725556451,4287520.0,4599072.0,0.0
1577725556494,4277869.0,4594436.0,0.0
1577725556544,4274555.0,4592299.0,0.0
1577725556595,4264230.0,4589969.0,0.0
1577725556644,4246103.0,4579707.0,0.0
1577725556700,4231732.0,4556307.0,0.0
1577725556745,4224479.0,4552855.0,0.0
1577725556795,4239225.0,4542978.0,0.0
1577725556838,4250447.0,4549812.0,0.0
1577725556891,4235402.0,4539526.0,0.0
1577725556942,4247413.0,4541687.0,0.0
1577725556994,4300745.0,4613308.0,0.0
1577725557036,4269895.0,4595076.0,0.0
1577725557085,4262111.0,4582979.0,0.0
1577725557135,4271416.0,4633652.0,0.0
1577725557187,4260321.0,4671093.0,0.0
1577725557238,4265319.0,4670066.0,0.0
1577725557287,4266166.0,4674740.0,0.0
1577725557338,4272544.0,4699574.0,0.0
1577725557382,4281327.0,4726632.0,0.0
1577725557434,4275490.0,4722382.0,0.0
1577725557482,4257960.0,4681367.0,0.0
1577725557533,4264992.0,4732548.0,0.0
1577725557577,4195334.0,4820456.0,0.0
1577725557628,4051277.0,4690071.0,0.0
1577725557680,3972969.0,4564759.0,0.0
1577725557729,3989816.0,4543945.0,0.0
1577725557774,4066139.0,4649589.0,0.0
1577725557827,4022873.0,4644566.0,0.0
1577725557878,3985838.0,4600680.0,0.0
1577725557923,3992456.0,4601246.0,0.0
1577725557973,4000487.0,4632202.0,0.0
1577725558020,4003118.0,4663256.0,0.0
1577725558069,3995392.0,4651871.0,0.0
1577725558119,3986098.0,4642683.0,0.0
1577725558168,3959966.0,4635029.0,0.0
1577725558217,4005284.0,4686197.0,0.0
1577725558273,4136905.0,4758469.0,0.0
1577725558314,4117593.0,4701531.0,0.0
1577725558369,3938005.0,4601016.0,0.0
1577725558421,3996578.0,4639002.0,0.0
1577725558466,4148782.0,4734455.0,0.0
1577725558520,4099072.0,4688104.0,0.0
1577725558565,4034133.0,4639544.0,0.0
1577725558615,4037117.0,4651194.0,0.0
1577725558660,4062266.0,4676356.0,0.0
1577725558714,4066679.0,4669548.0,0.0
1577725558762,4083852.0,4674340.0,0.0
1577725558813,4119877.0,4697728.0,0.0
1577725558858,4138658.0,4746131.0,0.0
1577725558906,4133150.0,4763023.0,0.0
1577725558958,4194206.0,4854974.0,0.0
1577725559009,4147086.0,4867000.0,0.0
1577725559057,3891791.0,4777534.0,0.0
1577725559107,3744749.0,4610362.0,0.0
1577725559153,3813079.0,4651522.0,0.0
1577725559206,3930136.0,4822376.0,0.0
1577725559257,3861124.0,4720028.0,0.0
1577725559304,3805257.0,4645230.0,0.0
1577725559349,3806799.0,4652053.0,0.0
1577725559404,3822673.0,4678083.0,0.0
1577725559453,3846078.0,4725534.0,0.0
1577725559496,3864734.0,4760825.0,0.0
1577725559550,3862154.0,4786963.0,0.0
1577725559598,3999274.0,4931280.0,0.0
1577725559644,3999110.0,4867048.0,0.0
1577725559701,3972035.0,4738922.0,0.0
1577725559746,4053416.0,4746203.0,0.0
1577725559796,4154599.0,4806378.0,0.0
1577725559845,4350890.0,4851920.0,0.0
1577725559895,4273208.0,4794112.0,0.0
1577725559939,4180075.0,4733780.0,0.0
1577725559991,4330701.0,4795344.0,0.0
1577725560036,4443607.0,4898948.0,0.0
1577725560087,4216899.0,4941338.0,0.0
1577725560137,4224556.0,4906348.0,0.0
1577725560187,4250179.0,4958785.0,0.0
1577725560238,4113798.0,4873411.0,0.0
1577725560285,4071667.0,4833893.0,0.0
1577725560337,4034228.0,4794873.0,0.0
1577725560382,4070426.0,4802260.0,0.0
1577725560436,4098889.0,4816978.0,0.0
1577725560485,4271542.0,4926837.0,0.0
1577725560535,4615094.0,5056425.0,0.0
1577725560583,4540476.0,4908389.0,0.0
1577725560631,4173045.0,4690386.0,0.0
1577725560676,4130356.0,4656060.0,0.0
1577725560726,4310146.0,4736835.0,0.0
1577725560777,4320471.0,4728552.0,0.0
1577725560826,4239496.0,4699997.0,0.0
1577725560879,4235865.0,4704958.0,0.0
1577725560924,4202219.0,4689577.0,0.0
1577725560974,4239071.0,4698307.0,0.0
1577725561021,4284170.0,4701361.0,0.0
1577725561070,4379912.0,4759098.0,0.0
1577725561118,4449338.0,4831360.0,0.0
1577725561168,4719524.0,5037457.0,0.0
1577725561217,4620797.0,5000849.0,0.0
1577725561267,4423304.0,4791708.0,0.0
1577725561316,4366291.0,4732572.0,0.0
1577725561366,4270327.0,4676996.0,0.0
1577725561419,4109291.0,4629015.0,0.0
1577725561466,4041163.0,4618259.0,0.0
1577725561519,3941607.0,4536109.0,0.0
1577725561564,3927680.0,4526570.0,0.0
1577725561614,3969349.0,4593447.0,0.0
1577725561662,3917411.0,4593785.0,0.0
1577725561716,4780582.0,5406127.0,0.0
1577725561765,5144200.0,6175739.0,0.0
1577725561813,4710442.0,5854906.0,0.0
1577725561859,5004353.0,6497577.0,0.0
1577725561910,3649999.0,4851727.0,0.0
1577725561961,3146902.0,4143652.0,0.0
1577725562011,3086539.0,4000097.0,0.0
1577725562063,3120538.0,4010179.0,0.0
1577725562110,3193530.0,4121148.0,0.0
1577725562158,3243048.0,4139005.0,0.0
1577725562207,3393105.0,4396548.0,0.0
1577725562252,3436255.0,4467336.0,0.0
1577725562307,3390648.0,4277961.0,0.0
1577725562358,3431324.0,4422603.0,0.0
1577725562436,3377954.0,4278710.0,0.0
1577725562501,3412957.0,4341143.0,0.0
1577725562502,3452129.0,4389534.0,0.0
1577725562586,3454807.0,4411702.0,0.0
1577725562608,3377357.0,4343907.0,0.0
1577725562647,3382066.0,4373705.0,0.0
1577725562693,3608082.0,4636199.0,0.0
1577725562746,3669861.0,4704948.0,0.0
1577725562795,3479590.0,4424693.0,0.0
1577725562843,3453429.0,4475717.0,0.0
1577725562891,3450242.0,4457931.0,0.0
1577725562943,3424052.0,4411990.0,0.0
1577725562993,3423234.0,4430670.0,0.0
1577725563041,3434166.0,4481742.0,0.0
1577725563092,3441361.0,4511720.0,0.0
1577725563142,3524707.0,4608177.0,0.0
1577725563189,3653418.0,4561234.0,0.0
1577725563240,3608013.0,4293380.0,0.0
1577725563287,3586813.0,4252559.0,0.0
1577725563335,3641033.0,4581590.0,0.0
1577725563383,3599835.0,4499453.0,0.0
1577725563434,3576622.0,4414587.0,0.0
1577725563483,3633115.0,4487886.0,0.0
1577725563534,3624927.0,4497412.0,0.0
1577725563582,3614149.0,4511635.0,0.0
1577725563632,3685656.0,4568986.0,0.0
1577725563682,3721285.0,4639314.0,0.0
1577725563731,3729290.0,4706045.0,0.0
1577725563783,3642621.0,4644772.0,0.0
1577725563829,3553989.0,4556368.0,0.0
1577725563880,3571586.0,4577050.0,0.0
1577725563927,3608716.0,4614757.0,0.0
1577725563976,3654922.0,4661881.0,0.0
1577725564026,3668098.0,4677104.0,0.0
1577725564074,3666509.0,4668316.0,0.0
1577725564124,3721323.0,4684845.0,0.0
1577725564171,3611481.0,4511672.0,0.0
1577725564220,3616556.0,4483601.0,0.0
1577725564270,3719060.0,4690410.0,0.0
1577725564321,3774484.0,4760957.0,0.0
1577725564369,3837216.0,4822979.0,0.0
1577725564421,3897916.0,4877312.0,0.0
1577725564469,3929211.0,4941446.0,0.0
1577725564517,3920503.0,4948039.0,0.0
1577725564567,3896376.0,4928624.0,0.0
1577725564616,3958444.0,4975809.0,0.0
1577725564665,3953637.0,4950068.0,0.0
1577725564715,3856268.0,4813960.0,0.0
1577725564763,3804737.0,4880728.0,0.0
1577725564813,3797831.0,4923626.0,0.0
1577725564863,3825158.0,4971992.0,0.0
1577725564912,3878334.0,5024659.0,0.0
1577725564962,3894901.0,5043577.0,0.0
1577725565011,3880521.0,5026555.0,0.0
1577725565062,3883652.0,5020433.0,0.0
1577725565108,3890655.0,5031131.0,0.0
1577725565154,3884615.0,5069440.0,0.0
1577725565211,3934807.0,5106783.0,0.0
1577725565259,3989623.0,5109258.0,0.0
1577725565305,4035297.0,5142016.0,0.0
1577725565354,4074711.0,5145758.0,0.0
1577725565404,4155668.0,5231010.0,0.0
1577725565453,4214154.0,5330811.0,0.0
1577725565502,4323988.0,5515394.0,0.0
1577725565556,4581363.0,6134629.0,0.0
1577725565605,4094216.0,5344286.0,0.0
1577725565651,4183265.0,5393052.0,0.0
1577725565702,4475180.0,5699492.0,0.0
1577725565753,4471279.0,5817454.0,0.0
1577725565801,4301053.0,5652128.0,0.0
1577725565851,4495437.0,5829866.0,0.0
1577725565900,4467821.0,5805899.0,0.0
1577725565949,4369865.0,5696149.0,0.0
1577725565998,4400985.0,5722578.0,0.0
1577725566043,4485575.0,5794006.0,0.0
1577725566091,4424555.0,5733336.0,0.0
1577725566144,4475008.0,5768530.0,0.0
1577725566196,4440332.0,5752328.0,0.0
1577725566249,4396092.0,5658589.0,0.0
1577725566290,4274836.0,5466255.0,0.0
1577725566342,4192020.0,5376533.0,0.0
1577725566387,4279489.0,5460145.0,0.0
1577725566440,4476732.0,5614578.0,0.0
1577725566491,4321060.0,5467691.0,0.0
1577725566535,4287175.0,5429985.0,0.0
1577725566587,4336942.0,5461436.0,0.0
1577725566634,4348665.0,5472774.0,0.0
1577725566685,4343204.0,5462981.0,0.0
1577725566737,4326452.0,5451125.0,0.0
1577725566789,4320136.0,5444811.0,0.0
1577725566834,4347952.0,5470769.0,0.0
1577725566883,4283109.0,5426772.0,0.0
1577725566935,4327204.0,5452936.0,0.0
1577725566981,4313845.0,5446742.0,0.0
1577725567033,4318218.0,5441236.0,0.0
1577725567080,4319075.0,5447951.0,0.0
1577725567132,4315125.0,5454795.0,0.0
1577725567179,4339177.0,5459529.0,0.0
1577725567227,4383032.0,5453891.0,0.0
1577725567278,4329748.0,5369834.0,0.0
1577725567329,4649451.0,5471409.0,0.0
1577725567372,4946039.0,5680416.0,0.0
1577725567429,6552781.0,5790372.0,0.0
1577725567468,5419615.0,4503823.0,0.0
1577725567519,6233431.0,4410493.0,0.0
1577725567574,6285964.0,4537968.0,0.0
1577725567615,6349622.0,4721657.0,0.0
1577725567666,6872475.0,4919786.0,0.0
1577725567715,6602470.0,5188293.0,0.0
1577725567767,6683844.0,5437361.0,0.0
1577725567826,6959892.0,5646479.0,0.0
1577725567884,7248761.0,5829104.0,0.0
1577725567920,7479739.0,6009511.0,0.0
1577725567969,7650512.0,6170500.0,0.0
1577725568020,7829540.0,6339050.0,0.0
1577725568063,8472336.0,6478090.0,0.0
1577725568119,8910704.0,6631957.0,0.0
1577725568160,9219971.0,6763645.0,0.0
1577725568213,9447440.0,6826354.0,0.0
1577725568267,9508435.0,6897421.0,0.0
1577725568318,9593702.0,6952960.0,0.0
1577725568380,9639916.0,6978761.0,0.0
1577725568429,9723120.0,7039288.0,0.0
1577725568453,9746947.0,7061250.0,0.0
1577725568526,9821440.0,7086060.0,0.0
1577725568594,9850272.0,7196003.0,0.0
1577725568608,1.0090582E7,7283826.0,0.0
1577725568657,1.0216473E7,7363840.0,0.0
1577725568704,1.0316076E7,7780359.0,0.0
1577725568750,1.0347241E7,7986749.0,0.0
1577725568798,1.0385692E7,8135243.0,0.0
1577725568853,1.0463801E7,8208706.0,0.0
1577725568896,1.0560038E7,8190528.0,0.0
1577725568948,1.0695152E7,8241925.0,0.0
1577725568996,1.1731144E7,8303713.0,0.0
1577725569043,1.1741122E7,8339795.0,0.0
1577725569095,1.1937593E7,8361600.0,0.0
1577725569145,1.2012135E7,8427305.0,0.0
1577725569193,1.2148678E7,8478208.0,0.0
1577725569241,1.2268168E7,8497702.0,0.0
1577725569292,1.2397448E7,8555403.0,0.0
1577725569339,1.2528289E7,8611138.0,0.0
1577725569391,1.2628777E7,8667458.0,0.0
1577725569438,1.2726044E7,8708961.0,0.0
1577725569488,1.2816445E7,8760667.0,0.0
1577725569536,1.2901925E7,8799924.0,0.0
1577725569587,1.2980653E7,8823045.0,0.0
1577725569635,1.3036263E7,8858228.0,0.0
1577725569686,1.30998E7,8877804.0,0.0
1577725569733,1.3150282E7,8918344.0,0.0
1577725569783,1.317857E7,8933133.0,0.0
1577725569834,1.32132E7,8945569.0,0.0
1577725569886,1.3207155E7,8956332.0,0.0
1577725569930,1.3227652E7,8986793.0,0.0
1577725569979,1.3259639E7,9002231.0,0.0
1577725570030,1.3280896E7,9013103.0,0.0
1577725570078,1.3296937E7,9039181.0,0.0
1577725570130,1.3328598E7,9069317.0,0.0
1577725570176,1.3351002E7,9081288.0,0.0
1577725570229,1.3363918E7,9102208.0,0.0
1577725570275,1.33778E7,9132374.0,0.0
1577725570334,1.3386322E7,9152414.0,0.0
1577725570373,1.3404523E7,9792495.0,0.0
1577725570422,1.342656E7,9626893.0,0.0
1577725570472,1.3456454E7,9633640.0,0.0
1577725570521,1.3485018E7,9651354.0,0.0
1577725570571,1.3501584E7,9665734.0,0.0
1577725570619,1.3506688E7,9682981.0,0.0
1577725570675,1.4026481E7,9702063.0,0.0
1577725570723,1.3980179E7,9722721.0,0.0
1577725570770,1.3936423E7,9716665.0,0.0
1577725570820,1.3929358E7,9730876.0,0.0
1577725570872,1.3945383E7,9749359.0,0.0
1577725570920,1.3936999E7,9762667.0,0.0
1577725570968,1.3944369E7,9802354.0,0.0
1577725571015,1.3877656E7,9832010.0,0.0
1577725571068,1.3872999E7,9832030.0,0.0
1577725571118,1.3846424E7,9860149.0,0.0
1577725571164,1.3806833E7,9883954.0,0.0
1577725571217,1.3814365E7,9908008.0,0.0
1577725571259,1.3780696E7,9925440.0,0.0
1577725571309,1.3728472E7,9960495.0,0.0
1577725571357,1.367135E7,9983851.0,0.0
1577725571409,1.362491E7,9999541.0,0.0
1577725571456,1.3583374E7,1.0010603E7,0.0
1577725571511,1.35728E7,1.0030548E7,0.0
1577725571559,1.3562688E7,1.0046784E7,0.0
1577725571609,1.3514441E7,1.0059418E7,0.0
1577725571653,1.3483372E7,1.0080976E7,0.0
1577725571707,1.3428765E7,1.0111531E7,0.0
1577725571752,1.3396849E7,1.0131701E7,0.0
1577725571806,1.3353339E7,1.0149756E7,0.0
1577725571850,1.3380873E7,1.0165615E7,0.0
1577725571905,1.3445779E7,1.018884E7,0.0
1577725571947,1.3506441E7,1.0190339E7,0.0
1577725572003,1.3529181E7,1.0198757E7,0.0
1577725572052,1.3567867E7,1.0179317E7,0.0
1577725572103,1.3609457E7,1.0130428E7,0.0
1577725572148,1.3605267E7,1.0096872E7,0.0
1577725572200,1.3644553E7,1.0068641E7,0.0
1577725572249,1.3625486E7,1.0050981E7,0.0
1577725572299,1.3604007E7,1.0034017E7,0.0
1577725572348,1.3570304E7,1.0001024E7,0.0
1577725572394,1.3577319E7,9964658.0,0.0
1577725572445,1.3541508E7,1.0000404E7,0.0
1577725572493,1.3328546E7,1.0472448E7,0.0
1577725572543,1.3358818E7,1.0617354E7,0.0
1577725572591,1.3316081E7,1.0762186E7,0.0
1577725572637,1.3028455E7,1.0961101E7,0.0
1577725572695,1.0571377E7,1.0886416E7,0.0
1577725572740,9668859.0,1.0757669E7,0.0
1577725572786,9493484.0,1.0595627E7,0.0
1577725572836,9748366.0,1.0618216E7,0.0
1577725572887,9431566.0,1.0827216E7,0.0
1577725572938,7770973.0,1.1254905E7,0.0
1577725573002,1.0516883E7,1.1536171E7,0.0
1577725573046,1.2003224E7,1.056359E7,0.0
1577725573131,1.1341449E7,1.0621497E7,0.0
1577725573137,1.1292135E7,1.066049E7,0.0
1577725573223,1.1558281E7,1.0794128E7,0.0
1577725573235,1.1613046E7,1.0857754E7,0.0
1577725573274,1.1634584E7,1.083267E7,0.0
1577725573328,1.1757326E7,1.0787082E7,0.0
1577725573374,1.1844942E7,1.0740442E7,0.0
1577725573422,1.1884288E7,1.0722145E7,0.0
1577725573475,1.189308E7,1.0714947E7,0.0
1577725573520,1.2127089E7,1.07626E7,0.0
1577725573573,1.2232103E7,1.0754293E7,0.0
1577725573621,1.2276297E7,1.0739597E7,0.0
1577725573673,1.2269641E7,1.0736562E7,0.0
1577725573718,1.2243229E7,1.0770903E7,0.0
1577725573771,1.2046459E7,1.0802229E7,0.0
1577725573821,1.2087035E7,1.0831639E7,0.0
1577725573871,1.2117883E7,1.0833552E7,0.0
1577725573917,1.2090348E7,1.0826202E7,0.0
1577725573966,1.2119581E7,1.0840299E7,0.0
1577725574016,1.2023714E7,1.0859422E7,0.0
1577725574065,1.200988E7,1.0793455E7,0.0
1577725574114,1.2027662E7,1.0829992E7,0.0
1577725574164,1.2048704E7,1.103781E7,0.0
1577725574214,1.2003032E7,1.1017562E7,0.0
1577725574264,1.1930948E7,1.1017751E7,0.0
1577725574315,1.1776861E7,1.1355892E7,0.0
1577725574363,1.1659982E7,1.1336724E7,0.0
1577725574415,1.1567758E7,1.1287216E7,0.0
1577725574462,1.1455453E7,1.1316224E7,0.0
1577725574510,1.119197E7,1.0795452E7,0.0
1577725574560,1.1101666E7,1.0696192E7,0.0
1577725574608,1.1095335E7,1.0711704E7,0.0
1577725574654,1.1044076E7,1.056356E7,0.0
1577725574708,1.0989001E7,1.0574356E7,0.0
1577725574752,1.1049363E7,1.0496488E7,0.0
1577725574809,1.0946535E7,1.04261E7,0.0
1577725574853,1.0818013E7,1.0353908E7,0.0
1577725574904,1.0863522E7,1.0220184E7,0.0
1577725574955,1.0392359E7,9909180.0,0.0
1577725575002,1.0156051E7,9761168.0,0.0
1577725575052,9968649.0,9683564.0,0.0
1577725575101,9815192.0,9532816.0,0.0
1577725575146,9834235.0,9483084.0,0.0
1577725575198,9813572.0,9551960.0,0.0
1577725575248,9978456.0,9842532.0,0.0
1577725575299,1.0194929E7,1.0033996E7,0.0
1577725575350,1.0312576E7,1.0102472E7,0.0
1577725575398,1.0469538E7,1.0185592E7,0.0
1577725575440,1.063198E7,1.0242604E7,0.0
1577725575499,1.0639734E7,1.0305112E7,0.0
1577725575543,1.0559926E7,1.029436E7,0.0
1577725575594,1.0556199E7,1.0130608E7,0.0
1577725575637,1.0585403E7,1.007104E7,0.0
1577725575692,1.0649516E7,1.0021776E7,0.0
1577725575735,1.1114569E7,9993660.0,0.0
1577725575793,1.1600251E7,9879616.0,0.0
1577725575838,1.2233885E7,9842888.0,0.0
1577725575889,1.3241476E7,1.012658E7,0.0
1577725575934,1.344348E7,1.0262416E7,0.0
1577725575986,1.3036238E7,1.0286188E7,0.0
1577725576039,1.2453508E7,1.0306136E7,0.0
1577725576084,1.1933878E7,1.0305332E7,0.0
1577725576134,1.1327699E7,1.0327928E7,0.0
1577725576182,1.1314875E7,1.0269696E7,0.0
1577725576233,1.133696E7,1.0266156E7,0.0
1577725576277,1.1285533E7,1.021206E7,0.0
1577725576332,1.1309312E7,1.0315552E7,0.0
1577725576374,1.146362E7,1.045584E7,0.0
1577725576429,1.1677843E7,1.051592E7,0.0
1577725576473,1.1756283E7,1.0485292E7,0.0
1577725576528,1.1866781E7,1.0569192E7,0.0
1577725576579,1.19987E7,1.0573732E7,0.0
1577725576626,1.1925139E7,1.0454148E7,0.0
1577725576674,1.2072649E7,1.0509176E7,0.0
1577725576719,1.2231148E7,1.0714956E7,0.0
1577725576774,1.2347259E7,1.0966036E7,0.0
1577725576817,1.2385836E7,1.1158636E7,0.0
1577725576876,1.2429755E7,1.1292024E7,0.0
1577725576919,1.2663842E7,1.1457332E7,0.0
1577725576970,1.2900066E7,1.165768E7,0.0
1577725577014,1.3006867E7,1.1843784E7,0.0
1577725577068,1.3155938E7,1.2087984E7,0.0
1577725577114,1.3219475E7,1.22825E7,0.0
1577725577162,1.3128625E7,1.2331672E7,0.0
1577725577217,1.3092263E7,1.234652E7,0.0
1577725577266,1.3041496E7,1.2305964E7,0.0
1577725577319,1.3063881E7,1.2315956E7,0.0
1577725577367,1.3153555E7,1.239634E7,0.0
1577725577414,1.3261858E7,1.2502392E7,0.0
1577725577463,1.3471099E7,1.2711288E7,0.0
1577725577512,1.3520551E7,1.2811996E7,0.0
1577725577556,1.3523894E7,1.291324E7,0.0
1577725577611,1.351674E7,1.2930424E7,0.0
1577725577660,1.3599867E7,1.2951684E7,0.0
1577725577709,1.3650993E7,1.2960676E7,0.0
1577725577754,1.3763707E7,1.3000724E7,0.0
1577725577811,1.3822941E7,1.2989572E7,0.0
1577725577858,1.3873083E7,1.322518E7,0.0
1577725577906,1.3867244E7,1.3294856E7,0.0
1577725577959,1.3907766E7,1.333032E7,0.0
1577725578004,1.3928836E7,1.3946811E7,0.0
1577725578054,1.3934916E7,1.3966508E7,0.0
1577725578103,1.3960014E7,1.3998045E7,0.0
1577725578147,1.3959276E7,1.401914E7,0.0
1577725578195,1.3950562E7,1.4030429E7,0.0
1577725578247,1.3899165E7,1.4020839E7,0.0
1577725578297,1.3849959E7,1.3980288E7,0.0
1577725578344,1.3789051E7,1.3890727E7,0.0
1577725578396,1.3705486E7,1.3758227E7,0.0
1577725578447,1.3586993E7,1.3621021E7,0.0
1577725578500,1.3506166E7,1.3527483E7,0.0
1577725578541,1.3392137E7,1.3417014E7,0.0
1577725578592,1.3346136E7,1.3349587E7,0.0
1577725578640,1.3310355E7,1.3307204E7,0.0
1577725578693,1.3276243E7,1.3263995E7,0.0
1577725578742,1.3255227E7,1.3264108E7,0.0
1577725578794,1.3240763E7,1.3240571E7,0.0
1577725578839,1.322939E7,1.3225309E7,0.0
1577725578892,1.3205804E7,1.3208925E7,0.0
1577725578937,1.3198572E7,1.3184679E7,0.0
1577725578989,1.3168487E7,1.3169033E7,0.0
1577725579036,1.3163416E7,1.3153939E7,0.0
1577725579086,1.314876E7,1.3145142E7,0.0
1577725579136,1.3140785E7,1.3131086E7,0.0
1577725579184,1.3115362E7,1.3092263E7,0.0
1577725579234,1.3085715E7,1.3056044E7,0.0
1577725579283,1.3051933E7,1.3011249E7,0.0
1577725579336,1.3032728E7,1.2988371E7,0.0
1577725579377,1.300221E7,1.2951222E7,0.0
1577725579426,1.299903E7,1.2943684E7,0.0
1577725579477,1.2996647E7,1.2922235E7,0.0
1577725579526,1.2985767E7,1.2895438E7,0.0
1577725579577,1.3039143E7,1.2973248E7,0.0
1577725579624,1.3108785E7,1.3073058E7,0.0
1577725579674,1.3159172E7,1.3214956E7,0.0
1577725579727,1.3232408E7,1.3369944E7,0.0
1577725579776,1.3394028E7,1.3571923E7,0.0
1577725579826,1.3634638E7,1.380127E7,0.0
1577725579878,1.3669981E7,1.3921437E7,0.0
1577725579922,1.3509016E7,1.3862148E7,0.0
1577725579973,1.3421341E7,1.384571E7,0.0
1577725580015,1.341726E7,1.3981769E7,0.0
1577725580069,1.3274791E7,1.3962564E7,0.0
1577725580121,1.3360329E7,1.4029139E7,0.0
1577725580163,1.3515017E7,1.4093169E7,0.0
1577725580220,1.3475096E7,1.3797351E7,0.0
1577725580267,1.3225255E7,1.3628608E7,0.0
1577725580316,1.2912807E7,1.3435972E7,0.0
1577725580361,1.2645484E7,1.327808E7,0.0
1577725580415,1.2444356E7,1.3105634E7,0.0
1577725580464,1.2179746E7,1.299037E7,0.0
1577725580514,1.2019687E7,1.2920644E7,0.0
1577725580558,1.1918784E7,1.2892755E7,0.0
1577725580612,1.1965469E7,1.2879463E7,0.0
1577725580655,1.2058294E7,1.285023E7,0.0
1577725580709,1.2191995E7,1.2819736E7,0.0
1577725580759,1.2431177E7,1.2861572E7,0.0
1577725580810,1.2534198E7,1.2840123E7,0.0
1577725580856,1.2649432E7,1.2886124E7,0.0
1577725580906,1.2835081E7,1.3054321E7,0.0
1577725580957,1.2934724E7,1.3208979E7,0.0
1577725581002,1.2882752E7,1.337786E7,0.0
1577725581054,1.2836396E7,1.3503867E7,0.0
1577725581096,1.2774857E7,1.3556416E7,0.0
1577725581148,1.2724091E7,1.3502523E7,0.0
1577725581198,1.2786944E7,1.3293942E7,0.0
1577725581250,1.2768477E7,1.3114786E7,0.0
1577725581303,1.2669705E7,1.30915E7,0.0
1577725581348,1.255003E7,1.2918616E7,0.0
1577725581396,1.2582336E7,1.2726528E7,0.0
1577725581446,1.264831E7,1.275231E7,0.0
1577725581496,1.2522417E7,1.2597592E7,0.0
1577725581545,1.2246764E7,1.2356465E7,0.0
1577725581590,1.1973553E7,1.2181336E7,0.0
1577725581639,1.169727E7,1.2254242E7,0.0
1577725581695,1.1903355E7,1.2555923E7,0.0
1577725581739,1.1817629E7,1.2490988E7,0.0
1577725581793,1.1721762E7,1.2389508E7,0.0
1577725581845,1.1846203E7,1.2428632E7,0.0
1577725581886,1.204799E7,1.2494961E7,0.0
1577725581943,1.2295256E7,1.2594225E7,0.0
1577725581988,1.2599896E7,1.2795928E7,0.0
1577725582037,1.2662611E7,1.2861848E7,0.0
1577725582087,1.2677981E7,1.2906589E7,0.0
1577725582133,1.2713432E7,1.2993634E7,0.0
1577725582186,1.2751872E7,1.3077661E7,0.0
1577725582234,1.2905191E7,1.3207394E7,0.0
1577725582278,1.2920974E7,1.3224379E7,0.0
1577725582337,1.2977988E7,1.3292297E7,0.0
1577725582384,1.3049388E7,1.3301858E7,0.0
1577725582432,1.3098377E7,1.3337752E7,0.0
1577725582484,1.3248379E7,1.3437479E7,0.0
1577725582529,1.3244381E7,1.3438715E7,0.0
1577725582579,1.3318764E7,1.3521097E7,0.0
1577725582627,1.3198404E7,1.3478168E7,0.0
1577725582678,1.2942892E7,1.3316765E7,0.0
1577725582726,1.2842151E7,1.3141799E7,0.0
1577725582775,1.2797243E7,1.2936177E7,0.0
1577725582818,1.2615488E7,1.2855438E7,0.0
1577725582877,1.2440905E7,1.2755131E7,0.0
1577725582920,1.1895876E7,1.2179692E7,0.0
1577725582972,1.1791108E7,1.2118926E7,0.0
1577725583022,1.1817161E7,1.2075638E7,0.0
1577725583070,1.1718119E7,1.1973361E7,0.0
1577725583112,1.1579515E7,1.1796918E7,0.0
1577725583163,1.1454222E7,1.1684036E7,0.0
1577725583213,1.1406493E7,1.160924E7,0.0
1577725583262,1.1437892E7,1.156028E7,0.0
1577725583311,1.1471729E7,1.1477454E7,0.0
1577725583363,1.1504443E7,1.1419264E7,0.0
1577725583413,1.1510198E7,1.1336768E7,0.0
1577725583460,1.1502168E7,1.1285425E7,0.0
1577725583512,1.1601156E7,1.1341257E7,0.0
1577725583563,1.1741105E7,1.1469016E7,0.0
1577725583610,1.1753816E7,1.1523593E7,0.0
1577725583659,1.1756312E7,1.1499923E7,0.0
1577725583709,1.1795406E7,1.1322604E7,0.0
1577725583758,1.1674392E7,1.1221833E7,0.0
1577725583806,1.1484361E7,1.1066348E7,0.0
1577725583856,1.1337398E7,1.0922564E7,0.0
1577725583899,1.1184955E7,1.0810919E7,0.0
1577725583955,1.1051278E7,1.0753353E7,0.0
1577725584001,1.0832177E7,1.0800452E7,0.0
1577725584053,1.0523101E7,1.0693981E7,0.0
1577725584105,1.0309011E7,1.0486523E7,0.0
1577725584147,1.025408E7,1.0181257E7,0.0
1577725584199,1.0232571E7,1.023227E7,0.0
1577725584249,1.0180076E7,1.0266244E7,0.0
1577725584320,1.0207532E7,1.0367783E7,0.0
1577725584345,1.0438877E7,1.0538963E7,0.0
1577725584397,1.0594333E7,1.070782E7,0.0
1577725584440,1.0815684E7,1.0950592E7,0.0
1577725584491,1.1058702E7,1.1147308E7,0.0
1577725584541,1.1169309E7,1.1235337E7,0.0
1577725584591,1.117375E7,1.1148376E7,0.0
1577725584641,1.0984398E7,1.0862971E7,0.0
1577725584689,1.0783133E7,1.0606749E7,0.0
1577725584737,1.0626555E7,1.0417536E7,0.0
1577725584793,1.0560034E7,1.0287069E7,0.0
1577725584841,1.0554003E7,1.0267313E7,0.0
1577725584889,1.0656502E7,1.0211859E7,0.0
1577725584937,1.090048E7,1.0374084E7,0.0
1577725584985,1.0840945E7,1.0563101E7,0.0
1577725585037,1.0455236E7,1.0524499E7,0.0
1577725585085,1.041822E7,1.0589676E7,0.0
1577725585131,1.0455591E7,1.0658338E7,0.0
1577725585186,1.0398493E7,1.0613735E7,0.0
1577725585232,1.0166764E7,1.0567374E7,0.0
1577725585280,1.0236873E7,1.0666747E7,0.0
1577725585335,1.0328876E7,1.0688694E7,0.0
1577725585379,1.0483923E7,1.069338E7,0.0
1577725585429,1.0578333E7,1.0715874E7,0.0
1577725585478,1.0613405E7,1.0756504E7,0.0
1577725585525,1.0520088E7,1.084544E7,0.0
1577725585573,1.0397947E7,1.0873137E7,0.0
1577725585620,1.0264876E7,1.0792507E7,0.0
1577725585669,1.0157612E7,1.071357E7,0.0
1577725585724,1.0167611E7,1.0614498E7,0.0
1577725585773,1.0334547E7,1.0329974E7,0.0
1577725585822,1.0616964E7,1.0274658E7,0.0
1577725585876,1.0892672E7,1.044447E7,0.0
1577725585920,1.1108076E7,1.0557346E7,0.0
1577725585965,1.0765602E7,1.075834E7,0.0
1577725586018,1.0843465E7,1.0734587E7,0.0
1577725586065,1.0783985E7,1.0546609E7,0.0
1577725586117,1.0776369E7,1.0538663E7,0.0
1577725586160,1.0894016E7,1.0757026E7,0.0
1577725586215,1.1094675E7,1.1069582E7,0.0
1577725586264,1.1282082E7,1.1312054E7,0.0
1577725586314,1.1527266E7,1.15808E7,0.0
1577725586364,1.1665787E7,1.177149E7,0.0
1577725586408,1.1934592E7,1.20518E7,0.0
1577725586461,1.215679E7,1.2297831E7,0.0
1577725586506,1.22326E7,1.242589E7,0.0
1577725586559,1.2235997E7,1.2510193E7,0.0
1577725586606,1.2168157E7,1.2560772E7,0.0
1577725586657,1.215035E7,1.2555815E7,0.0
1577725586703,1.2076155E7,1.2558852E7,0.0
1577725586756,1.2103635E7,1.2629159E7,0.0
1577725586803,1.2196652E7,1.2760064E7,0.0
1577725586859,1.2184733E7,1.2775625E7,0.0
1577725586902,1.2289038E7,1.287834E7,0.0
1577725586952,1.2490988E7,1.3124292E7,0.0
1577725587001,1.2401998E7,1.313243E7,0.0
1577725587044,1.2008728E7,1.2764504E7,0.0
1577725587099,1.1728861E7,1.2441565E7,0.0
1577725587145,1.1546801E7,1.2251805E7,0.0
1577725587198,1.1336713E7,1.2090456E7,0.0
1577725587243,1.1150242E7,1.197114E7,0.0
1577725587312,1.1060184E7,1.1872014E7,0.0
1577725587347,1.0933193E7,1.176768E7,0.0
1577725587394,1.0757572E7,1.172124E7,0.0
1577725587443,1.06105E7,1.1610363E7,0.0
1577725587494,1.0484361E7,1.1451894E7,0.0
1577725587541,1.0432275E7,1.1209777E7,0.0
1577725587592,1.0284573E7,1.1161831E7,0.0
1577725587636,1.023356E7,1.0868233E7,0.0
1577725587685,1.0134188E7,1.0771712E7,0.0
1577725587739,1.008287E7,1.0587022E7,0.0
1577725587785,1.0019908E7,1.0473536E7,0.0
1577725587839,9935606.0,1.029885E7,0.0
1577725587888,9761216.0,1.01318E7,0.0
1577725587936,9649024.0,9929580.0,0.0
1577725587989,9572091.0,9763820.0,0.0
1577725588031,9501646.0,9631901.0,0.0
1577725588077,9446006.0,9550552.0,0.0
1577725588129,9377698.0,9491840.0,0.0
1577725588177,9330057.0,9427564.0,0.0
1577725588232,9315426.0,9370028.0,0.0
1577725588282,9234328.0,9331918.0,0.0
1577725588328,9197804.0,9293041.0,0.0
1577725588379,9158572.0,9251751.0,0.0
1577725588428,9116544.0,9221120.0,0.0
1577725588476,9082407.0,9193368.0,0.0
1577725588528,9044731.0,9153531.0,0.0
1577725588575,9021774.0,9127719.0,0.0
1577725588623,8971500.0,9091254.0,0.0
1577725588674,8853632.0,9024265.0,0.0
1577725588722,8705270.0,8935689.0,0.0
1577725588773,8466825.0,8896644.0,0.0
1577725588822,7692389.0,8742532.0,0.0
1577725588875,7579765.0,8599379.0,0.0
1577725588915,7471564.0,7834880.0,0.0
1577725588966,7421758.0,7844096.0,0.0
1577725589018,7383752.0,7811267.0,0.0
1577725589069,7333638.0,7771395.0,0.0
1577725589116,7303835.0,7725056.0,0.0
1577725589160,7283601.0,7701980.0,0.0
1577725589215,7261249.0,7686051.0,0.0
1577725589260,7227769.0,7662762.0,0.0
1577725589307,7194634.0,7641411.0,0.0
1577725589362,7155995.0,7634528.0,0.0
1577725589407,7164945.0,7628472.0,0.0
1577725589459,7222493.0,7671192.0,0.0
1577725589507,7275592.0,7717731.0,0.0
1577725589560,7335351.0,7731921.0,0.0
1577725589608,7411265.0,7786812.0,0.0
1577725589657,7519446.0,7923619.0,0.0
1577725589706,7688832.0,8112988.0,0.0
1577725589755,7870962.0,8020718.0,0.0
1577725589807,8166489.0,7856679.0,0.0
1577725589853,8534078.0,8024003.0,0.0
1577725589903,8867459.0,8378912.0,0.0
1577725589952,9094984.0,8632782.0,0.0
1577725590000,8994428.0,8638698.0,0.0
1577725590046,8704349.0,8556362.0,0.0
1577725590100,8367986.0,8504046.0,0.0
1577725590146,7474414.0,8429013.0,0.0
1577725590197,6976809.0,8478183.0,0.0
1577725590247,6840731.0,8287118.0,0.0
1577725590313,6733128.0,8143815.0,0.0
1577725590346,6821248.0,8144192.0,0.0
1577725590395,6906693.0,8294517.0,0.0
1577725590442,6937247.0,8376199.0,0.0
1577725590489,6919590.0,8337436.0,0.0
1577725590541,6928619.0,8333912.0,0.0
1577725590586,6954900.0,8311612.0,0.0
1577725590635,7022052.0,8317489.0,0.0
1577725590692,7162520.0,8387854.0,0.0
1577725590738,7342609.0,8548391.0,0.0
1577725590791,7494666.0,8632725.0,0.0
1577725590838,7637676.0,8714563.0,0.0
1577725590887,7727142.0,8713774.0,0.0
1577725590935,7778182.0,8699171.0,0.0
1577725590983,7820288.0,8714762.0,0.0
1577725591034,7846528.0,8728732.0,0.0
1577725591082,7876369.0,8726833.0,0.0
1577725591126,7939615.0,8729386.0,0.0
1577725591180,8002570.0,8760789.0,0.0
1577725591231,8086649.0,8827790.0,0.0
1577725591278,8190014.0,8823811.0,0.0
1577725591334,8517154.0,8933376.0,0.0
1577725591378,8901957.0,8962737.0,0.0
1577725591427,9327249.0,9083381.0,0.0
1577725591477,9431195.0,9283452.0,0.0
1577725591524,9338530.0,9292536.0,0.0
1577725591574,9200470.0,9334940.0,0.0
1577725591622,9121536.0,9186652.0,0.0
1577725591667,9030240.0,9104714.0,0.0
1577725591720,9250971.0,9244849.0,0.0
1577725591769,9447984.0,9300668.0,0.0
1577725591821,9517599.0,9300668.0,0.0
1577725591873,9489165.0,9317824.0,0.0
1577725591918,9489608.0,9327936.0,0.0
1577725591967,9967401.0,9355598.0,0.0
1577725592017,9985670.0,9557290.0,0.0
1577725592065,1.004747E7,9650727.0,0.0
1577725592116,9922771.0,9487896.0,0.0
1577725592157,9948052.0,9603256.0,0.0
1577725592209,9828279.0,9579868.0,0.0
1577725592258,9815690.0,9705084.0,0.0
1577725592306,9928894.0,9766780.0,0.0
1577725592357,9819443.0,9863701.0,0.0
1577725592410,1.0086476E7,1.0156832E7,0.0
1577725592455,9945624.0,9983512.0,0.0
1577725592504,9696034.0,9755402.0,0.0
1577725592554,9714957.0,9716856.0,0.0
1577725592601,9686832.0,9713137.0,0.0
1577725592652,9689468.0,9942414.0,0.0
1577725592699,9813957.0,1.0155388E7,0.0
1577725592751,9682421.0,1.0185326E7,0.0
1577725592799,9545344.0,9889799.0,0.0
1577725592852,9619061.0,9808689.0,0.0
1577725592897,1.0009025E7,1.0413258E7,0.0
1577725592949,1.0370144E7,1.0680704E7,0.0
1577725592996,1.0464155E7,1.0810232E7,0.0
1577725593045,1.0632309E7,1.0908693E7,0.0
1577725593094,1.0703581E7,1.0752216E7,0.0
1577725593143,1.069952E7,1.05135E7,0.0
1577725593193,1.0718678E7,1.0315982E7,0.0
1577725593242,1.0795398E7,1.0252188E7,0.0
1577725593294,1.0992508E7,1.02064E7,0.0
1577725593340,1.1388516E7,1.0138567E7,0.0
1577725593393,1.1544963E7,1.0356864E7,0.0
1577725593438,1.1530734E7,1.0583704E7,0.0
1577725593491,1.191815E7,1.0658286E7,0.0
1577725593536,1.1885522E7,1.0630442E7,0.0
1577725593589,1.1750449E7,1.0648014E7,0.0
1577725593635,1.1517881E7,1.0589582E7,0.0
1577725593682,1.1412661E7,1.052294E7,0.0
1577725593731,1.140041E7,1.0499054E7,0.0
1577725593783,1.1413417E7,1.049292E7,0.0
1577725593834,1.1435156E7,1.0513738E7,0.0
1577725593881,1.1403169E7,1.0512174E7,0.0
1577725593933,1.1400183E7,1.0568352E7,0.0
1577725593979,1.143803E7,1.069691E7,0.0
1577725594031,1.1512964E7,1.0810648E7,0.0
1577725594078,1.1539827E7,1.0899552E7,0.0
1577725594131,1.1616185E7,1.1013745E7,0.0
1577725594176,1.1691144E7,1.1171452E7,0.0
1577725594226,1.1803899E7,1.1334421E7,0.0
1577725594275,1.1974127E7,1.1488369E7,0.0
1577725594327,1.2042145E7,1.147212E7,0.0
1577725594373,1.2029117E7,1.1389472E7,0.0
1577725594430,1.2006643E7,1.1295459E7,0.0
1577725594473,1.1949332E7,1.1208931E7,0.0
1577725594521,1.1899057E7,1.1138368E7,0.0
1577725594571,1.185889E7,1.1083537E7,0.0
1577725594618,1.1832142E7,1.1038165E7,0.0
1577725594672,1.180328E7,1.1005632E7,0.0
1577725594717,1.1772923E7,1.0955768E7,0.0
1577725594767,1.1732711E7,1.0912433E7,0.0
1577725594818,1.1702631E7,1.090923E7,0.0
1577725594865,1.1689418E7,1.0940416E7,0.0
1577725594915,1.1646587E7,1.0972291E7,0.0
1577725594963,1.150554E7,1.0969383E7,0.0
1577725595015,1.1267063E7,1.0942926E7,0.0
1577725595062,1.1238317E7,1.0742976E7,0.0
1577725595113,1.1314745E7,1.0787555E7,0.0
1577725595160,1.1441156E7,1.0809283E7,0.0
1577725595213,1.1419255E7,1.0940711E7,0.0
1577725595258,1.1339449E7,1.0858951E7,0.0
1577725595311,1.124034E7,1.0785002E7,0.0
1577725595359,1.1325477E7,1.0955868E7,0.0
1577725595407,1.1490308E7,1.1094915E7,0.0
1577725595455,1.162285E7,1.1285329E7,0.0
1577725595505,1.1649436E7,1.1442104E7,0.0
1577725595554,1.168749E7,1.1664814E7,0.0
1577725595603,1.1739672E7,1.1778631E7,0.0
1577725595655,1.1792156E7,1.1827644E7,0.0
1577725595699,1.1843996E7,1.2358353E7,0.0
1577725595752,1.1807554E7,1.2466012E7,0.0
1577725595799,1.1824536E7,1.2477775E7,0.0
1577725595855,1.1795996E7,1.2459868E7,0.0
1577725595897,1.178517E7,1.2459723E7,0.0
1577725595948,1.1658145E7,1.2421058E7,0.0
1577725595996,1.1419164E7,1.2440024E7,0.0
1577725596046,1.1212259E7,1.2377458E7,0.0
1577725596092,1.0886395E7,1.2245084E7,0.0
1577725596144,1.0765918E7,1.2056876E7,0.0
1577725596195,1.0619057E7,1.183013E7,0.0
1577725596242,1.0678296E7,1.1900923E7,0.0
1577725596295,1.0906248E7,1.1994535E7,0.0
1577725596340,1.1061128E7,1.197982E7,0.0
1577725596394,1.1137602E7,1.1962699E7,0.0
1577725596438,1.1174552E7,1.1982547E7,0.0
1577725596489,1.1021167E7,1.1905222E7,0.0
1577725596537,1.0904274E7,1.1790755E7,0.0
1577725596587,1.0754196E7,1.1678989E7,0.0
1577725596635,1.0595712E7,1.1573265E7,0.0
1577725596685,1.0525625E7,1.1493534E7,0.0
1577725596735,1.0490446E7,1.1481277E7,0.0
1577725596784,1.0486515E7,1.1523822E7,0.0
1577725596834,1.0405148E7,1.145084E7,0.0
1577725596881,1.033543E7,1.1396824E7,0.0
1577725596934,1.0259414E7,1.134524E7,0.0
1577725596979,1.0207161E7,1.1308296E7,0.0
1577725597035,1.0305647E7,1.1323378E7,0.0
1577725597078,1.045632E7,1.1446492E7,0.0
1577725597129,1.0405194E7,1.149368E7,0.0
1577725597174,1.0546721E7,1.167597E7,0.0
1577725597226,1.1012207E7,1.2017059E7,0.0
1577725597275,1.0896829E7,1.1744896E7,0.0
1577725597328,1.0763482E7,1.1462042E7,0.0
1577725597376,1.0687306E7,1.1457694E7,0.0
1577725597421,1.067745E7,1.1381398E7,0.0
1577725597473,1.089244E7,1.156118E7,0.0
1577725597522,1.1356155E7,1.2003085E7,0.0
1577725597575,1.1531392E7,1.2165967E7,0.0
1577725597618,1.1530586E7,1.2248253E7,0.0
1577725597674,1.149295E7,1.2223223E7,0.0
1577725597718,1.1331703E7,1.2186893E7,0.0
1577725597769,1.1317066E7,1.2185494E7,0.0
1577725597824,1.1305327E7,1.2232752E7,0.0
1577725597868,1.1427389E7,1.2245084E7,0.0
1577725597916,1.1399242E7,1.2160436E7,0.0
1577725597966,1.1492054E7,1.2206644E7,0.0
1577725598015,1.1650882E7,1.2393939E7,0.0
1577725598065,1.1530083E7,1.2418507E7,0.0
1577725598113,1.1250407E7,1.2367095E7,0.0
1577725598163,1.0886949E7,1.2278982E7,0.0
1577725598214,1.0446715E7,1.2162648E7,0.0
1577725598261,1.0217525E7,1.2038382E7,0.0
1577725598316,1.0129011E7,1.1947568E7,0.0
1577725598361,1.011081E7,1.1873116E7,0.0
1577725598424,1.0136179E7,1.1820892E7,0.0
1577725598484,1.0201096E7,1.1845702E7,0.0
1577725598511,1.028214E7,1.1916199E7,0.0
1577725598557,1.0349423E7,1.1983973E7,0.0
1577725598608,1.0362475E7,1.20949E7,0.0
1577725598656,1.0344344E7,1.2182077E7,0.0
1577725598707,1.0288231E7,1.2220151E7,0.0
1577725598754,1.0306683E7,1.2251347E7,0.0
1577725598805,1.042477E7,1.215744E7,0.0
1577725598855,1.0651458E7,1.2226957E7,0.0
1577725598903,1.0758313E7,1.2175739E7,0.0
1577725598956,1.0897424E7,1.2042804E7,0.0
1577725599001,1.0914704E7,1.1897555E7,0.0
1577725599051,1.0886305E7,1.1940594E7,0.0
1577725599099,1.0681996E7,1.1989548E7,0.0
1577725599150,1.0665244E7,1.2103596E7,0.0
1577725599198,1.0539115E7,1.2204212E7,0.0
1577725599248,1.0390672E7,1.2025953E7,0.0
1577725599297,1.032256E7,1.1932411E7,0.0
1577725599346,1.0235515E7,1.1821559E7,0.0
1577725599393,1.0227105E7,1.1810158E7,0.0
1577725599444,1.0167981E7,1.1967293E7,0.0
1577725599498,1.0169637E7,1.203369E7,0.0
1577725599549,1.0271021E7,1.2140076E7,0.0
1577725599597,1.0292001E7,1.2155696E7,0.0
1577725599641,1.0096701E7,1.1880041E7,0.0
1577725599691,1.0031442E7,1.1702814E7,0.0
1577725599739,1.0053801E7,1.1707851E7,0.0
1577725599790,1.0061291E7,1.1757594E7,0.0
1577725599838,1.0074504E7,1.1674447E7,0.0
1577725599889,1.0249211E7,1.1725784E7,0.0
1577725599938,1.0419233E7,1.1804288E7,0.0
1577725599986,1.0692269E7,1.1968176E7,0.0
1577725600036,1.0897127E7,1.2164563E7,0.0
1577725600085,1.1030449E7,1.2443339E7,0.0
1577725600137,1.1115932E7,1.2693812E7,0.0
1577725600183,1.1225657E7,1.2814962E7,0.0
1577725600234,1.1405262E7,1.2866127E7,0.0
1577725600282,1.1568755E7,1.2928251E7,0.0
1577725600332,1.1705434E7,1.3015574E7,0.0
1577725600380,1.17476E7,1.2997667E7,0.0
1577725600431,1.1614298E7,1.2912873E7,0.0
1577725600479,1.1481207E7,1.2727048E7,0.0
1577725600529,1.1306083E7,1.2615137E7,0.0
1577725600577,1.1074799E7,1.2198241E7,0.0
1577725600627,1.0964294E7,1.1910528E7,0.0
1577725600676,1.0984518E7,1.1695938E7,0.0
1577725600725,1.1179515E7,1.1774468E7,0.0
1577725600777,1.1486951E7,1.2060932E7,0.0
1577725600823,1.1840231E7,1.2368838E7,0.0
1577725600873,1.2045522E7,1.2697842E7,0.0
1577725600921,1.2205869E7,1.2881381E7,0.0
1577725600971,1.2146101E7,1.2880918E7,0.0
1577725601019,1.2221749E7,1.2958119E7,0.0
1577725601070,1.230528E7,1.3056794E7,0.0
1577725601119,1.2457492E7,1.3252983E7,0.0
1577725601168,1.2592652E7,1.3418544E7,0.0
1577725601215,1.2741351E7,1.3423382E7,0.0
1577725601266,1.2525852E7,1.329995E7,0.0
1577725601315,1.2335013E7,1.3085753E7,0.0
1577725601364,1.2218855E7,1.3001255E7,0.0
1577725601414,1.2212649E7,1.3107614E7,0.0
1577725601463,1.2305808E7,1.318106E7,0.0
1577725601513,1.2586516E7,1.3284179E7,0.0
1577725601560,1.26299E7,1.3316356E7,0.0
1577725601611,1.2446137E7,1.3307983E7,0.0
1577725601656,1.2282091E7,1.3187915E7,0.0
1577725601716,1.2325524E7,1.3011597E7,0.0
1577725601761,1.2496854E7,1.3050601E7,0.0
1577725601814,1.2490487E7,1.3167134E7,0.0
1577725601859,1.1889474E7,1.3157406E7,0.0
1577725601904,1.1087025E7,1.300069E7,0.0
1577725601959,1.1167682E7,1.3012431E7,0.0
1577725602010,1.1482169E7,1.3007664E7,0.0
1577725602057,1.1637714E7,1.3102825E7,0.0
1577725602099,1.1790525E7,1.3207145E7,0.0
1577725602152,1.181224E7,1.3315742E7,0.0
1577725602198,1.1832877E7,1.3462585E7,0.0
1577725602247,1.1675379E7,1.3414881E7,0.0
1577725602299,1.1866632E7,1.3462488E7,0.0
1577725602355,1.2005264E7,1.3466195E7,0.0
1577725602402,1.1954939E7,1.3526254E7,0.0
1577725602453,1.1825271E7,1.3409231E7,0.0
1577725602501,1.164098E7,1.3427116E7,0.0
1577725602550,1.147112E7,1.3412449E7,0.0
1577725602597,1.1348963E7,1.343156E7,0.0
1577725602643,1.1278645E7,1.3267892E7,0.0
1577725602697,1.1076112E7,1.3001352E7,0.0
1577725602745,1.084494E7,1.2862053E7,0.0
1577725602793,1.0762884E7,1.2795484E7,0.0
1577725602842,1.0712353E7,1.2766768E7,0.0
1577725602897,1.0757367E7,1.2864066E7,0.0
1577725602942,1.0709367E7,1.2843113E7,0.0
1577725602995,1.0663291E7,1.284638E7,0.0
1577725603044,1.0600237E7,1.2644343E7,0.0
1577725603086,1.0575925E7,1.2562228E7,0.0
1577725603135,1.0748246E7,1.2444716E7,0.0
1577725603188,1.0730045E7,1.2355451E7,0.0
1577725603233,1.0880214E7,1.2219021E7,0.0
1577725603280,1.0807143E7,1.2111483E7,0.0
1577725603332,1.0613912E7,1.1989473E7,0.0
1577725603384,1.0459561E7,1.1903329E7,0.0
1577725603432,1.0265827E7,1.1846439E7,0.0
1577725603479,1.0074434E7,1.174467E7,0.0
1577725603530,9863465.0,1.167194E7,0.0
1577725603584,9760817.0,1.1622664E7,0.0
1577725603628,9602010.0,1.1609869E7,0.0
1577725603676,9534476.0,1.156344E7,0.0
1577725603726,9422934.0,1.1491173E7,0.0
1577725603775,9367671.0,1.1418932E7,0.0
1577725603830,9320749.0,1.1366316E7,0.0
1577725603878,9305121.0,1.1258089E7,0.0
1577725603922,9390075.0,1.1236303E7,0.0
1577725603975,9477784.0,1.1193904E7,0.0
1577725604022,9502670.0,1.1177547E7,0.0
1577725604073,9530409.0,1.1252638E7,0.0
1577725604121,9523538.0,1.1248361E7,0.0
1577725604171,9375781.0,1.1165581E7,0.0
1577725604222,9232966.0,1.1006433E7,0.0
1577725604272,9110305.0,1.0831664E7,0.0
1577725604313,9061037.0,1.0735496E7,0.0
1577725604361,9023145.0,1.0685042E7,0.0
1577725604413,8974889.0,1.0654878E7,0.0
1577725604464,9015217.0,1.0753182E7,0.0
1577725604514,9051825.0,1.0847042E7,0.0
1577725604563,8989254.0,1.0905233E7,0.0
1577725604613,8798988.0,1.0811153E7,0.0
1577725604661,8660492.0,1.0612259E7,0.0
1577725604717,8643303.0,1.0573228E7,0.0
1577725604762,8661735.0,1.0599437E7,0.0
1577725604813,8623521.0,1.0572318E7,0.0
1577725604863,8581491.0,1.0505136E7,0.0
1577725604909,8572370.0,1.0450732E7,0.0
1577725604958,8563385.0,1.0402215E7,0.0
1577725605006,8618855.0,1.0354365E7,0.0
1577725605057,8696064.0,1.0417765E7,0.0
1577725605100,8683726.0,1.044024E7,0.0
1577725605151,8671521.0,1.0518695E7,0.0
1577725605200,8669683.0,1.061135E7,0.0
1577725605256,8626968.0,1.0696072E7,0.0
1577725605302,8640247.0,1.0807666E7,0.0
1577725605354,8622302.0,1.09379E7,0.0
1577725605403,8656264.0,1.1026356E7,0.0
1577725605451,8758750.0,1.094802E7,0.0
1577725605501,8881275.0,1.098789E7,0.0
1577725605545,9035486.0,1.112655E7,0.0
1577725605598,9172257.0,1.1229325E7,0.0
1577725605643,9231702.0,1.1392503E7,0.0
1577725605700,9123014.0,1.1291965E7,0.0
1577725605741,8966342.0,1.1105694E7,0.0
1577725605794,8807143.0,1.0970447E7,0.0
1577725605844,8643625.0,1.089204E7,0.0
1577725605896,8670030.0,1.0952125E7,0.0
1577725605944,8631378.0,1.0957748E7,0.0
1577725605994,8809694.0,1.1090935E7,0.0
1577725606043,8966895.0,1.1249319E7,0.0
1577725606092,9008990.0,1.1219817E7,0.0
1577725606135,8893708.0,1.0989069E7,0.0
1577725606182,8763392.0,1.0852864E7,0.0
1577725606240,8653530.0,1.0838836E7,0.0
1577725606280,8642935.0,1.0888258E7,0.0
1577725606341,8582044.0,1.0863991E7,0.0
1577725606384,8452764.0,1.073272E7,0.0
1577725606436,8383574.0,1.0631397E7,0.0
1577725606489,8355010.0,1.0593862E7,0.0
1577725606533,8404046.0,1.0650284E7,0.0
1577725606584,8549962.0,1.0870792E7,0.0
1577725606632,8710841.0,1.1011667E7,0.0
1577725606682,8823390.0,1.1176368E7,0.0
1577725606725,8874496.0,1.1361995E7,0.0
1577725606775,8914456.0,1.1609304E7,0.0
1577725606821,8899840.0,1.148845E7,0.0
1577725606880,8813278.0,1.1212672E7,0.0
1577725606924,8837846.0,1.1243325E7,0.0
1577725606978,8874359.0,1.1360154E7,0.0
1577725607025,8998672.0,1.1471744E7,0.0
1577725607076,9087351.0,1.1580217E7,0.0
1577725607125,9201511.0,1.1716131E7,0.0
1577725607175,9318449.0,1.1852923E7,0.0
1577725607224,9457655.0,1.1983774E7,0.0
1577725607271,9471950.0,1.186371E7,0.0
1577725607322,9530429.0,1.175484E7,0.0
1577725607363,9604880.0,1.16742E7,0.0
1577725607420,9665110.0,1.1706818E7,0.0
1577725607462,9781223.0,1.1847079E7,0.0
1577725607520,9858729.0,1.1901537E7,0.0
1577725607565,9933435.0,1.1981148E7,0.0
1577725607618,1.0024501E7,1.2028014E7,0.0
1577725607665,1.0171978E7,1.2008955E7,0.0
1577725607716,1.0138636E7,1.1973852E7,0.0
1577725607764,1.0271434E7,1.1966976E7,0.0
1577725607813,1.0450989E7,1.1969699E7,0.0
1577725607863,1.0637072E7,1.2051107E7,0.0
1577725607905,1.0741929E7,1.2196572E7,0.0
1577725607962,1.092385E7,1.24553E7,0.0
1577725608005,1.1088379E7,1.2710002E7,0.0
1577725608055,1.1196841E7,1.2831152E7,0.0
1577725608103,1.127182E7,1.2937635E7,0.0
1577725608153,1.1226851E7,1.3052274E7,0.0
1577725608207,1.1165382E7,1.2981971E7,0.0
1577725608258,1.0962204E7,1.2968708E7,0.0
1577725608303,1.0975876E7,1.289558E7,0.0
1577725608348,1.1056507E7,1.286264E7,0.0
1577725608405,1.1103661E7,1.2896587E7,0.0
1577725608450,1.1103983E7,1.2943307E7,0.0
1577725608503,1.114716E7,1.2964065E7,0.0
1577725608544,1.1094515E7,1.2973744E7,0.0
1577725608601,1.094582E7,1.2953798E7,0.0
1577725608642,1.0909741E7,1.2914767E7,0.0
1577725608698,1.1182641E7,1.3090471E7,0.0
1577725608744,1.1322421E7,1.3208253E7,0.0
1577725608793,1.1543894E7,1.3304147E7,0.0
1577725608841,1.1694038E7,1.330206E7,0.0
1577725608892,1.1641554E7,1.3200613E7,0.0
1577725608940,1.1679744E7,1.3296216E7,0.0
1577725608992,1.1618114E7,1.3405056E7,0.0
1577725609043,1.1546628E7,1.3371674E7,0.0
1577725609085,1.0801697E7,1.3148782E7,0.0
1577725609136,1.041974E7,1.2921251E7,0.0
1577725609187,9985160.0,1.2687205E7,0.0
1577725609240,9802776.0,1.2566647E7,0.0
1577725609288,9667592.0,1.2472765E7,0.0
1577725609339,9548676.0,1.2380482E7,0.0
1577725609388,9544790.0,1.2358077E7,0.0
1577725609434,9695739.0,1.2384507E7,0.0
1577725609485,9923786.0,1.2478441E7,0.0
1577725609532,1.0121612E7,1.2637735E7,0.0
1577725609583,1.0247374E7,1.2785509E7,0.0
1577725609629,1.0269043E7,1.2828839E7,0.0
1577725609675,1.0203024E7,1.2701382E7,0.0
1577725609728,1.0226233E7,1.2633878E7,0.0
1577725609775,1.023023E7,1.2671832E7,0.0
1577725609826,1.0283313E7,1.2759816E7,0.0
1577725609873,1.0275038E7,1.2792832E7,0.0
1577725609922,1.031523E7,1.2847951E7,0.0
1577725609971,1.0344414E7,1.2905211E7,0.0
1577725610020,1.0384602E7,1.2928547E7,0.0
1577725610070,1.0403815E7,1.2999092E7,0.0
1577725610117,1.0395334E7,1.3053576E7,0.0
1577725610168,1.0441063E7,1.3150234E7,0.0
1577725610217,1.0475829E7,1.32111E7,0.0
1577725610267,1.0482473E7,1.320899E7,0.0
1577725610315,1.0498233E7,1.3213854E7,0.0
1577725610365,1.053013E7,1.3230949E7,0.0
1577725610414,1.0533115E7,1.3264379E7,0.0
1577725610462,1.055945E7,1.32873E7,0.0
1577725610512,1.0607983E7,1.330985E7,0.0
1577725610560,1.0633005E7,1.3365067E7,0.0
1577725610611,1.0687467E7,1.3393756E7,0.0
1577725610658,1.0711341E7,1.342004E7,0.0
1577725610708,1.0744249E7,1.34124E7,0.0
1577725610757,1.0721705E7,1.3379169E7,0.0
1577725610807,1.0720144E7,1.3309259E7,0.0
1577725610855,1.0785267E7,1.3263916E7,0.0
1577725610906,1.0833635E7,1.3223803E7,0.0
1577725610954,1.0920935E7,1.3234807E7,0.0
1577725611004,1.1030036E7,1.3163299E7,0.0
1577725611053,1.0955586E7,1.3089218E7,0.0
1577725611101,1.0841703E7,1.322262E7,0.0
1577725611151,1.0757045E7,1.3243723E7,0.0
1577725611199,1.0673403E7,1.3084822E7,0.0
1577725611250,1.0661318E7,1.3004129E7,0.0
1577725611298,1.0653506E7,1.2935671E7,0.0
1577725611348,1.0631973E7,1.2843528E7,0.0
1577725611396,1.067074E7,1.280256E7,0.0
1577725611446,1.0664051E7,1.287168E7,0.0
1577725611495,1.0677173E7,1.28198E7,0.0
1577725611544,1.0761368E7,1.2825255E7,0.0
1577725611594,1.0906595E7,1.2875047E7,0.0
1577725611642,1.0981231E7,1.2860084E7,0.0
1577725611693,1.1069514E7,1.2842893E7,0.0
1577725611741,1.1106122E7,1.2749206E7,0.0
1577725611796,1.1162487E7,1.2807816E7,0.0
1577725611846,1.1266836E7,1.2917662E7,0.0
1577725611890,1.1342942E7,1.2997398E7,0.0
1577725611945,1.1463329E7,1.3063918E7,0.0
1577725611990,1.1515994E7,1.3102825E7,0.0
1577725612043,1.1622689E7,1.3143357E7,0.0
1577725612090,1.1711706E7,1.3163449E7,0.0
1577725612135,1.1750796E7,1.320884E7,0.0
1577725612188,1.1493293E7,1.3343721E7,0.0
1577725612239,1.1495015E7,1.3272315E7,0.0
1577725612290,1.1576154E7,1.3404566E7,0.0
1577725612336,1.15424E7,1.3390146E7,0.0
1577725612386,1.151995E7,1.3369489E7,0.0
1577725612429,1.1546673E7,1.3381155E7,0.0
1577725612485,1.1539274E7,1.3380519E7,0.0
1577725612527,1.1557082E7,1.3346891E7,0.0
1577725612583,1.160929E7,1.3365411E7,0.0
1577725612629,1.1711454E7,1.3412228E7,0.0
1577725612682,1.1759549E7,1.3470494E7,0.0
1577725612731,1.1814928E7,1.3435392E7,0.0
1577725612780,1.1931986E7,1.3398598E7,0.0
1577725612829,1.212788E7,1.3499727E7,0.0
1577725612877,1.2234962E7,1.3475138E7,0.0
1577725612921,1.2407395E7,1.3499603E7,0.0
1577725612969,1.2446922E7,1.3525049E7,0.0
1577725613026,1.2392898E7,1.3446964E7,0.0
1577725613067,1.2277978E7,1.3360869E7,0.0
1577725613124,1.211214E7,1.3299778E7,0.0
1577725613173,1.1976654E7,1.3316259E7,0.0
1577725613216,1.1744957E7,1.3264723E7,0.0
1577725613273,1.1568161E7,1.3151585E7,0.0
1577725613321,1.1457701E7,1.3000249E7,0.0
1577725613371,1.153955E7,1.3067281E7,0.0
1577725613418,1.1563264E7,1.3053157E7,0.0
1577725613468,1.1475877E7,1.2916753E7,0.0
1577725613510,1.159649E7,1.2784723E7,0.0
1577725613566,1.1792524E7,1.298944E7,0.0
1577725613609,1.2133557E7,1.3186193E7,0.0
1577725613663,1.2219499E7,1.3308817E7,0.0
1577725613711,1.2257527E7,1.3317093E7,0.0
1577725613763,1.2410454E7,1.3353374E7,0.0
1577725613813,1.2092288E7,1.3165585E7,0.0
1577725613862,1.2037528E7,1.3230459E7,0.0
1577725613911,1.1926676E7,1.3219332E7,0.0
1577725613958,1.1934005E7,1.3221124E7,0.0
1577725614009,1.1914681E7,1.3271997E7,0.0
1577725614051,1.2008551E7,1.3310878E7,0.0
1577725614107,1.1974796E7,1.3258363E7,0.0
1577725614155,1.1965419E7,1.3203389E7,0.0
1577725614196,1.1984582E7,1.321449E7,0.0
1577725614250,1.2049866E7,1.3221468E7,0.0
1577725614296,1.2085805E7,1.3271799E7,0.0
1577725614348,1.2181698E7,1.3281037E7,0.0
1577725614397,1.2194357E7,1.3302995E7,0.0
1577725614449,1.2197689E7,1.3324905E7,0.0
1577725614498,1.2160763E7,1.3324168E7,0.0
1577725614550,1.2219152E7,1.3331561E7,0.0
1577725614592,1.2201827E7,1.3342887E7,0.0
1577725614642,1.2189373E7,1.3353595E7,0.0
1577725614690,1.2187003E7,1.3357453E7,0.0
1577725614746,1.2142034E7,1.3380272E7,0.0
1577725614792,1.2195414E7,1.3393046E7,0.0
1577725614844,1.2163637E7,1.3388429E7,0.0
1577725614894,1.2161589E7,1.3412082E7,0.0
1577725614940,1.2138334E7,1.3407929E7,0.0
1577725614992,1.2156535E7,1.3420433E7,0.0
1577725615035,1.2125398E7,1.3441487E7,0.0
1577725615089,1.210844E7,1.3424264E7,0.0
1577725615134,1.2038011E7,1.3367009E7,0.0
1577725615188,1.2125696E7,1.3443522E7,0.0
1577725615233,1.2090264E7,1.3528809E7,0.0
1577725615286,1.1963581E7,1.3463247E7,0.0
1577725615335,1.1614484E7,1.3271552E7,0.0
1577725615383,1.1544745E7,1.2988702E7,0.0
1577725615428,1.1514202E7,1.284687E7,0.0
1577725615481,1.1504301E7,1.2893885E7,0.0
1577725615533,1.1497546E7,1.2859643E7,0.0
1577725615574,1.1321133E7,1.279104E7,0.0
1577725615629,1.1325179E7,1.2870377E7,0.0
1577725615680,1.1265457E7,1.2779811E7,0.0
1577725615729,1.1270973E7,1.277733E7,0.0
1577725615773,1.1260494E7,1.287318E7,0.0
1577725615828,1.1120734E7,1.2941245E7,0.0
1577725615874,1.0965718E7,1.2968289E7,0.0
1577725615924,1.0873021E7,1.2853724E7,0.0
1577725615974,1.0737862E7,1.2708775E7,0.0
1577725616023,1.0580248E7,1.254464E7,0.0
1577725616074,1.0441707E7,1.2439115E7,0.0
1577725616116,1.046326E7,1.2403764E7,0.0
1577725616166,1.0588036E7,1.230998E7,0.0
1577725616214,1.063381E7,1.2233344E7,0.0
1577725616270,1.0572804E7,1.2113646E7,0.0
1577725616312,1.0384123E7,1.1863856E7,0.0
1577725616361,1.0372814E7,1.1889721E7,0.0
1577725616417,1.0636593E7,1.210394E7,0.0
1577725616461,1.0944693E7,1.2366772E7,0.0
1577725616517,1.108105E7,1.2395144E7,0.0
1577725616563,1.1252727E7,1.2501137E7,0.0
1577725616612,1.140193E7,1.2640194E7,0.0
1577725616663,1.1520846E7,1.271838E7,0.0
1577725616714,1.1653227E7,1.2839746E7,0.0
1577725616754,1.1768947E7,1.3050036E7,0.0
1577725616811,1.1835495E7,1.3194151E7,0.0
1577725616854,1.1761341E7,1.3255145E7,0.0
1577725616907,1.1716694E7,1.328278E7,0.0
1577725616958,1.1683604E7,1.3345319E7,0.0
1577725617008,1.1768604E7,1.3530897E7,0.0
1577725617057,1.1778782E7,1.363328E7,0.0
1577725617100,1.183106E7,1.3817652E7,0.0
1577725617150,1.1806567E7,1.3699111E7,0.0
1577725617201,1.1756288E7,1.3614658E7,0.0
1577725617247,1.1699484E7,1.3546888E7,0.0
1577725617296,1.1531532E7,1.3452221E7,0.0
1577725617354,1.1377548E7,1.3293612E7,0.0
1577725617395,1.1204446E7,1.3094179E7,0.0
1577725617449,1.107264E7,1.2929553E7,0.0
1577725617495,1.0987045E7,1.2798331E7,0.0
1577725617549,1.1052808E7,1.2699784E7,0.0
1577725617597,1.1262724E7,1.2562498E7,0.0
1577725617640,1.1531115E7,1.2396446E7,0.0
1577725617688,1.1552028E7,1.2355769E7,0.0
1577725617738,1.1515169E7,1.2365276E7,0.0
1577725617789,1.1529463E7,1.2412292E7,0.0
1577725617837,1.1652975E7,1.2386326E7,0.0
1577725617887,1.1693691E7,1.2475908E7,0.0
1577725617936,1.1776924E7,1.255002E7,0.0
1577725617985,1.1829797E7,1.2558102E7,0.0
1577725618036,1.1869918E7,1.2548104E7,0.0
1577725618084,1.1901766E7,1.2525232E7,0.0
1577725618135,1.1927089E7,1.249637E7,0.0
1577725618182,1.1970014E7,1.2470704E7,0.0
1577725618235,1.202197E7,1.2442774E7,0.0
1577725618278,1.2050052E7,1.2456258E7,0.0
1577725618331,1.2081094E7,1.2495342E7,0.0
1577725618378,1.2141989E7,1.2614324E7,0.0
1577725618429,1.2215613E7,1.2730659E7,0.0
1577725618477,1.2284688E7,1.283896E7,0.0
1577725618527,1.2340851E7,1.2903269E7,0.0
1577725618577,1.2273267E7,1.2869495E7,0.0
1577725618625,1.2222715E7,1.2703174E7,0.0
1577725618674,1.2287376E7,1.2517225E7,0.0
1577725618723,1.247739E7,1.2337249E7,0.0
1577725618775,1.2940717E7,1.2175373E7,0.0
1577725618822,1.3310951E7,1.1920401E7,0.0
1577725618871,1.3741208E7,1.1320898E7,0.0
1577725618918,1.4112573E7,1.090398E7,0.0
1577725618971,1.4808972E7,1.0547314E7,0.0
1577725619018,1.6463254E7,1.0209588E7,0.0
1577725619067,1.5708816E7,1.0039852E7,0.0
1577725619116,1.5347033E7,9919589.0,0.0
1577725619165,1.4993897E7,9836442.0,0.0
1577725619213,1.4698022E7,9891809.0,0.0
1577725619265,1.4527371E7,9992297.0,0.0
1577725619315,1.4375485E7,1.0066824E7,0.0
1577725619359,1.4410946E7,1.0150806E7,0.0
1577725619412,1.4315525E7,1.0073405E7,0.0
1577725619458,1.4279568E7,1.0101949E7,0.0
1577725619510,1.4365206E7,1.0121158E7,0.0
1577725619558,1.4713293E7,1.03552E7,0.0
1577725619609,1.4888375E7,1.0446777E7,0.0
1577725619654,1.4650451E7,1.0388978E7,0.0
1577725619707,1.4465858E7,1.0316513E7,0.0
1577725619756,1.4320823E7,1.0237616E7,0.0
1577725619813,1.406041E7,1.0186866E7,0.0
1577725619862,1.3869779E7,1.0089396E7,0.0
1577725619909,1.3702533E7,1.003241E7,0.0
1577725619958,1.3595186E7,1.0000083E7,0.0
1577725620001,1.3467648E7,9988219.0,0.0
1577725620049,1.3334683E7,9973923.0,0.0
1577725620098,1.3199521E7,9967315.0,0.0
1577725620153,1.3064114E7,9904604.0,0.0
1577725620202,1.2951501E7,9852601.0,0.0
1577725620248,1.2831888E7,9805590.0,0.0
1577725620296,1.2730395E7,9756018.0,0.0
1577725620353,1.2640578E7,9703525.0,0.0
1577725620396,1.2563272E7,9651769.0,0.0
1577725620451,1.2373325E7,9527084.0,0.0
1577725620498,1.235973E7,9603676.0,0.0
1577725620549,1.2363291E7,9751229.0,0.0
1577725620594,1.2396121E7,9883528.0,0.0
1577725620639,1.2353563E7,9971195.0,0.0
1577725620692,1.212239E7,9996791.0,0.0
1577725620742,1.2024492E7,1.005044E7,0.0
1577725620796,1.1855137E7,1.0080948E7,0.0
1577725620838,1.1752186E7,1.0086254E7,0.0
1577725620893,1.1641121E7,1.0073233E7,0.0
1577725620941,1.1561588E7,1.0058081E7,0.0
1577725620991,1.1462416E7,9935284.0,0.0
1577725621042,1.1366127E7,9764983.0,0.0
1577725621089,1.1250354E7,9624209.0,0.0
1577725621134,1.1175774E7,9550274.0,0.0
1577725621186,1.1081805E7,9482774.0,0.0
1577725621235,1.0992762E7,9390486.0,0.0
1577725621283,1.0892722E7,9303260.0,0.0
1577725621335,1.0826228E7,9231558.0,0.0
1577725621376,1.075171E7,9170025.0,0.0
1577725621433,1.0669478E7,9116504.0,0.0
1577725621482,1.0576133E7,9072114.0,0.0
1577725621525,1.049344E7,9041041.0,0.0
1577725621582,1.0433074E7,9009355.0,0.0
1577725621630,1.0375963E7,8979460.0,0.0
1577725621676,1.0334708E7,8968973.0,0.0
1577725621726,1.0270163E7,8935441.0,0.0
1577725621773,1.0239003E7,8915129.0,0.0
1577725621818,1.024384E7,8916899.0,0.0
1577725621876,1.0232904E7,8907515.0,0.0
1577725621918,1.0163311E7,8862684.0,0.0
1577725621974,1.0079437E7,8826946.0,0.0
1577725622021,1.0001858E7,8769712.0,0.0
1577725622072,9958121.0,8751902.0,0.0
1577725622121,9966363.0,8704397.0,0.0
1577725622163,9460428.0,8686539.0,0.0
1577725622211,9375112.0,8576887.0,0.0
1577725622261,9228748.0,8417615.0,0.0
1577725622316,9160861.0,8465809.0,0.0
1577725622363,9042184.0,8547460.0,0.0
1577725622414,8983726.0,8636380.0,0.0
1577725622459,8937779.0,8744827.0,0.0
1577725622515,8907362.0,8826257.0,0.0
1577725622563,8900070.0,8901446.0,0.0
1577725622613,8883404.0,8947332.0,0.0
1577725622661,8875067.0,8968381.0,0.0
1577725622705,8858777.0,9002381.0,0.0
1577725622760,8851963.0,9011049.0,0.0
1577725622807,8837337.0,9022375.0,0.0
1577725622854,8795144.0,9011517.0,0.0
1577725622904,8715170.0,9019895.0,0.0
1577725622953,8660936.0,9017140.0,0.0
1577725622997,8554892.0,9009231.0,0.0
1577725623052,8376614.0,9052442.0,0.0
1577725623103,8210850.0,9255410.0,0.0
1577725623146,8209378.0,9417507.0,0.0
1577725623202,8186513.0,9475795.0,0.0
1577725623251,8211349.0,9552238.0,0.0
1577725623297,8278903.0,9420133.0,0.0
1577725623341,8280473.0,9385820.0,0.0
1577725623391,8435549.0,9479137.0,0.0
1577725623438,8581320.0,9670439.0,0.0
1577725623491,8621589.0,9754129.0,0.0
1577725623539,8655974.0,9672059.0,0.0
1577725623591,8664332.0,9607507.0,0.0
1577725623637,8630613.0,9439465.0,0.0
1577725623687,8638570.0,9371987.0,0.0
1577725623741,8705126.0,9422640.0,0.0
1577725623792,8782510.0,9421585.0,0.0
1577725623840,8697028.0,9262163.0,0.0
1577725623887,8629120.0,9160006.0,0.0
1577725623937,8568567.0,9060718.0,0.0
1577725623987,8611618.0,9013358.0,0.0
1577725624034,8669533.0,9032911.0,0.0
1577725624081,8669201.0,9048756.0,0.0
1577725624131,8691259.0,9101960.0,0.0
1577725624181,8736328.0,9117360.0,0.0
1577725624234,8765461.0,9087271.0,0.0
1577725624279,8763682.0,9040723.0,0.0
1577725624332,8809177.0,9055779.0,0.0
1577725624383,8808439.0,8997000.0,0.0
1577725624424,8794880.0,8927607.0,0.0
1577725624475,8813926.0,8875727.0,0.0
1577725624523,8815918.0,8831982.0,0.0
1577725624574,8814946.0,8811369.0,0.0
1577725624624,8815705.0,8794151.0,0.0
1577725624669,8808584.0,8775017.0,0.0
1577725624721,8788637.0,8735616.0,0.0
1577725624769,8743662.0,8696315.0,0.0
1577725624820,8718353.0,8655713.0,0.0
1577725624867,8682141.0,8620120.0,0.0
1577725624915,8649514.0,8584990.0,0.0
1577725624964,8627123.0,8558318.0,0.0
1577725625015,8602261.0,8529059.0,0.0
1577725625063,8578397.0,8500396.0,0.0
1577725625113,8526634.0,8476226.0,0.0
1577725625162,8485222.0,8440187.0,0.0
1577725625211,8457036.0,8419310.0,0.0
1577725625259,8440678.0,8388285.0,0.0
1577725625311,8422562.0,8372343.0,0.0
1577725625360,8410141.0,8342227.0,0.0
1577725625408,8395541.0,8324369.0,0.0
1577725625456,8375641.0,8300274.0,0.0
1577725625506,8360209.0,8282465.0,0.0
1577725625555,8354961.0,8269620.0,0.0
1577725625604,8324637.0,8246898.0,0.0
1577725625653,8284458.0,8214647.0,0.0
1577725625703,8240533.0,8174556.0,0.0
1577725625752,8203396.0,8138791.0,0.0
1577725625800,8184874.0,8108310.0,0.0
1577725625851,8166067.0,8079841.0,0.0
1577725625900,8142276.0,8055203.0,0.0
1577725625949,8113211.0,8033487.0,0.0
1577725625997,8089634.0,8011873.0,0.0
1577725626047,8079185.0,7991238.0,0.0
1577725626096,8060189.0,7975887.0,0.0
1577725626145,8037845.0,7959428.0,0.0
1577725626195,8024763.0,7948349.0,0.0
1577725626244,8016307.0,7367967.0,0.0
1577725626293,8009186.0,7529264.0,0.0
1577725626342,7993301.0,7513669.0,0.0
1577725626392,7985915.0,7503754.0,0.0
1577725626441,7980147.0,7495091.0,0.0
1577725626491,7975564.0,7486159.0,0.0
1577725626538,7960273.0,7481018.0,0.0
1577725626588,7943837.0,7464499.0,0.0
1577725626636,7906820.0,7433136.0,0.0
1577725626687,7880298.0,7408491.0,0.0
1577725626738,7866905.0,7386738.0,0.0
1577725626783,7851067.0,7360920.0,0.0
1577725626837,7834990.0,7348597.0,0.0
1577725626887,7812983.0,7333618.0,0.0
1577725626939,7768128.0,7338046.0,0.0
1577725626984,7730466.0,7500595.0,0.0
1577725627035,7727402.0,7725948.0,0.0
1577725627088,7813597.0,8076076.0,0.0
1577725627130,7904115.0,8133144.0,0.0
1577725627183,7942178.0,8070130.0,0.0
1577725627231,7963571.0,8004978.0,0.0
1577725627281,7971242.0,7944313.0,0.0
1577725627328,7965661.0,7953708.0,0.0
1577725627380,7986222.0,7911776.0,0.0
1577725627422,7969245.0,7862835.0,0.0
1577725627479,7977629.0,7839944.0,0.0
1577725627524,7954880.0,7822827.0,0.0
1577725627578,7895756.0,7788789.0,0.0
1577725627625,7840477.0,7750825.0,0.0
1577725627669,7773469.0,7712300.0,0.0
1577725627724,7687274.0,7683033.0,0.0
1577725627772,7651754.0,7680110.0,0.0
1577725627824,7623091.0,7678605.0,0.0
1577725627869,7013157.0,7666113.0,0.0
1577725627920,6984089.0,7697743.0,0.0
1577725627968,6967721.0,7722752.0,0.0
1577725628020,6935059.0,7796393.0,0.0
1577725628062,6912016.0,7848510.0,0.0
1577725628119,6902489.0,7938248.0,0.0
1577725628163,6938889.0,8058288.0,0.0
1577725628213,6989465.0,8103724.0,0.0
1577725628266,7117209.0,8082470.0,0.0
1577725628317,7251539.0,8001013.0,0.0
1577725628364,7318108.0,7957829.0,0.0
1577725628406,7389753.0,8025233.0,0.0
1577725628462,7458067.0,8073575.0,0.0
1577725628503,7448326.0,8094425.0,0.0
1577725628562,7403001.0,8019687.0,0.0
1577725628603,7354118.0,7957673.0,0.0
1577725628658,7284307.0,7879026.0,0.0
1577725628706,7238022.0,7849454.0,0.0
1577725628755,7211219.0,7848454.0,0.0
1577725628806,7178985.0,7874328.0,0.0
1577725628855,7231308.0,7900841.0,0.0
1577725628903,7315046.0,7943600.0,0.0
1577725628947,7436608.0,8020400.0,0.0
1577725629002,7552809.0,8101088.0,0.0
1577725629044,7610579.0,8169665.0,0.0
1577725629101,7653072.0,8207283.0,0.0
1577725629143,7692572.0,8246656.0,0.0
1577725629198,7719676.0,8276940.0,0.0
1577725629246,7733033.0,8298890.0,0.0
1577725629292,7772390.0,8323974.0,0.0
1577725629338,7779244.0,8339587.0,0.0
1577725629391,7813136.0,8352141.0,0.0
1577725629436,7834614.0,8361344.0,0.0
1577725629490,7848451.0,8373261.0,0.0
1577725629537,7852832.0,8369968.0,0.0
1577725629587,7857657.0,8373320.0,0.0
1577725629634,7874096.0,8377651.0,0.0
1577725629685,7867772.0,8365232.0,0.0
1577725629734,7889590.0,8364675.0,0.0
1577725629787,7949763.0,8363616.0,0.0
1577725629839,7933523.0,8356725.0,0.0
1577725629887,7918188.0,8347789.0,0.0
1577725629935,7901200.0,8380519.0,0.0
1577725629985,7888841.0,8424378.0,0.0
1577725630032,7896624.0,8472856.0,0.0
1577725630083,7916140.0,8502216.0,0.0
1577725630128,7932524.0,8567811.0,0.0
1577725630183,7930016.0,8609760.0,0.0
1577725630226,7956105.0,8635962.0,0.0
1577725630281,7972364.0,8646438.0,0.0
1577725630329,7995513.0,8622100.0,0.0
1577725630379,8003011.0,8557318.0,0.0
1577725630424,7994518.0,8530400.0,0.0
1577725630478,7970067.0,8495477.0,0.0
1577725630526,8000553.0,8495536.0,0.0
1577725630574,7923548.0,8478574.0,0.0
1577725630624,7860384.0,8415868.0,0.0
1577725630666,7810908.0,8388874.0,0.0
1577725630715,7798480.0,8409551.0,0.0
1577725630765,7757840.0,8419238.0,0.0
1577725630821,7752659.0,8416387.0,0.0
1577725630867,7750592.0,8413713.0,0.0
1577725630920,7775968.0,8395461.0,0.0
1577725630968,7773974.0,8404490.0,0.0
1577725631017,7762166.0,8406164.0,0.0
1577725631066,7751180.0,8397135.0,0.0
1577725631113,7745267.0,8415657.0,0.0
1577725631158,7746051.0,8501967.0,0.0
1577725631206,7743238.0,8563497.0,0.0
1577725631264,7750412.0,8612168.0,0.0
1577725631306,7742025.0,8662455.0,0.0
1577725631361,7748240.0,8728665.0,0.0
1577725631409,7845068.0,8777914.0,0.0
1577725631459,7880256.0,8785885.0,0.0
1577725631509,7872313.0,8762492.0,0.0
1577725631556,7878531.0,8733363.0,0.0
1577725631607,7921590.0,8802518.0,0.0
1577725631651,8023350.0,8923118.0,0.0
1577725631706,8071254.0,8997971.0,0.0
1577725631747,8149577.0,9303936.0,0.0
1577725631804,8304710.0,9741547.0,0.0
1577725631847,8400022.0,9932512.0,0.0
1577725631902,8569222.0,1.0037711E7,0.0
1577725631948,8699296.0,1.0089828E7,0.0
1577725632001,8668595.0,1.0046623E7,0.0
1577725632049,8689075.0,1.0099009E7,0.0
1577725632098,8701542.0,1.0157692E7,0.0
1577725632141,8688790.0,1.0203225E7,0.0
1577725632191,8654313.0,1.0206557E7,0.0
1577725632245,8649184.0,1.0172191E7,0.0
1577725632296,8639443.0,1.0140326E7,0.0
1577725632343,8618713.0,1.0114643E7,0.0
1577725632388,8586854.0,1.0084185E7,0.0
1577725632441,8579852.0,1.0108734E7,0.0
1577725632491,8549382.0,1.0096411E7,0.0
1577725632541,8553603.0,1.0146162E7,0.0
1577725632585,8552838.0,1.0172806E7,0.0
1577725632634,8563344.0,1.0227386E7,0.0
1577725632688,8577769.0,1.02626E7,0.0
1577725632730,8588704.0,1.0307556E7,0.0
1577725632786,8602560.0,1.0357189E7,0.0
1577725632828,8627990.0,1.0413754E7,0.0
1577725632882,8670784.0,1.0489184E7,0.0
1577725632928,8724192.0,1.0551389E7,0.0
1577725632983,8763888.0,1.0627535E7,0.0
1577725633031,8799558.0,1.0666734E7,0.0
1577725633080,8826307.0,1.0665752E7,0.0
1577725633124,8851347.0,1.0689259E7,0.0
1577725633179,8877686.0,1.0676147E7,0.0
1577725633224,8936064.0,1.066086E7,0.0
1577725633276,8988777.0,1.0553662E7,0.0
1577725633327,9038944.0,1.0335761E7,0.0
1577725633369,9023558.0,1.0188941E7,0.0
1577725633425,8993104.0,1.0107347E7,0.0
1577725633471,8945040.0,1.0059679E7,0.0
1577725633516,8878326.0,9981972.0,0.0
1577725633568,8833468.0,9987712.0,0.0
1577725633616,8814038.0,9991005.0,0.0
1577725633665,8820502.0,1.0038133E7,0.0
1577725633715,8860947.0,1.0062913E7,0.0
1577725633768,8856867.0,1.0097989E7,0.0
1577725633818,8785062.0,1.014439E7,0.0
1577725633868,8771420.0,1.0225982E7,0.0
1577725633909,8762038.0,1.03126E7,0.0
1577725633965,8786934.0,1.045268E7,0.0
1577725634010,8799168.0,1.0552852E7,0.0
1577725634064,8783548.0,1.0613863E7,0.0
1577725634110,8825276.0,1.0682655E7,0.0
1577725634155,8844118.0,1.0748288E7,0.0
1577725634213,8842764.0,1.0803618E7,0.0
1577725634262,8866252.0,1.0819694E7,0.0
1577725634309,8887536.0,1.0809472E7,0.0
1577725634352,8917043.0,1.0783384E7,0.0
1577725634410,8937078.0,1.0743839E7,0.0
1577725634451,8964540.0,1.0730419E7,0.0
1577725634501,8970540.0,1.0702889E7,0.0
1577725634549,8968422.0,1.0641338E7,0.0
1577725634599,8901443.0,1.0530079E7,0.0
1577725634649,8857600.0,1.043137E7,0.0
1577725634703,8870368.0,1.0324497E7,0.0
1577725634753,8866697.0,1.0238688E7,0.0
1577725634799,8873091.0,1.0186592E7,0.0
1577725634851,8887052.0,1.0157768E7,0.0
1577725634894,8918396.0,1.0144197E7,0.0
1577725634949,8947888.0,1.0122267E7,0.0
1577725634991,8965894.0,1.0102842E7,0.0
1577725635045,8987779.0,1.0085514E7,0.0
1577725635092,9042790.0,1.0094948E7,0.0
1577725635139,9061097.0,1.0110986E7,0.0
1577725635190,9099334.0,1.0131085E7,0.0
1577725635242,9151139.0,1.0128622E7,0.0
1577725635293,9183392.0,1.0117472E7,0.0
1577725635339,9160825.0,1.0084801E7,0.0
1577725635393,9132512.0,1.0064086E7,0.0
1577725635432,9126508.0,1.0063183E7,0.0
1577725635490,9090678.0,1.0036037E7,0.0
1577725635531,9025872.0,1.0012969E7,0.0
1577725635587,8898880.0,9986307.0,0.0
1577725635633,8751993.0,9934671.0,0.0
1577725635685,8675129.0,9834229.0,0.0
1577725635732,8650038.0,9775394.0,0.0
1577725635781,8625372.0,9750424.0,0.0
1577725635834,8605961.0,9757083.0,0.0
1577725635879,8586176.0,9745705.0,0.0
1577725635930,8569472.0,9722911.0,0.0
1577725635972,8577129.0,9708665.0,0.0
1577725636030,8581616.0,9697729.0,0.0
1577725636072,8594313.0,9702251.0,0.0
1577725636127,8600208.0,9722603.0,0.0
1577725636175,8608240.0,9725740.0,0.0
1577725636219,8611142.0,9767306.0,0.0
1577725636275,8618873.0,9832209.0,0.0
1577725636322,8631500.0,9898437.0,0.0
1577725636374,8639958.0,9946281.0,0.0
1577725636416,8664054.0,9998145.0,0.0
1577725636473,8700633.0,1.0040347E7,0.0
1577725636514,8726153.0,1.0061315E7,0.0
1577725636568,8749356.0,1.0058848E7,0.0
1577725636614,8768108.0,1.0050802E7,0.0
1577725636669,8762928.0,1.0044775E7,0.0
1577725636716,8748716.0,1.0072769E7,0.0
1577725636764,8778777.0,1.0164777E7,0.0
1577725636817,8813219.0,1.0223152E7,0.0
1577725636858,8867091.0,1.0302318E7,0.0
1577725636915,8921817.0,1.0317356E7,0.0
1577725636955,8987868.0,1.0401048E7,0.0
1577725637012,9014992.0,1.0516313E7,0.0
1577725637055,9018803.0,1.0432487E7,0.0
1577725637104,9103769.0,1.051356E7,0.0
1577725637156,9174380.0,1.0541571E7,0.0
1577725637210,9242051.0,1.0563846E7,0.0
1577725637256,9263120.0,1.0448121E7,0.0
1577725637305,9259897.0,1.0394271E7,0.0
1577725637357,9260358.0,1.0337397E7,0.0
1577725637398,9237209.0,1.0377056E7,0.0
1577725637452,9221734.0,1.0414775E7,0.0
1577725637503,9215801.0,1.043878E7,0.0
1577725637554,9209408.0,1.0444056E7,0.0
1577725637594,9221075.0,1.047929E7,0.0
1577725637645,9212953.0,1.0486489E7,0.0
1577725637694,9180256.0,1.0441323E7,0.0
1577725637751,9191795.0,1.0461443E7,0.0
1577725637793,9490268.0,1.051348E7,0.0
1577725637848,9823916.0,1.0485334E7,0.0
1577725637897,9839996.0,1.0455704E7,0.0
1577725637942,9692006.0,1.0479038E7,0.0
1577725637993,9478729.0,1.0508609E7,0.0
1577725638039,9352307.0,1.0595227E7,0.0
1577725638087,9333072.0,1.0673394E7,0.0
1577725638136,9359286.0,1.0698039E7,0.0
1577725638193,9377452.0,1.0705217E7,0.0
1577725638234,9403702.0,1.0722508E7,0.0
1577725638291,9428368.0,1.0719387E7,0.0
1577725638334,9489040.0,1.0737331E7,0.0
1577725638388,9523216.0,1.0748806E7,0.0
1577725638437,9592528.0,1.0752425E7,0.0
1577725638485,9648304.0,1.0781806E7,0.0
1577725638532,9671686.0,1.0784425E7,0.0
1577725638585,9657654.0,1.0801847E7,0.0
1577725638629,9591548.0,1.0774932E7,0.0
1577725638675,9600345.0,1.0684059E7,0.0
1577725638733,9536128.0,1.0619796E7,0.0
1577725638774,9504268.0,1.0575187E7,0.0
1577725638831,9493939.0,1.0540533E7,0.0
1577725638874,9481542.0,1.0521337E7,0.0
1577725638929,9524800.0,1.0519354E7,0.0
1577725638981,9573347.0,1.0524128E7,0.0
1577725639025,9631545.0,1.0552198E7,0.0
1577725639073,9737952.0,1.0639086E7,0.0
1577725639125,9917091.0,1.0711168E7,0.0
1577725639170,1.0060076E7,1.0703986E7,0.0
1577725639217,1.0108214E7,1.0887887E7,0.0
1577725639274,1.0156403E7,1.1049648E7,0.0
1577725639316,1.0140947E7,1.1147627E7,0.0
1577725639372,1.017831E7,1.119774E7,0.0
1577725639413,1.0181388E7,1.1246066E7,0.0
1577725639470,1.019886E7,1.1249722E7,0.0
1577725639514,1.0185894E7,1.1290094E7,0.0
1577725639560,1.015359E7,1.1319513E7,0.0
1577725639610,1.011304E7,1.1314487E7,0.0
1577725639660,9991068.0,1.1321631E7,0.0
1577725639711,9799875.0,1.1759298E7,0.0
1577725639759,9597068.0,1.1654375E7,0.0
1577725639810,9363577.0,1.1520384E7,0.0
1577725639857,9019747.0,1.1338624E7,0.0
1577725639913,8596361.0,1.1158858E7,0.0
1577725639960,8401286.0,1.1085117E7,0.0
1577725640010,8387430.0,1.1128547E7,0.0
1577725640056,8442550.0,1.1108624E7,0.0
1577725640109,8456921.0,1.1011447E7,0.0
1577725640152,8455763.0,1.0964434E7,0.0
1577725640206,8458880.0,1.0895838E7,0.0
1577725640253,8462387.0,1.0833428E7,0.0
1577725640304,8456707.0,1.0748936E7,0.0
1577725640356,8445168.0,1.0690869E7,0.0
1577725640408,8448140.0,1.064135E7,0.0
1577725640450,8430368.0,1.0589324E7,0.0
1577725640499,8425772.0,1.0556395E7,0.0
1577725640553,8408195.0,1.0500579E7,0.0
1577725640599,8376441.0,1.043757E7,0.0
1577725640644,8351724.0,1.0375527E7,0.0
1577725640700,8329302.0,1.0315714E7,0.0
1577725640749,8306633.0,1.0276603E7,0.0
1577725640797,8281398.0,1.0216468E7,0.0
1577725640844,8255897.0,1.0170487E7,0.0
1577725640893,8235398.0,1.0133446E7,0.0
1577725640943,8206121.0,1.009801E7,0.0
1577725640996,8187904.0,1.0064483E7,0.0
1577725641037,8165411.0,1.0028981E7,0.0
1577725641093,8145392.0,9996928.0,0.0
1577725641133,8123772.0,9963722.0,0.0
1577725641185,8103632.0,9937019.0,0.0
1577725641238,8081888.0,9907216.0,0.0
1577725641289,8062332.0,9871896.0,0.0
1577725641337,8035158.0,9842324.0,0.0
1577725641386,8016083.0,9821964.0,0.0
1577725641430,7983600.0,9773411.0,0.0
1577725641477,7954467.0,9715228.0,0.0
1577725641532,7922624.0,9665246.0,0.0
1577725641577,7888361.0,9612994.0,0.0
1577725641632,7862092.0,9571055.0,0.0
1577725641682,7839475.0,9520367.0,0.0
1577725641732,7808364.0,9478841.0,0.0
1577725641775,7784089.0,9440561.0,0.0
1577725641820,7760761.0,9397772.0,0.0
1577725641880,7742505.0,9367556.0,0.0
1577725641928,7716739.0,9333892.0,0.0
1577725641973,7694387.0,9297953.0,0.0
1577725642023,7676329.0,9275156.0,0.0
1577725642070,7655564.0,9237632.0,0.0
1577725642118,7637971.0,9211689.0,0.0
1577725642167,7617452.0,9179586.0,0.0
1577725642221,7598915.0,9142750.0,0.0
1577725642272,7579824.0,9111134.0,0.0
1577725642324,7543993.0,9044219.0,0.0
1577725642369,7498384.0,8967031.0,0.0
1577725642415,7465654.0,8906182.0,0.0
1577725642462,7431174.0,8844073.0,0.0
1577725642517,7401148.0,8786279.0,0.0
1577725642566,7363964.0,8731222.0,0.0
1577725642612,7326620.0,8686067.0,0.0
1577725642665,7285020.0,8641374.0,0.0
1577725642713,7270361.0,8602264.0,0.0
1577725642758,7252608.0,8560305.0,0.0
1577725642814,7233696.0,8518920.0,0.0
1577725642862,7216812.0,8482568.0,0.0
1577725642911,7195763.0,8450142.0,0.0
1577725642959,7185788.0,8422408.0,0.0
1577725643010,7171686.0,8394900.0,0.0
1577725643057,7141142.0,8388789.0,0.0
1577725643101,7131222.0,8375093.0,0.0
1577725643153,7126396.0,8371348.0,0.0
1577725643203,7119094.0,8333340.0,0.0
1577725643253,7090940.0,8266264.0,0.0
1577725643296,7069248.0,8208656.0,0.0
1577725643348,7047932.0,8145280.0,0.0
1577725643397,7030140.0,8086020.0,0.0
1577725643446,7005030.0,8037512.0,0.0
1577725643495,6990160.0,7992035.0,0.0
1577725643544,6972156.0,7951731.0,0.0
1577725643600,6941366.0,7907542.0,0.0
1577725643642,6914099.0,7874473.0,0.0
1577725643698,6894188.0,7836490.0,0.0
1577725643744,6854208.0,7812525.0,0.0
1577725643794,6824630.0,7789799.0,0.0
1577725643841,6825644.0,7758430.0,0.0
1577725643895,6815600.0,7723664.0,0.0
1577725643941,6801904.0,7699951.0,0.0
1577725643993,6785539.0,7691400.0,0.0
1577725644042,6773305.0,7679591.0,0.0
1577725644090,6752931.0,7652864.0,0.0
1577725644134,6736048.0,7617453.0,0.0
1577725644185,6715638.0,7577195.0,0.0
1577725644237,6708195.0,7549551.0,0.0
1577725644281,6683779.0,7525677.0,0.0
1577725644332,6670921.0,7516093.0,0.0
1577725644382,6678988.0,7505961.0,0.0
1577725644436,6679024.0,7508236.0,0.0
1577725644484,6678988.0,7502765.0,0.0
1577725644533,6691420.0,7505110.0,0.0
1577725644582,6705971.0,7511221.0,0.0
1577725644625,6729814.0,7526965.0,0.0
1577725644674,6749334.0,7537007.0,0.0
1577725644721,6781532.0,7548564.0,0.0
1577725644774,6814496.0,7564510.0,0.0
1577725644821,6862400.0,7580366.0,0.0
1577725644941,6901990.0,7585998.0,0.0
1577725644941,6931907.0,7605921.0,0.0
1577725644976,6934118.0,7644709.0,0.0
1577725645035,6921830.0,7800274.0,0.0
1577725645072,6874761.0,7906692.0,0.0
1577725645119,6926691.0,8033234.0,0.0
1577725645162,7004800.0,8058925.0,0.0
1577725645214,7000364.0,8041277.0,0.0
1577725645263,7045100.0,8068005.0,0.0
1577725645313,7088483.0,8129172.0,0.0
1577725645362,7061270.0,8118536.0,0.0
1577725645411,7102105.0,8136757.0,0.0
1577725645460,7148624.0,8168675.0,0.0
1577725645509,7226198.0,8257626.0,0.0
1577725645560,7291500.0,8393752.0,0.0
1577725645608,7390428.0,8452463.0,0.0
1577725645656,7419600.0,8466043.0,0.0
1577725645704,7496995.0,8528821.0,0.0
1577725645754,7537779.0,8631700.0,0.0
1577725645803,7562656.0,8687859.0,0.0
1577725645853,7549353.0,8680621.0,0.0
1577725645902,7535926.0,8648613.0,0.0
1577725645951,7530332.0,8621084.0,0.0
1577725646001,7530921.0,8611365.0,0.0
1577725646050,7529337.0,8611848.0,0.0
1577725646100,7533379.0,8603759.0,0.0
1577725646148,7539753.0,8590682.0,0.0
1577725646197,7585184.0,8566899.0,0.0
1577725646245,7670915.0,8554099.0,0.0
1577725646295,7802950.0,8548537.0,0.0
1577725646344,7874931.0,8539875.0,0.0
1577725646394,7953843.0,8564694.0,0.0
1577725646442,8008355.0,8634801.0,0.0
1577725646492,8063776.0,8678280.0,0.0
1577725646542,8084416.0,8687884.0,0.0
1577725646592,8112908.0,8680324.0,0.0
1577725646640,8112054.0,8681678.0,0.0
1577725646689,8114460.0,8662812.0,0.0
1577725646737,8106393.0,8625771.0,0.0
1577725646786,8062441.0,8577953.0,0.0
1577725646836,8016742.0,8502903.0,0.0
1577725646885,7964992.0,8421582.0,0.0
1577725646935,7909427.0,8358618.0,0.0
1577725646983,7835238.0,8299722.0,0.0
1577725647032,7782521.0,8213921.0,0.0
1577725647083,7730112.0,8169847.0,0.0
1577725647132,7759638.0,8150499.0,0.0
1577725647183,7766051.0,8174257.0,0.0
1577725647235,7772940.0,8203532.0,0.0
1577725647282,7784038.0,8220193.0,0.0
1577725647333,7824499.0,8231684.0,0.0
1577725647380,7864300.0,8249170.0,0.0
1577725647432,7907539.0,8260566.0,0.0
1577725647479,7889056.0,8266727.0,0.0
1577725647530,7873616.0,8266405.0,0.0
1577725647578,7801043.0,8254088.0,0.0
1577725647622,7723344.0,8219528.0,0.0
1577725647677,7679891.0,8228946.0,0.0
1577725647726,7659446.0,8289222.0,0.0
1577725647776,7602176.0,8370865.0,0.0
1577725647828,7579664.0,8433920.0,0.0
1577725647872,7548713.0,8480726.0,0.0
1577725647921,7571222.0,8498469.0,0.0
1577725647973,7584259.0,8522962.0,0.0
1577725648020,7606912.0,8496858.0,0.0
1577725648065,7650489.0,8498167.0,0.0
1577725648118,7716220.0,8528549.0,0.0
1577725648162,7785302.0,8537026.0,0.0
1577725648217,7817126.0,8557501.0,0.0
1577725648260,7831638.0,8570508.0,0.0
1577725648317,7850124.0,8592499.0,0.0
1577725648365,7866099.0,8607731.0,0.0
1577725648414,7880329.0,8629768.0,0.0
1577725648460,7923568.0,8666421.0,0.0
1577725648512,7951475.0,8677545.0,0.0
1577725648559,7990083.0,8691468.0,0.0
1577725648612,8015318.0,8723410.0,0.0
1577725648659,8026233.0,8735360.0,0.0
1577725648705,8046428.0,8745034.0,0.0
1577725648759,8069600.0,8747309.0,0.0
1577725648804,8088032.0,8746595.0,0.0
1577725648855,8106339.0,8748477.0,0.0
1577725648908,8121584.0,8758428.0,0.0
1577725648955,8130486.0,8755947.0,0.0
1577725649008,8149577.0,8765068.0,0.0
1577725649054,8163574.0,8771939.0,0.0
1577725649101,8177449.0,8772789.0,0.0
1577725649148,8192070.0,8777017.0,0.0
1577725649200,8202576.0,8775457.0,0.0
1577725649250,8211606.0,8778145.0,0.0
1577725649298,8216806.0,8782695.0,0.0
1577725649345,8229273.0,8785453.0,0.0
1577725649397,8240419.0,8781406.0,0.0
1577725649444,8245779.0,8778029.0,0.0
1577725649495,8251193.0,8779408.0,0.0
1577725649546,8242236.0,8765138.0,0.0
1577725649595,8233760.0,8756224.0,0.0
1577725649638,8216736.0,8754729.0,0.0
1577725649695,8211427.0,8753763.0,0.0
1577725649740,8220867.0,8801651.0,0.0
1577725649786,8239708.0,8821045.0,0.0
1577725649832,8248524.0,8848805.0,0.0
1577725649883,8255968.0,8859239.0,0.0
1577725649932,8263446.0,8840646.0,0.0
1577725649982,8270713.0,8826491.0,0.0
1577725650029,8277622.0,8811235.0,0.0
1577725650083,8284480.0,8800896.0,0.0
1577725650128,8291692.0,8799698.0,0.0
1577725650176,8306009.0,8797262.0,0.0
1577725650229,8307184.0,8794277.0,0.0
1577725650281,8321094.0,8792072.0,0.0
1577725650330,8328147.0,8795631.0,0.0
1577725650380,8340630.0,8787980.0,0.0
1577725650425,8335820.0,8781200.0,0.0
1577725650478,8337068.0,8770816.0,0.0
1577725650531,8336124.0,8765757.0,0.0
1577725650576,8341699.0,8753465.0,0.0
1577725650630,8337494.0,8747354.0,0.0
1577725650676,8336944.0,8741516.0,0.0
1577725650724,8345811.0,8745054.0,0.0
1577725650773,8350940.0,8745401.0,0.0
1577725650821,8352188.0,8732989.0,0.0
1577725650872,8366736.0,8740323.0,0.0
1577725650920,8367110.0,8736322.0,0.0
1577725650966,8371171.0,8730875.0,0.0
1577725651019,8380537.0,8725545.0,0.0
1577725651069,8383692.0,8728051.0,0.0
1577725651117,8390816.0,8734967.0,0.0
1577725651164,8396726.0,8737218.0,0.0
1577725651217,8409888.0,8738803.0,0.0
1577725651265,8412540.0,8735265.0,0.0
1577725651313,8407001.0,8735632.0,0.0
1577725651362,8403513.0,8721317.0,0.0
1577725651413,8403475.0,8714607.0,0.0
1577725651461,8402924.0,8706659.0,0.0
1577725651509,8405113.0,8697236.0,0.0
1577725651559,8407734.0,8689721.0,0.0
1577725651608,8407536.0,8688896.0,0.0
1577725651653,8411171.0,8685035.0,0.0
1577725651710,8410921.0,8677475.0,0.0
1577725651756,8412416.0,8667685.0,0.0
1577725651805,8416281.0,8670307.0,0.0
1577725651849,8425683.0,8659575.0,0.0
1577725651902,8435888.0,8669386.0,0.0
1577725651954,8436636.0,8683586.0,0.0
1577725652001,8435747.0,8700936.0,0.0
1577725652049,8457830.0,8728509.0,0.0
1577725652100,8474550.0,8750364.0,0.0
1577725652146,8478806.0,8766104.0,0.0
1577725652191,8499321.0,8790325.0,0.0
1577725652248,8506748.0,8792394.0,0.0
1577725652297,8513782.0,8783087.0,0.0
1577725652345,8515334.0,8770700.0,0.0
1577725652396,8517168.0,8762888.0,0.0
1577725652443,8519216.0,8758106.0,0.0
1577725652490,8517008.0,8757925.0,0.0
1577725652539,8522297.0,8746570.0,0.0
1577725652588,8528083.0,8748548.0,0.0
1577725652636,8528118.0,8746917.0,0.0
1577725652692,8537788.0,8751603.0,0.0
1577725652738,8535814.0,8751649.0,0.0
1577725652788,8542972.0,8749262.0,0.0
1577725652837,8546195.0,8749927.0,0.0
1577725652886,8552268.0,8750294.0,0.0
1577725652936,8556579.0,8752177.0,0.0
1577725652984,8566016.0,8755464.0,0.0
1577725653035,8572889.0,8763482.0,0.0
1577725653082,8578588.0,8757532.0,0.0
1577725653128,8581510.0,8769643.0,0.0
1577725653180,8585036.0,8770791.0,0.0
1577725653228,8574067.0,8762012.0,0.0
1577725653279,8580176.0,8756017.0,0.0
1577725653323,8574403.0,8746021.0,0.0
1577725653378,8577075.0,8743952.0,0.0
1577725653430,8572144.0,8742412.0,0.0
1577725653474,8573513.0,8752363.0,0.0
1577725653524,8567814.0,8738642.0,0.0
1577725653576,8580012.0,8749262.0,0.0
1577725653623,8580886.0,8764841.0,0.0
1577725653675,8586940.0,8774263.0,0.0
1577725653720,8596112.0,8789243.0,0.0
1577725653773,8609542.0,8806453.0,0.0
1577725653819,8575580.0,8824472.0,0.0
1577725653869,8616361.0,8880495.0,0.0
1577725653918,8650518.0,8942835.0,0.0
1577725653967,8693366.0,8998742.0,0.0
1577725654017,8715305.0,9037303.0,0.0
1577725654065,8695699.0,9035784.0,0.0
1577725654114,8651942.0,9026019.0,0.0
1577725654163,8620547.0,9022711.0,0.0
1577725654209,8600780.0,8992677.0,0.0
1577725654261,8582400.0,8973650.0,0.0
1577725654311,8566960.0,8967952.0,0.0
1577725654359,8567744.0,8970801.0,0.0
1577725654409,8563843.0,8966573.0,0.0
1577725654454,8547158.0,8962944.0,0.0
1577725654509,8526035.0,8949107.0,0.0
1577725654558,8504345.0,8951407.0,0.0
1577725654605,8494284.0,8952233.0,0.0
1577725654651,8515209.0,8974042.0,0.0
1577725654705,8534156.0,8988333.0,0.0
1577725654752,8546179.0,9010944.0,0.0
1577725654803,8553942.0,9028847.0,0.0
1577725654851,8575347.0,9042382.0,0.0
1577725654901,8593299.0,9061726.0,0.0
1577725654951,8601225.0,9078986.0,0.0
1577725654994,8614028.0,9085605.0,0.0
1577725655042,8638944.0,9105804.0,0.0
1577725655094,8670944.0,9119475.0,0.0
1577725655142,8678940.0,9123703.0,0.0
1577725655193,8713705.0,9123034.0,0.0
1577725655242,8747683.0,9120417.0,0.0
1577725655290,8771260.0,9111089.0,0.0
1577725655342,8814732.0,9100308.0,0.0
1577725655391,8908192.0,9125611.0,0.0
1577725655442,8967104.0,9185172.0,0.0
1577725655494,9020582.0,9228692.0,0.0
1577725655539,9034793.0,9260036.0,0.0
1577725655589,9056182.0,9275272.0,0.0
1577725655633,9069289.0,9287337.0,0.0
1577725655687,9079638.0,9305236.0,0.0
1577725655738,9054224.0,9310637.0,0.0
1577725655785,9066761.0,9312772.0,0.0
1577725655833,9109004.0,9370979.0,0.0
1577725655885,9118352.0,9401381.0,0.0
1577725655933,9080384.0,9415741.0,0.0
1577725655981,9062560.0,9426840.0,0.0
1577725656036,9061331.0,9438307.0,0.0
1577725656081,9048704.0,9442052.0,0.0
1577725656132,9042915.0,9446808.0,0.0
1577725656179,9042380.0,9484060.0,0.0
1577725656226,9076217.0,9614810.0,0.0
1577725656278,9175625.0,9807095.0,0.0
1577725656327,9271081.0,9901885.0,0.0
1577725656376,9247644.0,1.0091276E7,0.0
1577725656425,9266201.0,1.0058809E7,0.0
1577725656477,9294304.0,1.0335405E7,0.0
1577725656523,9296672.0,1.0465581E7,0.0
1577725656577,9212169.0,1.0565309E7,0.0
1577725656622,9203798.0,1.055938E7,0.0
1577725656667,9241430.0,1.0528132E7,0.0
1577725656719,9276012.0,1.0479186E7,0.0
1577725656770,9318985.0,1.0385498E7,0.0
1577725656815,9323510.0,1.0311622E7,0.0
1577725656868,9351379.0,1.0268056E7,0.0
1577725656912,9343507.0,1.0226531E7,0.0
1577725656967,9367712.0,1.0194865E7,0.0
1577725657016,9383078.0,1.0180736E7,0.0
1577725657065,9387958.0,1.0161709E7,0.0
1577725657117,9410576.0,1.0152679E7,0.0
1577725657158,9402544.0,1.0146014E7,0.0
1577725657216,9406748.0,1.0135006E7,0.0
1577725657262,9402633.0,1.0119564E7,0.0
1577725657312,9378486.0,1.0110282E7,0.0
1577725657360,9341212.0,1.0101388E7,0.0
1577725657409,9292736.0,1.010633E7,0.0
1577725657454,9233699.0,1.0111132E7,0.0
1577725657508,9171673.0,1.0107982E7,0.0
1577725657552,9189446.0,1.0148058E7,0.0
1577725657606,9248553.0,1.0233608E7,0.0
1577725657661,9232988.0,1.0285497E7,0.0
1577725657710,9321052.0,1.0338349E7,0.0
1577725657754,9412124.0,1.0416524E7,0.0
1577725657798,9495702.0,1.05023E7,0.0
1577725657849,9508899.0,1.056329E7,0.0
1577725657896,9543926.0,1.058413E7,0.0
1577725657947,9560828.0,1.0628595E7,0.0
1577725657995,9607862.0,1.0765687E7,0.0
1577725658044,9624512.0,1.0819043E7,0.0
1577725658092,9599756.0,1.0942302E7,0.0
1577725658142,9663708.0,1.1043662E7,0.0
1577725658194,9703475.0,1.1040033E7,0.0
1577725658241,9657600.0,1.0929527E7,0.0
1577725658293,9591638.0,1.0780969E7,0.0
1577725658339,9540204.0,1.0644038E7,0.0
1577725658389,9482150.0,1.0542608E7,0.0
1577725658437,9447280.0,1.0455424E7,0.0
1577725658489,9425180.0,1.0408158E7,0.0
1577725658536,9417379.0,1.0374082E7,0.0
1577725658585,9407084.0,1.0342437E7,0.0
1577725658634,9410025.0,1.0328398E7,0.0
1577725658684,9397004.0,1.0298248E7,0.0
1577725658732,9400460.0,1.028591E7,0.0
1577725658782,9395689.0,1.0267321E7,0.0
1577725658834,9390720.0,1.0250248E7,0.0
1577725658880,9391964.0,1.0232229E7,0.0
1577725658931,9395241.0,1.0221522E7,0.0
1577725658978,9390809.0,1.0212653E7,0.0
1577725659029,9393532.0,1.0204861E7,0.0
1577725659077,9385075.0,1.018664E7,0.0
1577725659126,9382633.0,1.0161317E7,0.0
1577725659175,9379216.0,1.0154401E7,0.0
1577725659225,9377558.0,1.0138892E7,0.0
1577725659275,9393977.0,1.0142245E7,0.0
1577725659322,9399587.0,1.0140659E7,0.0
1577725659374,9398787.0,1.0133512E7,0.0
1577725659421,9411379.0,1.0131125E7,0.0
1577725659474,9435401.0,1.0125861E7,0.0
1577725659519,9446710.0,1.0137467E7,0.0
1577725659569,9457129.0,1.0141671E7,0.0
1577725659617,9456611.0,1.0133214E7,0.0
1577725659666,9434707.0,1.011598E7,0.0
1577725659720,9351289.0,1.0048053E7,0.0
1577725659770,9267785.0,9977211.0,0.0
1577725659814,8788873.0,1.0795813E7,0.0
1577725659867,8425862.0,1.1073928E7,0.0
1577725659916,8335644.0,1.1058394E7,0.0
1577725659965,8273152.0,1.103523E7,0.0
1577725660019,8242131.0,1.0931204E7,0.0
1577725660063,8205532.0,1.0850733E7,0.0
1577725660109,8176486.0,1.0827272E7,0.0
1577725660157,8143968.0,1.0808567E7,0.0
1577725660209,8129366.0,1.0701345E7,0.0
1577725660256,8107692.0,1.06061E7,0.0
1577725660310,8108172.0,1.0509861E7,0.0
1577725660355,8080640.0,1.0461126E7,0.0
1577725660409,8077222.0,1.0355191E7,0.0
1577725660456,8110006.0,1.027911E7,0.0
1577725660506,8120105.0,1.0228715E7,0.0
1577725660558,8165747.0,1.0168947E7,0.0
1577725660604,8238176.0,1.0140292E7,0.0
1577725660652,8234899.0,1.0077076E7,0.0
1577725660702,8203929.0,1.0003683E7,0.0
1577725660753,8174812.0,9938514.0,0.0
1577725660801,8139497.0,9877594.0,0.0
1577725660851,8090275.0,9806934.0,0.0
1577725660894,8049404.0,9730807.0,0.0
1577725660949,8020054.0,9671634.0,0.0
1577725660997,8008089.0,9621772.0,0.0
1577725661047,7983244.0,9575333.0,0.0
1577725661099,7970707.0,9542907.0,0.0
1577725661141,7975232.0,9508418.0,0.0
1577725661191,7972560.0,9468271.0,0.0
1577725661238,7979468.0,9447362.0,0.0
1577725661293,7971795.0,9423855.0,0.0
1577725661340,7956976.0,9376243.0,0.0
1577725661392,7921555.0,9312982.0,0.0
1577725661435,7864230.0,9224877.0,0.0
1577725661490,7804444.0,9148292.0,0.0
1577725661540,7726870.0,9065496.0,0.0
1577725661587,7659964.0,8985141.0,0.0
1577725661636,7642761.0,8911376.0,0.0
1577725661685,7679820.0,8840464.0,0.0
1577725661735,7768934.0,8794921.0,0.0
1577725661784,7864531.0,8780077.0,0.0
1577725661832,8013929.0,8790552.0,0.0
1577725661876,8128387.0,8774445.0,0.0
1577725661932,8195472.0,8735496.0,0.0
1577725661975,8190396.0,8644868.0,0.0
1577725662030,8169827.0,8551341.0,0.0
1577725662077,8147120.0,8567337.0,0.0
1577725662127,8156060.0,8622554.0,0.0
1577725662180,8140067.0,8693421.0,0.0
1577725662220,8417011.0,8973766.0,0.0
1577725662271,8729270.0,9276787.0,0.0
1577725662320,9009897.0,9518963.0,0.0
1577725662370,9212099.0,9665870.0,0.0
1577725662418,9419392.0,9825548.0,0.0
1577725662469,9617763.0,9976683.0,0.0
1577725662518,9775065.0,1.0123449E7,0.0
1577725662567,9938764.0,1.0265847E7,0.0
1577725662618,1.0079238E7,1.0371897E7,0.0
1577725662661,1.0131081E7,1.0418291E7,0.0
1577725662714,1.0171148E7,1.0456576E7,0.0
1577725662762,1.011888E7,1.0454759E7,0.0
1577725662812,9977836.0,1.0383112E7,0.0
1577725662864,9952211.0,1.0393154E7,0.0
1577725662914,1.0053078E7,1.0504002E7,0.0
1577725662961,1.0179129E7,1.0658952E7,0.0
1577725663013,1.0317769E7,1.0801697E7,0.0
1577725663055,1.0426793E7,1.0979897E7,0.0
1577725663106,1.0542675E7,1.1092909E7,0.0
1577725663156,1.0482678E7,1.1108719E7,0.0
1577725663203,1.045463E7,1.1046214E7,0.0
1577725663255,1.0404425E7,1.1013309E7,0.0
1577725663303,1.0326425E7,1.103061E7,0.0
1577725663352,1.0341222E7,1.1019928E7,0.0
1577725663401,1.030623E7,1.0911397E7,0.0
1577725663451,1.0247299E7,1.0832673E7,0.0
1577725663499,1.011215E7,1.0812197E7,0.0
1577725663553,9926387.0,1.0793034E7,0.0
1577725663596,9749529.0,1.0738134E7,0.0
1577725663648,9613507.0,1.0660835E7,0.0
1577725663701,9449203.0,1.0560693E7,0.0
1577725663748,9314764.0,1.0420657E7,0.0
1577725663798,9255836.0,1.0339084E7,0.0
1577725663847,9198758.0,1.0257507E7,0.0
1577725663896,9161273.0,1.0171197E7,0.0
1577725663946,9137462.0,1.010247E7,0.0
1577725663994,9111337.0,1.0054903E7,0.0
1577725664044,9059158.0,9997778.0,0.0
1577725664093,9013744.0,9936078.0,0.0
1577725664138,8997664.0,9890601.0,0.0
1577725664193,8993424.0,9861235.0,0.0
1577725664238,8997878.0,9820056.0,0.0
1577725664286,8974832.0,9779683.0,0.0
1577725664338,8981904.0,9729242.0,0.0
1577725664385,9009523.0,9727611.0,0.0
1577725664434,9036326.0,9733037.0,0.0
1577725664483,9014492.0,9685239.0,0.0
1577725664532,8969990.0,9636500.0,0.0
1577725664581,8923616.0,9596886.0,0.0
1577725664629,8878665.0,9552375.0,0.0
1577725664684,8835552.0,9504256.0,0.0
1577725664733,8787574.0,9441135.0,0.0
1577725664781,8734006.0,9385389.0,0.0
1577725664832,8646992.0,9327112.0,0.0
1577725664883,8552838.0,9254156.0,0.0
1577725664930,8417776.0,9167430.0,0.0
1577725664979,8265404.0,9069654.0,0.0
1577725665028,7990102.0,8925580.0,0.0
1577725665077,7750947.0,8764494.0,0.0
1577725665126,7697859.0,8640891.0,0.0
1577725665175,7660195.0,8563546.0,0.0
1577725665223,7643545.0,8559017.0,0.0
1577725665274,7793580.0,8712196.0,0.0
1577725665320,7959452.0,8821598.0,0.0
1577725665372,8022051.0,8855927.0,0.0
1577725665424,8036352.0,8841843.0,0.0
1577725665473,8026697.0,8793195.0,0.0
1577725665519,8026198.0,8782075.0,0.0
1577725665570,8072681.0,8936745.0,0.0
1577725665617,8020073.0,9005291.0,0.0
1577725665662,7942374.0,8710243.0,0.0
1577725665716,7868252.0,8543232.0,0.0
1577725665765,7805104.0,8441616.0,0.0
1577725665814,7461468.0,8450716.0,0.0
1577725665860,7357785.0,8480615.0,0.0
1577725665914,7168016.0,8438354.0,0.0
1577725665961,7069532.0,8436265.0,0.0
1577725666011,7035660.0,8443458.0,0.0
1577725666058,7005350.0,8431368.0,0.0
1577725666109,6973849.0,8403266.0,0.0
1577725666155,6942256.0,8380081.0,0.0
1577725666207,6928329.0,8360386.0,0.0
1577725666256,6901420.0,8332193.0,0.0
1577725666299,6867958.0,8300804.0,0.0
1577725666352,6835616.0,8272103.0,0.0
1577725666401,6807961.0,8249397.0,0.0
1577725666449,6789830.0,8220193.0,0.0
1577725666500,6762582.0,8195674.0,0.0
1577725666553,6736707.0,8154083.0,0.0
1577725666599,6704812.0,8121224.0,0.0
1577725666645,6696192.0,8111570.0,0.0
1577725666694,6679952.0,8093188.0,0.0
1577725666747,6641040.0,8080000.0,0.0
1577725666796,6610780.0,8064693.0,0.0
1577725666842,6593702.0,8060626.0,0.0
1577725666895,6573865.0,8030249.0,0.0
1577725666943,6575414.0,8018138.0,0.0
1577725666989,6566563.0,8002076.0,0.0
1577725667046,6555273.0,7988310.0,0.0
1577725667092,6554969.0,7966459.0,0.0
1577725667136,6556892.0,7959609.0,0.0
1577725667190,6552012.0,7947453.0,0.0
1577725667238,6554739.0,7931738.0,0.0
1577725667288,6556892.0,7921511.0,0.0
1577725667336,6558800.0,7918938.0,0.0
1577725667384,6550819.0,7901155.0,0.0
1577725667431,6532192.0,7858456.0,0.0
1577725667485,6500883.0,7822381.0,0.0
1577725667527,6475366.0,7781342.0,0.0
1577725667581,6460672.0,7749974.0,0.0
1577725667629,6443113.0,7723573.0,0.0
1577725667675,6437699.0,7702086.0,0.0
1577725667726,6432659.0,7692870.0,0.0
1577725667774,6424521.0,7673707.0,0.0
1577725667823,6413587.0,7655002.0,0.0
1577725667873,6407584.0,7643858.0,0.0
1577725667923,6401939.0,7633057.0,0.0
1577725667972,6402118.0,7628738.0,0.0
1577725668023,6401958.0,7621520.0,0.0
1577725668070,6402294.0,7620764.0,0.0
1577725668123,6405465.0,7620166.0,0.0
1577725668169,6394496.0,7600334.0,0.0
1577725668216,6367478.0,7563866.0,0.0
1577725668266,6341996.0,7527812.0,0.0
1577725668312,6322547.0,7506696.0,0.0
1577725668366,6304329.0,7489577.0,0.0
1577725668414,6299414.0,7475100.0,0.0
1577725668463,6281641.0,7462577.0,0.0
1577725668512,6280163.0,7452098.0,0.0
1577725668562,6270761.0,7439232.0,0.0
1577725668614,6263334.0,6939818.0,0.0
1577725668661,6265027.0,7040080.0,0.0
1577725668712,6262284.0,7036499.0,0.0
1577725668760,6265187.0,7034291.0,0.0
1577725668811,6265417.0,7027008.0,0.0
1577725668859,6262764.0,7022713.0,0.0
1577725668906,6262745.0,7019795.0,0.0
1577725668957,6263068.0,7018121.0,0.0
1577725669001,6251046.0,7003696.0,0.0
1577725669055,6225171.0,6974704.0,0.0
1577725669107,6200540.0,6950662.0,0.0
1577725669150,6180720.0,6928755.0,0.0
1577725669202,6160080.0,6906387.0,0.0
1577725669253,6145974.0,6906620.0,0.0
1577725669300,6138620.0,6897040.0,0.0
1577725669351,6128006.0,6887689.0,0.0
1577725669399,6117392.0,6879017.0,0.0
1577725669443,6110643.0,6869952.0,0.0
1577725669498,6109254.0,6866995.0,0.0
1577725669545,6110748.0,6876505.0,0.0
1577725669596,6112422.0,6875046.0,0.0
1577725669644,6117945.0,6877804.0,0.0
1577725669693,6120652.0,6875401.0,0.0
1577725669739,6120204.0,6877609.0,0.0
1577725669793,6122467.0,6880691.0,0.0
1577725669840,6116268.0,6878374.0,0.0
1577725669891,6111996.0,6875081.0,0.0
1577725669939,6098320.0,6857433.0,0.0
1577725669985,6075792.0,6844771.0,0.0
1577725670037,6062310.0,6836809.0,0.0
1577725670084,6048294.0,6824096.0,0.0
1577725670133,6032924.0,6824432.0,0.0
1577725670187,6005840.0,6812092.0,0.0
1577725670234,6024966.0,6853353.0,0.0
1577725670282,6372592.0,7068822.0,0.0
1577725670333,6338931.0,7251433.0,0.0
1577725670381,6411449.0,7212857.0,0.0
1577725670431,6496486.0,7343718.0,0.0
1577725670475,6618617.0,7465689.0,0.0
1577725670526,6660342.0,7527129.0,0.0
1577725670574,6871875.0,7692448.0,0.0
1577725670625,7050960.0,7831443.0,0.0
1577725670672,7209081.0,8138982.0,0.0
1577725670721,7418531.0,8305209.0,0.0
1577725670770,7558275.0,8332937.0,0.0
1577725670819,7643436.0,8401392.0,0.0
1577725670881,7716115.0,8500339.0,0.0
1577725670944,7792851.0,8624428.0,0.0
1577725670972,7885136.0,8777888.0,0.0
1577725671025,8011632.0,8846166.0,0.0
1577725671067,8150057.0,9051552.0,0.0
1577725671122,8261593.0,9241056.0,0.0
1577725671166,8408624.0,9451840.0,0.0
1577725671220,8540800.0,9504144.0,0.0
1577725671269,8623344.0,9497750.0,0.0
1577725671316,8678851.0,9606080.0,0.0
1577725671364,8726240.0,9629872.0,0.0
1577725671417,8763033.0,9558995.0,0.0
1577725671467,8788678.0,9491126.0,0.0
1577725671507,8809728.0,9474704.0,0.0
1577725671563,8823708.0,9449328.0,0.0
1577725671605,8861052.0,9477785.0,0.0
1577725671661,8938662.0,9609980.0,0.0
1577725671708,8967264.0,9726931.0,0.0
1577725671751,9035078.0,9804700.0,0.0
1577725671809,9116448.0,9827532.0,0.0
1577725671856,9156428.0,9777078.0,0.0
1577725671899,9183158.0,9765449.0,0.0
1577725671949,9190585.0,9979580.0,0.0
1577725672004,9207484.0,1.0197632E7,0.0
1577725672046,9287107.0,1.0376483E7,0.0
1577725672095,9375635.0,1.0502963E7,0.0
1577725672148,9402988.0,1.0603065E7,0.0
1577725672195,9442400.0,1.0663436E7,0.0
1577725672248,9459673.0,1.1144463E7,0.0
1577725672293,9450166.0,1.1123048E7,0.0
1577725672349,9513990.0,1.1124584E7,0.0
1577725672396,9574112.0,1.1088015E7,0.0
1577725672450,9589216.0,1.1126481E7,0.0
1577725672493,9619686.0,1.1236875E7,0.0
1577725672545,9667200.0,1.1361512E7,0.0
1577725672590,9713574.0,1.1422277E7,0.0
1577725672637,9852998.0,1.1492068E7,0.0
1577725672688,9933350.0,1.1407534E7,0.0
1577725672742,9968681.0,1.1333884E7,0.0
1577725672789,9960579.0,1.135344E7,0.0
1577725672840,1.0012956E7,1.1476999E7,0.0
1577725672890,1.0051529E7,1.1650447E7,0.0
1577725672934,1.0148515E7,1.1743937E7,0.0
1577725672987,1.0188067E7,1.1856659E7,0.0
1577725673029,1.0163456E7,1.1905792E7,0.0
1577725673084,1.0213606E7,1.1955289E7,0.0
1577725673126,1.0303308E7,1.2278264E7,0.0
1577725673183,1.0348134E7,1.2551028E7,0.0
1577725673230,1.0418886E7,1.2683136E7,0.0
1577725673281,1.0544723E7,1.2927685E7,0.0
1577725673331,1.069118E7,1.3042699E7,0.0
1577725673383,1.0797836E7,1.368768E7,0.0
1577725673424,1.1823792E7,1.3730289E7,0.0
1577725673472,1.1725035E7,1.3701902E7,0.0
1577725673526,1.1862428E7,1.3830229E7,0.0
1577725673569,1.1881154E7,1.4010268E7,0.0
1577725673624,1.1695025E7,1.4197461E7,0.0
1577725673670,1.1681077E7,1.4408367E7,0.0
1577725673724,1.1712697E7,1.4368341E7,0.0
1577725673770,1.1765665E7,1.4242522E7,0.0
1577725673819,1.1859831E7,1.4176274E7,0.0
1577725673870,1.1907856E7,1.4122557E7,0.0
1577725673920,1.2075396E7,1.4148176E7,0.0
1577725673970,1.2299235E7,1.4300434E7,0.0
1577725674016,1.2260215E7,1.4466171E7,0.0
1577725674066,1.2306242E7,1.4574108E7,0.0
1577725674108,1.2224714E7,1.4364965E7,0.0
1577725674159,1.1880604E7,1.4358793E7,0.0
1577725674208,1.1656951E7,1.4437044E7,0.0
1577725674263,1.1714167E7,1.4282173E7,0.0
1577725674310,1.1887289E7,1.4407442E7,0.0
1577725674355,1.1989545E7,1.4339479E7,0.0
1577725674409,1.2124663E7,1.433233E7,0.0
1577725674459,1.2291328E7,1.4364017E7,0.0
1577725674510,1.2465692E7,1.44405E7,0.0
1577725674550,1.260444E7,1.4561336E7,0.0
1577725674607,1.2545408E7,1.4650642E7,0.0
1577725674650,1.2526678E7,1.4734435E7,0.0
1577725674706,1.2489088E7,1.4829022E7,0.0
1577725674751,1.2601822E7,1.4632599E7,0.0
1577725674803,1.2406982E7,1.431716E7,0.0
1577725674852,1.2559975E7,1.4432744E7,0.0
1577725674893,1.2720693E7,1.4621255E7,0.0
1577725674948,1.2735351E7,1.4876909E7,0.0
1577725674997,1.2663357E7,1.4927511E7,0.0
1577725675049,1.2438395E7,1.4886167E7,0.0
1577725675090,1.2241672E7,1.4734833E7,0.0
1577725675142,1.2033114E7,1.4631755E7,0.0
1577725675190,1.1855855E7,1.457115E7,0.0
1577725675246,1.1762469E7,1.4590122E7,0.0
1577725675291,1.1750016E7,1.4548091E7,0.0
1577725675343,1.1764331E7,1.4493108E7,0.0
1577725675395,1.1816402E7,1.4480549E7,0.0
1577725675439,1.1871826E7,1.4489125E7,0.0
1577725675485,1.18957E7,1.4538543E7,0.0
1577725675537,1.1934765E7,1.4535902E7,0.0
1577725675584,1.1992489E7,1.4576796E7,0.0
1577725675634,1.207374E7,1.4620434E7,0.0
1577725675688,1.2218442E7,1.4718473E7,0.0
1577725675731,1.2307072E7,1.495706E7,0.0
1577725675786,1.2312493E7,1.515016E7,0.0
1577725675831,1.2196839E7,1.5039402E7,0.0
1577725675891,1.2177882E7,1.4833161E7,0.0
1577725675934,1.2193209E7,1.456044E7,0.0
1577725675974,1.2184939E7,1.4360481E7,0.0
1577725676032,1.2168666E7,1.4205899E7,0.0
1577725676075,1.2168414E7,1.4180257E7,0.0
1577725676129,1.2179146E7,1.4158753E7,0.0
1577725676173,1.2186132E7,1.4061847E7,0.0
1577725676228,1.225569E7,1.413823E7,0.0
1577725676272,1.2358449E7,1.4400346E7,0.0
1577725676326,1.2408315E7,1.4434749E7,0.0
1577725676374,1.2504435E7,1.462389E7,0.0
1577725676422,1.2507767E7,1.4717658E7,0.0
1577725676473,1.2536377E7,1.482815E7,0.0
1577725676517,1.2573167E7,1.485018E7,0.0
1577725676573,1.2663634E7,1.4919623E7,0.0
1577725676614,1.2656693E7,1.4972468E7,0.0
1577725676670,1.2616183E7,1.4971491E7,0.0
1577725676713,1.2579579E7,1.4930702E7,0.0
1577725676767,1.2563241E7,1.4944526E7,0.0
1577725676815,1.2533E7,1.4897194E7,0.0
1577725676862,1.2524428E7,1.4874135E7,0.0
1577725676922,1.2528264E7,1.4794325E7,0.0
1577725676957,1.2499195E7,1.4690986E7,0.0
1577725677014,1.245046E7,1.4474221E7,0.0
1577725677055,1.2354683E7,1.4252548E7,0.0
1577725677111,1.2268188E7,1.4179939E7,0.0
1577725677154,1.2321478E7,1.4245764E7,0.0
1577725677209,1.2366447E7,1.4296817E7,0.0
1577725677255,1.2512227E7,1.4422139E7,0.0
1577725677307,1.2556114E7,1.4471793E7,0.0
1577725677357,1.2510777E7,1.4337104E7,0.0
1577725677396,1.2444692E7,1.4229513E7,0.0
1577725677458,1.2447702E7,1.4061321E7,0.0
1577725677505,1.245494E7,1.4009794E7,0.0
1577725677555,1.2491478E7,1.3903919E7,0.0
1577725677597,1.2477687E7,1.3838013E7,0.0
1577725677647,1.247208E7,1.3777701E7,0.0
1577725677694,1.2487362E7,1.3793242E7,0.0
1577725677751,1.2491544E7,1.3801946E7,0.0
1577725677794,1.2500025E7,1.3824161E7,0.0
1577725677849,1.25037E7,1.3822264E7,0.0
1577725677895,1.2499472E7,1.3835349E7,0.0
1577725677948,1.2494922E7,1.3836904E7,0.0
1577725677997,1.2492717E7,1.3848433E7,0.0
1577725678041,1.2510344E7,1.3924446E7,0.0
1577725678092,1.2541824E7,1.3995335E7,0.0
1577725678137,1.2638612E7,1.4170761E7,0.0
1577725678195,1.2776555E7,1.4324783E7,0.0
1577725678236,1.2635875E7,1.4484323E7,0.0
1577725678292,1.2480309E7,1.4528094E7,0.0
1577725678335,1.2274465E7,1.4507249E7,0.0
1577725678390,1.2003864E7,1.4412325E7,0.0
1577725678432,1.1629811E7,1.4249514E7,0.0
1577725678482,1.1456115E7,1.4086172E7,0.0
1577725678535,1.1331914E7,1.3938109E7,0.0
1577725678587,1.105019E7,1.3841498E7,0.0
1577725678634,1.0806982E7,1.3789364E7,0.0
1577725678685,1.0951126E7,1.3972859E7,0.0
1577725678731,1.130126E7,1.4044885E7,0.0
1577725678781,1.1459307E7,1.4065412E7,0.0
1577725678833,1.1533551E7,1.4116674E7,0.0
1577725678880,1.1585577E7,1.4193635E7,0.0
1577725678923,1.1475968E7,1.4142132E7,0.0
1577725678976,1.1432765E7,1.406272E7,0.0
1577725679029,1.1396137E7,1.4063141E7,0.0
1577725679079,1.1207044E7,1.3735727E7,0.0
1577725679127,1.094729E7,1.3417097E7,0.0
1577725679170,1.0811482E7,1.3179752E7,0.0
1577725679218,1.0838416E7,1.3094954E7,0.0
1577725679271,1.0842665E7,1.3079864E7,0.0
1577725679317,1.082697E7,1.306348E7,0.0
1577725679368,1.0836484E7,1.3070762E7,0.0
1577725679415,1.0831566E7,1.3054644E7,0.0
1577725679465,1.0844275E7,1.3060603E7,0.0
1577725679513,1.0832417E7,1.3054933E7,0.0
1577725679563,1.0826351E7,1.3048229E7,0.0
1577725679615,1.0808427E7,1.3019576E7,0.0
1577725679663,1.0781427E7,1.3003614E7,0.0
1577725679713,1.0764998E7,1.297499E7,0.0
1577725679765,1.0745835E7,1.2967789E7,0.0
1577725679812,1.0751876E7,1.2949688E7,0.0
1577725679860,1.0723381E7,1.2916314E7,0.0
1577725679909,1.0696542E7,1.2883389E7,0.0
1577725679956,1.0667912E7,1.2828169E7,0.0
1577725680012,1.0635949E7,1.2768094E7,0.0
1577725680053,1.0597367E7,1.2703165E7,0.0
1577725680101,1.0583395E7,1.2635704E7,0.0
1577725680153,1.0575009E7,1.2580664E7,0.0
1577725680201,1.0559521E7,1.2533968E7,0.0
1577725680255,1.0528751E7,1.247661E7,0.0
1577725680298,1.0511677E7,1.2437432E7,0.0
1577725680351,1.0502189E7,1.2401156E7,0.0
1577725680395,1.0499038E7,1.2365487E7,0.0
1577725680454,1.0477394E7,1.2327495E7,0.0
1577725680498,1.0475602E7,1.2302269E7,0.0
1577725680552,1.0465213E7,1.2276361E7,0.0
1577725680593,1.0461997E7,1.2245575E7,0.0
1577725680643,1.0461976E7,1.2226654E7,0.0
1577725680701,1.0462938E7,1.2212119E7,0.0
1577725680749,1.0457723E7,1.2186581E7,0.0
1577725680795,1.0444027E7,1.2118456E7,0.0
1577725680846,1.0414179E7,1.2053342E7,0.0
1577725680893,1.0422288E7,1.2000421E7,0.0
1577725680935,1.0402667E7,1.1957731E7,0.0
1577725680994,1.0411375E7,1.193425E7,0.0
1577725681036,1.0417073E7,1.1906891E7,0.0
1577725681092,1.0428011E7,1.1881827E7,0.0
1577725681134,1.0430216E7,1.1863651E7,0.0
1577725681183,1.0428725E7,1.1854677E7,0.0
1577725681240,1.0428288E7,1.1835235E7,0.0
1577725681288,1.0423139E7,1.1817955E7,0.0
1577725681337,1.0465676E7,1.1835183E7,0.0
1577725681388,1.0558117E7,1.1877366E7,0.0
1577725681431,1.0632088E7,1.1906019E7,0.0
1577725681479,1.0704978E7,1.1936123E7,0.0
1577725681532,1.074657E7,1.1969104E7,0.0
1577725681581,1.078708E7,1.2001948E7,0.0
1577725681630,1.0786048E7,1.2019892E7,0.0
1577725681679,1.0771204E7,1.1989812E7,0.0
1577725681728,1.0748961E7,1.1954223E7,0.0
1577725681781,1.0722832E7,1.1920478E7,0.0
1577725681828,1.0675588E7,1.1890322E7,0.0
1577725681877,1.0645437E7,1.1857896E7,0.0
1577725681927,1.0635214E7,1.1863888E7,0.0
1577725681974,1.0609337E7,1.1863016E7,0.0
1577725682023,1.0583027E7,1.1868662E7,0.0
1577725682072,1.0552282E7,1.1870326E7,0.0
1577725682120,1.0531162E7,1.1882567E7,0.0
1577725682169,1.0501888E7,1.1901141E7,0.0
1577725682216,1.0486172E7,1.1907313E7,0.0
1577725682272,1.0461745E7,1.1909399E7,0.0
1577725682322,1.0445291E7,1.1920768E7,0.0
1577725682369,1.0440076E7,1.1933435E7,0.0
1577725682420,1.0428197E7,1.1947392E7,0.0
1577725682460,1.0425967E7,1.1965302E7,0.0
1577725682517,1.0416776E7,1.1983269E7,0.0
1577725682565,1.0387501E7,1.1945201E7,0.0
1577725682613,1.0345265E7,1.1899742E7,0.0
1577725682658,1.0313141E7,1.1860062E7,0.0
1577725682713,1.0277429E7,1.1823914E7,0.0
1577725682760,1.0249513E7,1.1792597E7,0.0
1577725682811,1.0258725E7,1.1774577E7,0.0
1577725682860,1.027086E7,1.1779882E7,0.0
1577725682911,1.033467E7,1.1928101E7,0.0
1577725682957,1.03625E7,1.2005513E7,0.0
1577725683007,1.0232782E7,1.1870587E7,0.0
1577725683057,1.016495E7,1.1713607E7,0.0
1577725683097,1.0002118E7,1.1493859E7,0.0
1577725683151,9828285.0,1.1300048E7,0.0
1577725683202,9583236.0,1.1119274E7,0.0
1577725683253,9453084.0,1.1012551E7,0.0
1577725683298,9359971.0,1.0935461E7,0.0
1577725683352,9295954.0,1.0888945E7,0.0
1577725683399,9227569.0,1.0822381E7,0.0
1577725683459,9126920.0,1.0742309E7,0.0
1577725683492,8977143.0,1.0589231E7,0.0
1577725683541,8807787.0,1.0379538E7,0.0
1577725683597,8613570.0,1.0119689E7,0.0
1577725683640,8495343.0,9923399.0,0.0
1577725683692,8756430.0,1.0208995E7,0.0
1577725683738,8922913.0,1.0547996E7,0.0
1577725683794,9036544.0,1.0623056E7,0.0
1577725683838,9139373.0,1.0632291E7,0.0
1577725683889,9028938.0,1.0570107E7,0.0
1577725683939,8958278.0,1.0446392E7,0.0
1577725683989,8983234.0,1.0426368E7,0.0
1577725684036,9010394.0,1.0451986E7,0.0
1577725684088,9087190.0,1.0520215E7,0.0
1577725684132,9160030.0,1.0618543E7,0.0
1577725684181,9271114.0,1.0758561E7,0.0
1577725684229,9318358.0,1.0889528E7,0.0
1577725684280,9351997.0,1.0899474E7,0.0
1577725684327,9378357.0,1.086491E7,0.0
1577725684381,9422336.0,1.1059934E7,0.0
1577725684426,9428612.0,1.1283982E7,0.0
1577725684474,9491319.0,1.1256229E7,0.0
1577725684523,9484700.0,1.1168109E7,0.0
1577725684572,9489965.0,1.1090645E7,0.0
1577725684621,9578595.0,1.1090621E7,0.0
1577725684672,9706632.0,1.1188527E7,0.0
1577725684720,9776466.0,1.1341288E7,0.0
1577725684770,9721133.0,1.1313005E7,0.0
1577725684819,9862131.0,1.1387666E7,0.0
1577725684873,9942375.0,1.1428721E7,0.0
1577725684925,9982864.0,1.1429935E7,0.0
1577725684972,9969903.0,1.1449088E7,0.0
1577725685012,9820861.0,1.1308809E7,0.0
1577725685061,9237817.0,1.1232668E7,0.0
1577725685112,8818543.0,1.2386327E7,0.0
1577725685160,8386650.0,1.4116726E7,0.0
1577725685217,7940859.0,1.561635E7,0.0
1577725685259,7023768.0,1.193425E7,0.0
1577725685312,6922871.0,9747370.0,0.0
1577725685365,7280536.0,9349693.0,0.0
1577725685413,6896420.0,9161846.0,0.0
1577725685466,7208756.0,9224874.0,0.0
1577725685513,7598027.0,9506465.0,0.0
1577725685562,7728459.0,9411773.0,0.0
1577725685609,7799568.0,9379536.0,0.0
1577725685658,7506921.0,9350381.0,0.0
1577725685706,7190219.0,8865483.0,0.0
1577725685758,6891542.0,8466858.0,0.0
1577725685798,6873718.0,8278347.0,0.0
1577725685859,6921938.0,8268719.0,0.0
1577725685903,6939306.0,7712892.0,0.0
1577725685952,7033481.0,7866574.0,0.0
1577725686001,7020734.0,7845400.0,0.0
1577725686054,6930556.0,7816906.0,0.0
1577725686101,6856402.0,7757425.0,0.0
1577725686144,6877039.0,7873361.0,0.0
1577725686193,6949937.0,8102499.0,0.0
1577725686240,7017081.0,8320341.0,0.0
1577725686299,7013940.0,8426737.0,0.0
1577725686343,6978852.0,8499079.0,0.0
1577725686396,7232118.0,8686823.0,0.0
1577725686450,7295625.0,8664600.0,0.0
1577725686488,7383847.0,8698200.0,0.0
1577725686544,7512858.0,8632408.0,0.0
1577725686593,7673921.0,8612995.0,0.0
1577725686635,7834089.0,8744999.0,0.0
1577725686690,7963336.0,8906880.0,0.0
1577725686740,8050697.0,8957952.0,0.0
1577725686781,8106443.0,9065159.0,0.0
1577725686839,8112928.0,9197201.0,0.0
1577725686886,8225460.0,9410332.0,0.0
1577725686934,8394121.0,9622371.0,0.0
1577725686983,8531987.0,9735022.0,0.0
1577725687035,8671425.0,9850165.0,0.0
1577725687083,8747867.0,9839502.0,0.0
1577725687133,8918501.0,9843854.0,0.0
1577725687181,9063108.0,9786016.0,0.0
1577725687231,9109083.0,9653223.0,0.0
1577725687279,9156591.0,9461621.0,0.0
1577725687320,9139495.0,9274965.0,0.0
1577725687373,9246546.0,9117376.0,0.0
1577725687421,9258016.0,9110848.0,0.0
1577725687477,9243825.0,9281614.0,0.0
1577725687524,9275753.0,9435381.0,0.0
1577725687569,9418532.0,9576842.0,0.0
1577725687623,9667360.0,9631633.0,0.0
1577725687667,9670377.0,9675025.0,0.0
1577725687714,9481403.0,9634247.0,0.0
1577725687762,9400214.0,9477824.0,0.0
1577725687814,9312485.0,9362862.0,0.0
1577725687862,9285671.0,9305774.0,0.0
1577725687913,9254731.0,9274272.0,0.0
1577725687963,9274036.0,9248174.0,0.0
1577725688017,9305800.0,9239267.0,0.0
1577725688065,9275480.0,9189048.0,0.0
1577725688116,9210125.0,9213169.0,0.0
1577725688155,9092608.0,9307118.0,0.0
1577725688205,9114177.0,9515936.0,0.0
1577725688255,9237927.0,9728910.0,0.0
1577725688304,9310769.0,9835224.0,0.0
1577725688354,9445986.0,9985176.0,0.0
1577725688407,9543450.0,1.0064206E7,0.0
1577725688464,9650924.0,1.0140465E7,0.0
1577725688505,9794615.0,1.0186552E7,0.0
1577725688558,9912244.0,1.0283452E7,0.0
1577725688604,9897412.0,1.0022691E7,0.0
1577725688649,9913652.0,9649127.0,0.0
1577725688704,9990823.0,9315548.0,0.0
1577725688751,9893707.0,9221479.0,0.0
1577725688802,9897396.0,9138115.0,0.0
1577725688844,9921266.0,9122403.0,0.0
1577725688902,9939843.0,9168846.0,0.0
1577725688942,1.0022403E7,9268711.0,0.0
1577725689000,1.0106843E7,9481091.0,0.0
1577725689044,9939295.0,9574567.0,0.0
1577725689095,9875935.0,9732945.0,0.0
1577725689139,9801997.0,9327086.0,0.0
1577725689190,9649828.0,9280010.0,0.0
1577725689244,9674814.0,9253358.0,0.0
1577725689292,9631691.0,9211488.0,0.0
1577725689342,9552492.0,9221834.0,0.0
1577725689387,9572473.0,9255751.0,0.0
1577725689439,9520452.0,9137066.0,0.0
1577725689483,9488397.0,9106474.0,0.0
1577725689539,9446150.0,9078673.0,0.0
1577725689585,9216738.0,9136256.0,0.0
1577725689632,9390313.0,9163701.0,0.0
1577725689686,9385636.0,8965646.0,0.0
1577725689729,9437712.0,8984565.0,0.0
1577725689777,9409273.0,8888853.0,0.0
1577725689827,9512598.0,8951914.0,0.0
1577725689880,9330530.0,9344992.0,0.0
1577725689925,9555485.0,9412209.0,0.0
1577725689981,9972939.0,9383064.0,0.0
1577725690027,1.0572133E7,9452853.0,0.0
1577725690077,1.0389536E7,9432590.0,0.0
1577725690128,1.0360677E7,9559153.0,0.0
1577725690178,1.036581E7,9522151.0,0.0
1577725690224,1.0382631E7,9483701.0,0.0
1577725690273,1.0455712E7,9286560.0,0.0
1577725690326,1.03236E7,9146563.0,0.0
1577725690376,1.041191E7,9129269.0,0.0
1577725690422,1.038782E7,9186652.0,0.0
1577725690469,1.0509101E7,9270968.0,0.0
1577725690521,1.048362E7,9275520.0,0.0
1577725690568,1.038972E7,9242353.0,0.0
1577725690619,1.0440553E7,9435164.0,0.0
1577725690669,1.0540153E7,9433422.0,0.0
1577725690717,1.0658966E7,9550325.0,0.0
1577725690766,1.0686493E7,9560476.0,0.0
1577725690813,1.0737929E7,9573319.0,0.0
1577725690861,1.0648044E7,9365056.0,0.0
1577725690914,1.0501228E7,9164529.0,0.0
1577725690964,1.0252455E7,9125272.0,0.0
1577725691004,1.0026476E7,8945265.0,0.0
1577725691062,9842582.0,8931512.0,0.0
1577725691105,9979917.0,8961866.0,0.0
1577725691157,1.0027336E7,8737002.0,0.0
1577725691201,9609754.0,8516135.0,0.0
1577725691258,9472324.0,8438627.0,0.0
1577725691306,9475029.0,8616181.0,0.0
1577725691349,9687361.0,8652195.0,0.0
1577725691403,9709026.0,8776896.0,0.0
1577725691456,9907971.0,8506716.0,0.0
1577725691496,9809503.0,8343232.0,0.0
1577725691546,9774926.0,8335576.0,0.0
1577725691601,9701408.0,8497240.0,0.0
1577725691645,9735801.0,8748241.0,0.0
1577725691699,9880336.0,8944476.0,0.0
1577725691748,1.0060268E7,9091239.0,0.0
1577725691796,1.0344402E7,9078773.0,0.0
1577725691846,1.0286884E7,8781642.0,0.0
1577725691890,1.0010732E7,8536992.0,0.0
1577725691949,9900245.0,8862556.0,0.0
1577725691987,1.0072979E7,8916536.0,0.0
1577725692042,9933889.0,9071808.0,0.0
1577725692086,1.0285715E7,9033912.0,0.0
1577725692135,1.0429282E7,9207904.0,0.0
1577725692187,1.0254372E7,9160970.0,0.0
1577725692239,1.0111392E7,9263982.0,0.0
1577725692289,1.0110404E7,9117674.0,0.0
1577725692336,1.0234499E7,9100124.0,0.0
1577725692388,1.0259669E7,9011157.0,0.0
1577725692428,1.0339817E7,9042542.0,0.0
1577725692483,1.0512226E7,9176245.0,0.0
1577725692527,1.0558818E7,9219185.0,0.0
1577725692582,1.0391929E7,9122641.0,0.0
1577725692629,1.0224252E7,9003224.0,0.0
1577725692680,1.0093164E7,8842449.0,0.0
1577725692730,9926948.0,8698734.0,0.0
1577725692781,9739326.0,8517976.0,0.0
1577725692827,9497915.0,8396839.0,0.0
1577725692877,9329453.0,8340423.0,0.0
1577725692925,9266966.0,8349269.0,0.0
1577725692969,9198345.0,8327996.0,0.0
1577725693024,9147565.0,8275957.0,0.0
1577725693067,9113813.0,8312088.0,0.0
1577725693122,9156680.0,8391278.0,0.0
1577725693172,9218399.0,8392305.0,0.0
1577725693214,9122323.0,8403032.0,0.0
1577725693261,9039947.0,8384529.0,0.0
1577725693315,8943287.0,8428952.0,0.0
1577725693363,8966793.0,8441024.0,0.0
1577725693414,8944200.0,8417237.0,0.0
1577725693461,8985662.0,8421472.0,0.0
1577725693514,9015417.0,8477767.0,0.0
1577725693565,8977444.0,8490097.0,0.0
1577725693607,8933041.0,8474759.0,0.0
1577725693663,8889370.0,8446087.0,0.0
1577725693709,8850372.0,8415616.0,0.0
1577725693762,8763247.0,8450204.0,0.0
1577725693811,8771741.0,8526563.0,0.0
1577725693860,8862903.0,8593031.0,0.0
1577725693909,8892291.0,8620120.0,0.0
1577725693958,9020950.0,8747452.0,0.0
1577725694007,9171551.0,8864416.0,0.0
1577725694051,9306968.0,8840945.0,0.0
1577725694105,9437840.0,8831370.0,0.0
1577725694151,9506153.0,8793596.0,0.0
1577725694197,9261305.0,8627203.0,0.0
1577725694250,9034486.0,8580188.0,0.0
1577725694303,8951233.0,8309120.0,0.0
1577725694352,8906374.0,8170232.0,0.0
1577725694398,8694915.0,8311712.0,0.0
1577725694447,9067986.0,8580704.0,0.0
1577725694493,9101394.0,8649482.0,0.0
1577725694545,9245981.0,8580743.0,0.0
1577725694593,9128352.0,8255477.0,0.0
1577725694639,8936474.0,8389834.0,0.0
1577725694688,9056275.0,8422403.0,0.0
1577725694739,9330057.0,8515324.0,0.0
1577725694791,9308704.0,8514218.0,0.0
1577725694842,9159020.0,8442033.0,0.0
1577725694893,8915305.0,8232305.0,0.0
1577725694937,8691846.0,8023271.0,0.0
1577725694989,8511458.0,7783722.0,0.0
1577725695032,8320512.0,7643864.0,0.0
1577725695088,8185294.0,7524131.0,0.0
1577725695130,8042843.0,7453432.0,0.0
1577725695185,7911716.0,7477315.0,0.0
1577725695231,7928631.0,7698599.0,0.0
1577725695283,8137511.0,7752003.0,0.0
1577725695331,8364734.0,7898392.0,0.0
1577725695385,8619753.0,8147594.0,0.0
1577725695433,8941919.0,7997585.0,0.0
1577725695474,9108936.0,7910225.0,0.0
1577725695529,9216118.0,7824565.0,0.0
1577725695570,9231077.0,7765283.0,0.0
1577725695628,9325380.0,7796188.0,0.0
1577725695677,9386167.0,7830005.0,0.0
1577725695727,9407481.0,7813880.0,0.0
1577725695772,9366439.0,7888458.0,0.0
1577725695824,9109556.0,8043768.0,0.0
1577725695872,8883193.0,7924906.0,0.0
1577725695916,8934813.0,8107168.0,0.0
1577725695966,9247222.0,8326908.0,0.0
1577725696014,9654669.0,8619328.0,0.0
1577725696065,9734232.0,8589130.0,0.0
1577725696113,9547303.0,8649760.0,0.0
1577725696162,9486736.0,8837166.0,0.0
1577725696215,9567668.0,8989848.0,0.0
1577725696262,9636109.0,9210773.0,0.0
1577725696311,9656950.0,9388405.0,0.0
1577725696363,9715052.0,9633237.0,0.0
1577725696423,9865961.0,9879886.0,0.0
1577725696463,9910180.0,1.0040679E7,0.0
1577725696505,9862288.0,1.0104394E7,0.0
1577725696562,9847624.0,1.0154912E7,0.0
1577725696611,9780279.0,1.0149984E7,0.0
1577725696658,9679727.0,1.0079224E7,0.0
1577725696708,9579286.0,9902442.0,0.0
1577725696753,9520364.0,9691452.0,0.0
1577725696807,9507449.0,9556401.0,0.0
1577725696857,9526409.0,9573280.0,0.0
1577725696900,9580071.0,9581671.0,0.0
1577725696963,9571104.0,9541383.0,0.0
1577725696996,9582464.0,9523473.0,0.0
1577725697053,9441841.0,9392878.0,0.0
1577725697101,9321800.0,9297088.0,0.0
1577725697144,9395282.0,9515918.0,0.0
1577725697193,9394093.0,9678211.0,0.0
1577725697249,9442733.0,9705201.0,0.0
1577725697294,9466131.0,9612992.0,0.0
1577725697347,9486444.0,9475747.0,0.0
1577725697394,9500343.0,9349070.0,0.0
1577725697436,9521148.0,9312124.0,0.0
1577725697492,9586409.0,9309020.0,0.0
1577725697541,9595982.0,9290833.0,0.0
1577725697586,9574682.0,9321464.0,0.0
1577725697635,9595030.0,9412053.0,0.0
1577725697692,9630355.0,9523395.0,0.0
1577725697733,9675802.0,9651580.0,0.0
1577725697790,9716256.0,9794979.0,0.0
1577725697834,9785977.0,9939171.0,0.0
1577725697888,9824150.0,1.0045923E7,0.0
1577725697936,9869085.0,1.013372E7,0.0
1577725697980,9914692.0,1.0214887E7,0.0
1577725698033,9942875.0,1.0231669E7,0.0
1577725698075,9972939.0,1.0126993E7,0.0
1577725698130,9908499.0,9906282.0,0.0
1577725698175,9626430.0,9606385.0,0.0
1577725698231,9446678.0,9508359.0,0.0
1577725698274,9336303.0,9445194.0,0.0
1577725698330,9275444.0,9399210.0,0.0
1577725698380,9206692.0,9365155.0,0.0
1577725698428,9144900.0,9297482.0,0.0
1577725698477,9180865.0,9366798.0,0.0
1577725698525,9181797.0,9304903.0,0.0
1577725698573,9261725.0,9354232.0,0.0
1577725698617,9368395.0,9454712.0,0.0
1577725698674,9428506.0,9557073.0,0.0
1577725698719,9523085.0,9627694.0,0.0
1577725698772,9623233.0,9800320.0,0.0
1577725698814,9727491.0,9976846.0,0.0
1577725698869,9929668.0,1.0202421E7,0.0
1577725698920,1.0095245E7,1.0352312E7,0.0
1577725698966,1.0275689E7,1.0436704E7,0.0
1577725699019,1.0447602E7,1.0515438E7,0.0
1577725699064,1.0550144E7,1.0563146E7,0.0
1577725699112,1.0609014E7,1.0561031E7,0.0
1577725699157,1.0655425E7,1.0527054E7,0.0
1577725699209,1.066602E7,1.0501191E7,0.0
1577725699256,1.0459201E7,1.0564312E7,0.0
1577725699305,1.045909E7,1.0594986E7,0.0
1577725699353,1.0393974E7,1.0569379E7,0.0
1577725699408,1.0507913E7,1.0700334E7,0.0
1577725699455,1.0481119E7,1.0707715E7,0.0
1577725699501,1.0492278E7,1.0817713E7,0.0
1577725699557,1.0429886E7,1.0836135E7,0.0
1577725699598,1.0388804E7,1.084763E7,0.0
1577725699652,1.0480551E7,1.0849528E7,0.0
1577725699699,1.0540645E7,1.0770321E7,0.0
1577725699749,1.0467055E7,1.0650688E7,0.0
1577725699797,1.0392677E7,1.0559072E7,0.0
1577725699846,1.0332182E7,1.0485344E7,0.0
1577725699894,1.0215962E7,1.0431818E7,0.0
1577725699953,1.0115354E7,1.047521E7,0.0
1577725699995,1.0122187E7,1.05656E7,0.0
1577725700048,1.0130989E7,1.0689944E7,0.0
1577725700099,1.0218446E7,1.0799587E7,0.0
1577725700140,1.0408149E7,1.1014005E7,0.0
1577725700193,1.0508114E7,1.094176E7,0.0
1577725700243,1.0401355E7,1.0820561E7,0.0
1577725700292,1.037096E7,1.0702392E7,0.0
1577725700340,1.0335123E7,1.0570823E7,0.0
1577725700393,1.0274921E7,1.0469038E7,0.0
