"1573152216725","4668003.0"
"1573152216729","4629351.0"
"1573152216832","4596024.0"
"1573152216838","4538800.0"
"1573152216864","4456697.0"
"1573152216906","4380769.0"
"1573152216955","4323149.0"
"1573152217005","4274681.0"
"1573152217053","4236501.0"
"1573152217105","4192483.0"
"1573152217153","4133235.0"
"1573152217200","4097944.0"
"1573152217253","4068750.0"
"1573152217296","4049101.0"
"1573152217347","4003868.0"
"1573152217395","3945230.0"
"1573152217444","3891464.0"
"1573152217493","3858868.0"
"1573152217541","3830349.0"
"1573152217591","3794555.0"
"1573152217639","3749219.0"
"1573152217689","3709314.0"
"1573152217737","3695270.0"
"1573152217786","3691637.0"
"1573152217833","3683634.0"
"1573152217883","3639761.0"
"1573152217934","3585889.0"
"1573152217980","3554797.0"
"1573152218034","3536698.0"
"1573152218076","3541658.0"
"1573152218130","3527037.0"
"1573152218177","3505944.0"
"1573152218226","3502275.0"
"1573152218274","3518880.0"
"1573152218323","3538432.0"
"1573152218376","3538990.0"
"1573152218421","3513081.0"
"1573152218476","3490397.0"
"1573152218520","3499635.0"
"1573152218567","3513957.0"
"1573152218623","3487045.0"
"1573152218667","3441428.0"
"1573152218720","3428916.0"
"1573152218761","3426297.0"
"1573152218819","3433530.0"
"1573152218862","3444193.0"
"1573152218913","3441389.0"
"1573152218955","3428406.0"
"1573152219010","3394897.0"
"1573152219057","3405915.0"
"1573152219104","3395435.0"
"1573152219166","3436064.0"
"1573152219206","3457611.0"
"1573152219254","3467001.0"
"1573152219297","3497285.0"
"1573152219351","3502149.0"
"1573152219393","3490551.0"
"1573152219449","3431499.0"
"1573152219496","3355068.0"
"1573152219546","3329255.0"
"1573152219595","3361030.0"
"1573152219639","3395350.0"
"1573152219689","3393702.0"
"1573152219740","3358285.0"
"1573152219791","3396918.0"
"1573152219832","3428733.0"
"1573152219888","3443547.0"
"1573152219936","3451194.0"
"1573152219985","3477491.0"
"1573152220034","3514959.0"
"1573152220079","3589115.0"
"1573152220132","3765948.0"
"1573152220175","3834703.0"
"1573152220230","3842649.0"
"1573152220278","3856036.0"
"1573152220326","3939709.0"
"1573152220376","4049523.0"
"1573152220424","4141866.0"
"1573152220469","4180289.0"
"1573152220520","4165772.0"
"1573152220565","4156960.0"
"1573152220621","4062961.0"
"1573152220664","4131742.0"
"1573152220721","4164183.0"
"1573152220761","4194486.0"
"1573152220814","4191404.0"
"1573152220863","4222939.0"
"1573152220913","4237541.0"
"1573152220957","4172832.0"
"1573152221006","4125261.0"
"1573152221057","4078612.0"
"1573152221112","4111380.0"
"1573152221163","4133632.0"
"1573152221207","4142425.0"
"1573152221254","4149388.0"
"1573152221303","4105805.0"
"1573152221355","4066574.0"
"1573152221395","4084228.0"
"1573152221450","4140470.0"
"1573152221501","4140355.0"
"1573152221547","4151643.0"
"1573152221592","4131358.0"
"1573152221641","4097357.0"
"1573152221695","4053185.0"
"1573152221735","4039988.0"
"1573152221786","4021215.0"
"1573152221835","4027418.0"
"1573152221882","4013336.0"
"1573152221938","4041790.0"
"1573152221981","4044361.0"
"1573152222029","4019328.0"
"1573152222082","3914185.0"
"1573152222134","3889932.0"
"1573152222177","3929443.0"
"1573152222227","3988815.0"
"1573152222275","4058973.0"
"1573152222322","4100882.0"
"1573152222377","4129450.0"
"1573152222425","4152508.0"
"1573152222473","4100102.0"
"1573152222519","4070599.0"
"1573152222569","4019588.0"
"1573152222624","4002789.0"
"1573152222670","4034614.0"
"1573152222719","4079209.0"
"1573152222762","4105071.0"
"1573152222817","4104301.0"
"1573152222860","4069270.0"
"1573152222909","4063837.0"
"1573152222961","4045661.0"
"1573152223012","4101623.0"
"1573152223058","4155843.0"
"1573152223113","4181406.0"
"1573152223161","4178824.0"
"1573152223207","4140566.0"
"1573152223256","4087050.0"
"1573152223297","4074942.0"
"1573152223355","4063384.0"
"1573152223402","4073614.0"
"1573152223444","4116872.0"
"1573152223499","4149004.0"
"1573152223547","4151584.0"
"1573152223597","4134873.0"
"1573152223649","4132542.0"
"1573152223694","4066159.0"
"1573152223737","4112103.0"
"1573152223793","4169134.0"
"1573152223842","4204281.0"
"1573152223889","4261091.0"
"1573152223938","4259559.0"
"1573152223987","4244110.0"
"1573152224037","4214635.0"
"1573152224085","4172930.0"
"1573152224136","4161775.0"
"1573152224186","4119722.0"
"1573152224244","4111130.0"
"1573152224291","4211833.0"
"1573152224331","4266455.0"
"1573152224379","4290622.0"
"1573152224421","4250428.0"
"1573152224473","4309847.0"
"1573152224526","4231029.0"
"1573152224568","4278842.0"
"1573152224622","4371781.0"
"1573152224671","4439456.0"
"1573152224719","4477366.0"
"1573152224761","4512475.0"
"1573152224812","4519306.0"
"1573152224862","4400995.0"
"1573152224912","4291258.0"
"1573152224961","4196884.0"
"1573152225014","4262121.0"
"1573152225057","4311842.0"
"1573152225104","4408596.0"
"1573152225159","4412871.0"
"1573152225203","4377165.0"
"1573152225254","4388898.0"
"1573152225302","4363940.0"
"1573152225355","4402931.0"
"1573152225402","4467090.0"
"1573152225451","4528233.0"
"1573152225500","4570170.0"
"1573152225545","4619920.0"
"1573152225597","4632953.0"
"1573152225640","4601504.0"
"1573152225696","4489069.0"
"1573152225742","4395235.0"
"1573152225794","4374334.0"
"1573152225842","4432512.0"
"1573152225888","4549308.0"
"1573152225940","4585014.0"
"1573152225981","4535198.0"
"1573152226036","4530180.0"
"1573152226085","4524064.0"
"1573152226128","4537914.0"
"1573152226183","4609672.0"
"1573152226231","4636690.0"
"1573152226281","4654740.0"
"1573152226321","4651158.0"
"1573152226378","4649750.0"
"1573152226423","4593645.0"
"1573152226477","4507727.0"
"1573152226524","4437115.0"
"1573152226567","4521760.0"
"1573152226621","4542961.0"
"1573152226663","4597883.0"
"1573152226718","4626663.0"
"1573152226765","4635034.0"
"1573152226810","4656290.0"
"1573152226864","4694916.0"
"1573152226910","4834742.0"
"1573152226964","4968214.0"
"1573152227006","5097908.0"
"1573152227055","5282119.0"
"1573152227105","5286859.0"
"1573152227154","5216969.0"
"1573152227202","5169233.0"
"1573152227252","5140482.0"
"1573152227296","5144151.0"
"1573152227350","5187187.0"
"1573152227401","5144055.0"
"1573152227442","5162384.0"
"1573152227500","5215089.0"
"1573152227546","5333245.0"
"1573152227593","5399168.0"
"1573152227645","5372515.0"
"1573152227694","5332398.0"
"1573152227737","5465994.0"
"1573152227791","5362285.0"
"1573152227841","5597547.0"
"1573152227882","5706841.0"
"1573152227939","5617881.0"
"1573152227985","5434305.0"
"1573152228034","5169704.0"
"1573152228086","5180838.0"
"1573152228125","5037303.0"
"1573152228182","5031438.0"
"1573152228223","5243467.0"
"1573152228281","5279644.0"
"1573152228325","5223200.0"
"1573152228373","5310736.0"
"1573152228425","5060400.0"
"1573152228472","5297290.0"
"1573152228522","5587116.0"
"1573152228566","5547355.0"
"1573152228623","5526135.0"
"1573152228666","5415127.0"
"1573152228719","5285914.0"
"1573152228767","5169781.0"
"1573152228817","5113213.0"
"1573152228859","5043025.0"
"1573152228912","5059458.0"
"1573152228962","5137235.0"
"1573152229003","5143891.0"
"1573152229055","5132304.0"
"1573152229106","5070919.0"
"1573152229156","4988700.0"
"1573152229206","4986493.0"
"1573152229254","4979646.0"
"1573152229304","4978220.0"
"1573152229347","4980311.0"
"1573152229396","4939172.0"
"1573152229445","4896359.0"
"1573152229497","4854873.0"
"1573152229546","4788211.0"
"1573152229593","4707072.0"
"1573152229639","4726682.0"
"1573152229690","4734378.0"
"1573152229737","4736390.0"
"1573152229790","4723600.0"
"1573152229843","4678272.0"
"1573152229887","4566001.0"
"1573152229931","4571203.0"
"1573152229984","4576548.0"
"1573152230034","4612648.0"
"1573152230087","4607032.0"
"1573152230128","4586508.0"
"1573152230181","4544493.0"
"1573152230228","4483147.0"
"1573152230280","4429553.0"
"1573152230327","4321416.0"
"1573152230371","4293560.0"
"1573152230426","4364606.0"
"1573152230467","4428948.0"
"1573152230523","4532752.0"
"1573152230568","4512524.0"
"1573152230621","4447490.0"
"1573152230662","4294042.0"
"1573152230720","4317968.0"
"1573152230766","4403171.0"
"1573152230815","4516666.0"
"1573152230863","4546497.0"
"1573152230906","4532278.0"
"1573152230962","4511975.0"
"1573152231006","4458680.0"
"1573152231053","4379843.0"
"1573152231100","4310753.0"
"1573152231152","4295072.0"
"1573152231201","4309674.0"
"1573152231252","4320115.0"
"1573152231298","4376492.0"
"1573152231347","4286606.0"
"1573152231399","4156247.0"
"1573152231451","4199358.0"
"1573152231500","4169211.0"
"1573152231540","4218286.0"
"1573152231594","4251142.0"
"1573152231638","4240902.0"
"1573152231688","4202394.0"
"1573152231743","4136714.0"
"1573152231791","4101950.0"
"1573152231833","4081483.0"
"1573152231889","4027014.0"
"1573152231939","4027843.0"
"1573152231985","4100140.0"
"1573152232032","4143398.0"
"1573152232078","4112229.0"
"1573152232129","4081251.0"
"1573152232182","4084354.0"
"1573152232231","4101971.0"
"1573152232274","4136376.0"
"1573152232329","4167198.0"
"1573152232370","4164136.0"
"1573152232425","4156525.0"
"1573152232469","4142886.0"
"1573152232523","4124403.0"
"1573152232572","4119588.0"
"1573152232615","4074201.0"
"1573152232662","4079104.0"
"1573152232711","4128863.0"
"1573152232766","4172168.0"
"1573152232811","4161631.0"
"1573152232864","4165918.0"
"1573152232910","4010235.0"
"1573152232956","4055718.0"
"1573152233011","4126878.0"
"1573152233055","4174027.0"
"1573152233108","4174384.0"
"1573152233152","4180075.0"
"1573152233198","4157411.0"
"1573152233249","4120137.0"
"1573152233301","4090181.0"
"1573152233353","4037079.0"
"1573152233402","4021292.0"
"1573152233450","4042030.0"
"1573152233498","4088708.0"
"1573152233547","4119549.0"
"1573152233596","4042030.0"
"1573152233644","4008791.0"
"1573152233691","4040701.0"
"1573152233741","4057557.0"
"1573152233786","4084796.0"
"1573152233838","4108308.0"
"1573152233890","4129373.0"
"1573152233931","4150987.0"
"1573152233978","4129623.0"
"1573152234031","4106294.0"
"1573152234078","4045277.0"
"1573152234128","4013444.0"
"1573152234176","4009012.0"
"1573152234232","4036790.0"
"1573152234279","4091800.0"
"1573152234328","4128438.0"
"1573152234372","4093062.0"
"1573152234427","4056025.0"
"1573152234471","4086751.0"
"1573152234527","4119722.0"
"1573152234568","4150072.0"
"1573152234620","4149282.0"
"1573152234669","4162017.0"
"1573152234712","4149629.0"
"1573152234768","4145381.0"
"1573152234812","4177850.0"
"1573152234864","4178255.0"
"1573152234915","4182532.0"
"1573152234961","4163191.0"
"1573152235011","4189958.0"
"1573152235055","4215696.0"
"1573152235109","4178988.0"
"1573152235152","4135094.0"
"1573152235204","4095104.0"
"1573152235253","4145381.0"
"1573152235304","4139979.0"
"1573152235348","4142203.0"
"1573152235400","4139371.0"
"1573152235450","4128438.0"
"1573152235492","4099870.0"
"1573152235546","4065773.0"
"1573152235594","4027255.0"
"1573152235646","3971986.0"
"1573152235694","3980897.0"
"1573152235741","4010485.0"
"1573152235785","4064424.0"
"1573152235834","4042648.0"
"1573152235884","4031244.0"
"1573152235937","3914589.0"
"1573152235984","3960187.0"
"1573152236036","3958820.0"
"1573152236085","4009715.0"
"1573152236126","4036406.0"
"1573152236176","4051990.0"
"1573152236225","4030317.0"
"1573152236272","3978055.0"
"1573152236323","3905208.0"
"1573152236378","3827035.0"
"1573152236418","3804054.0"
"1573152236473","3884115.0"
"1573152236516","3978719.0"
"1573152236566","4020638.0"
"1573152236615","4001028.0"
"1573152236670","3895133.0"
"1573152236717","3872402.0"
"1573152236764","3883257.0"
"1573152236813","3931215.0"
"1573152236859","3915871.0"
"1573152236914","3925321.0"
"1573152236958","3918173.0"
"1573152237012","3924945.0"
"1573152237054","3919108.0"
"1573152237108","3858369.0"
"1573152237157","3853350.0"
"1573152237202","3899824.0"
"1573152237253","3980588.0"
"1573152237296","4060476.0"
"1573152237353","4063201.0"
"1573152237394","4099427.0"
"1573152237450","4004774.0"
"1573152237495","4031628.0"
"1573152237542","4065706.0"
"1573152237590","4054899.0"
"1573152237640","4015813.0"
"1573152237694","3981080.0"
"1573152237735","3919638.0"
"1573152237785","3856875.0"
"1573152237835","3852155.0"
"1573152237882","3835530.0"
"1573152237932","3889123.0"
"1573152237980","3951567.0"
"1573152238030","4050064.0"
"1573152238077","4029537.0"
"1573152238127","3912423.0"
"1573152238176","3923009.0"
"1573152238224","3851385.0"
"1573152238275","3945392.0"
"1573152238322","3998927.0"
"1573152238371","4057142.0"
"1573152238419","4081127.0"
"1573152238469","4054003.0"
"1573152238517","3872075.0"
"1573152238563","3767789.0"
"1573152238616","3772296.0"
"1573152238662","3781727.0"
"1573152238713","3851442.0"
"1573152238765","3981320.0"
"1573152238813","4047242.0"
"1573152238862","4018393.0"
"1573152238913","3950248.0"
"1573152238955","3950045.0"
"1573152239010","3944179.0"
"1573152239056","3954822.0"
"1573152239109","3990674.0"
"1573152239154","4019222.0"
"1573152239204","4065773.0"
"1573152239256","4028064.0"
"1573152239295","3943111.0"
"1573152239353","3996838.0"
"1573152239400","4030819.0"
"1573152239449","4025386.0"
"1573152239491","4088553.0"
"1573152239545","4184450.0"
"1573152239591","4179277.0"
"1573152239642","4143676.0"
"1573152239687","4105071.0"
"1573152239737","4124269.0"
"1573152239784","4113991.0"
"1573152239842","4162854.0"
"1573152239882","4216937.0"
"1573152239930","4246507.0"
"1573152239977","4304347.0"
"1573152240029","4277388.0"
"1573152240076","4168874.0"
"1573152240127","4204541.0"
"1573152240177","4295188.0"
"1573152240223","4416859.0"
"1573152240280","4410280.0"
"1573152240329","4369412.0"
"1573152240372","4387405.0"
"1573152240422","4337192.0"
"1573152240474","4391633.0"
"1573152240522","4415481.0"
"1573152240564","4414075.0"
"1573152240620","4472937.0"
"1573152240668","4546015.0"
"1573152240715","4531951.0"
"1573152240766","4507052.0"
"1573152240815","4481046.0"
"1573152240859","4441990.0"
"1573152240913","4371338.0"
"1573152240962","4315522.0"
"1573152241009","4314404.0"
"1573152241054","4319500.0"
"1573152241108","4329130.0"
"1573152241156","4386336.0"
"1573152241202","4416282.0"
"1573152241256","4326790.0"
"1573152241302","4368361.0"
"1573152241348","4328380.0"
"1573152241401","4407623.0"
"1573152241450","4413401.0"
"1573152241496","4474796.0"
"1573152241545","4489705.0"
"1573152241593","4484349.0"
"1573152241640","4440766.0"
"1573152241693","4280547.0"
"1573152241743","4182706.0"
"1573152241784","4150198.0"
"1573152241836","4151623.0"
"1573152241889","4205370.0"
"1573152241932","4267255.0"
"1573152241978","4298213.0"
"1573152242037","4258799.0"
"1573152242082","4287203.0"
"1573152242126","4276849.0"
"1573152242181","4282975.0"
"1573152242229","4299609.0"
"1573152242272","4309625.0"
"1573152242320","4310292.0"
"1573152242371","4303345.0"
"1573152242423","4357642.0"
"1573152242474","4485227.0"
"1573152242515","4482194.0"
"1573152242564","4498962.0"
"1573152242620","4571259.0"
"1573152242665","4530306.0"
"1573152242716","4578562.0"
"1573152242762","4618987.0"
"1573152242816","4535814.0"
"1573152242862","4529196.0"
"1573152242906","4515317.0"
"1573152242962","4536576.0"
"1573152243008","4568775.0"
"1573152243053","4591236.0"
"1573152243099","4610202.0"
"1573152243153","4626913.0"
"1573152243201","4593509.0"
"1573152243252","4584919.0"
"1573152243302","4570768.0"
"1573152243343","4539166.0"
"1573152243401","4533020.0"
"1573152243441","4628030.0"
"1573152243490","4674082.0"
"1573152243543","4670874.0"
"1573152243591","4615460.0"
"1573152243643","4581180.0"
"1573152243693","4606898.0"
"1573152243742","4568496.0"
"1573152243783","4582741.0"
"1573152243839","4622482.0"
"1573152243880","4660201.0"
"1573152243934","4657804.0"
"1573152243980","4613583.0"
"1573152244028","4651264.0"
"1573152244075","4759507.0"
"1573152244124","4658669.0"
"1573152244173","4634321.0"
"1573152244224","4684292.0"
"1573152244274","4721365.0"
"1573152244320","4685765.0"
"1573152244372","4650329.0"
"1573152244422","4630757.0"
"1573152244473","4708766.0"
"1573152244523","4671634.0"
"1573152244564","4697313.0"
"1573152244620","4719004.0"
"1573152244661","4710337.0"
"1573152244715","4671114.0"
"1573152244764","4619652.0"
"1573152244816","4710712.0"
"1573152244863","4776691.0"
"1573152244913","4702524.0"
"1573152244955","4751947.0"
"1573152245005","4836390.0"
"1573152245051","4811125.0"
"1573152245104","4737989.0"
"1573152245154","4732046.0"
"1573152245204","4743527.0"
"1573152245255","4738962.0"
"1573152245303","4802919.0"
"1573152245343","4849229.0"
"1573152245401","4879463.0"
"1573152245441","4852071.0"
"1573152245498","4808033.0"
"1573152245543","4744212.0"
"1573152245593","4754633.0"
"1573152245644","4724967.0"
"1573152245691","4737873.0"
"1573152245742","4816268.0"
"1573152245782","4830679.0"
"1573152245841","4896782.0"
"1573152245882","4829763.0"
"1573152245937","4736958.0"
"1573152245984","4759102.0"
"1573152246035","4764399.0"
"1573152246085","4732702.0"
"1573152246127","4775082.0"
"1573152246182","4795050.0"
"1573152246223","4772636.0"
"1573152246280","4750752.0"
"1573152246323","4704623.0"
"1573152246376","4765998.0"
"1573152246425","4822231.0"
"1573152246473","4759228.0"
"1573152246523","4746465.0"
"1573152246571","4856232.0"
"1573152246621","4816056.0"
"1573152246664","4758621.0"
"1573152246721","4744173.0"
"1573152246765","4771941.0"
"1573152246811","4760192.0"
"1573152246860","4764862.0"
"1573152246909","4800963.0"
"1573152246957","4811617.0"
"1573152247006","4827221.0"
"1573152247055","4799075.0"
"1573152247106","4772790.0"
"1573152247158","4777587.0"
"1573152247200","4725583.0"
"1573152247254","4701041.0"
"1573152247304","4693662.0"
"1573152247348","4697073.0"
"1573152247403","4705857.0"
"1573152247443","4692354.0"
"1573152247501","4657284.0"
"1573152247546","4667444.0"
"1573152247597","4614749.0"
"1573152247646","4579852.0"
"1573152247691","4601370.0"
"1573152247745","4589994.0"
"1573152247787","4575825.0"
"1573152247842","4568120.0"
"1573152247889","4535458.0"
"1573152247941","4501822.0"
"1573152247988","4478445.0"
"1573152248037","4483319.0"
"1573152248087","4480314.0"
"1573152248131","4482905.0"
"1573152248183","4507477.0"
"1573152248233","4476076.0"
"1573152248281","4445909.0"
"1573152248326","4461600.0"
"1573152248379","4414480.0"
"1573152248426","4406842.0"
"1573152248476","4379621.0"
"1573152248524","4374834.0"
"1573152248571","4362689.0"
"1573152248617","4363335.0"
"1573152248667","4309126.0"
"1573152248715","4391710.0"
"1573152248761","4336105.0"
"1573152248812","4305418.0"
"1573152248865","4282821.0"
"1573152248913","4277079.0"
"1573152248964","4299869.0"
"1573152249007","4298242.0"
"1573152249055","4292404.0"
"1573152249109","4346199.0"
"1573152249160","4354647.0"
"1573152249207","4346469.0"
"1573152249255","4323602.0"
"1573152249297","4311369.0"
"1573152249346","4299812.0"
"1573152249402","4288262.0"
"1573152249449","4255022.0"
"1573152249498","4246036.0"
"1573152249546","4189882.0"
"1573152249590","4144554.0"
"1573152249641","4135769.0"
"1573152249691","4157104.0"
"1573152249738","4162218.0"
"1573152249786","4137252.0"
"1573152249834","4120320.0"
"1573152249885","4227687.0"
"1573152249941","4193696.0"
"1573152249981","4174230.0"
"1573152250032","4182003.0"
"1573152250079","4197674.0"
"1573152250129","4218518.0"
"1573152250174","4226704.0"
"1573152250229","4228516.0"
"1573152250281","4243724.0"
"1573152250328","4212892.0"
"1573152250373","4200082.0"
"1573152250420","4204830.0"
"1573152250473","4261284.0"
"1573152250524","4266225.0"
"1573152250572","4243386.0"
"1573152250615","4273747.0"
"1573152250670","4311476.0"
"1573152250720","4300688.0"
"1573152250768","4298097.0"
"1573152250814","4293203.0"
"1573152250866","4311428.0"
"1573152250908","4332099.0"
"1573152250961","4325664.0"
"1573152251011","4310223.0"
"1573152251055","4330605.0"
"1573152251112","4335884.0"
"1573152251158","4352286.0"
"1573152251208","4378650.0"
"1573152251255","4406178.0"
"1573152251306","4394619.0"
"1573152251352","4354771.0"
"1573152251403","4375308.0"
"1573152251452","4398201.0"
"1573152251501","4406881.0"
"1573152251547","4408326.0"
"1573152251596","4418102.0"
"1573152251647","4431894.0"
"1573152251689","4419354.0"
"1573152251745","4348367.0"
"1573152251791","4367890.0"
"1573152251841","4367091.0"
"1573152251891","4504096.0"
"1573152251941","4388051.0"
"1573152251988","4585457.0"
"1573152252032","4605212.0"
"1573152252086","4587095.0"
"1573152252130","4420847.0"
"1573152252183","4438290.0"
"1573152252233","4416483.0"
"1573152252279","4420067.0"
"1573152252330","4444416.0"
"1573152252376","4451996.0"
"1573152252427","4478350.0"
"1573152252470","4440053.0"
"1573152252525","4444966.0"
"1573152252569","4599877.0"
"1573152252616","4568005.0"
"1573152252672","4590602.0"
"1573152252719","4650530.0"
"1573152252762","4699481.0"
"1573152252812","4696196.0"
"1573152252866","4613804.0"
"1573152252911","4610346.0"
"1573152252960","4619016.0"
"1573152253015","4626326.0"
"1573152253057","4662310.0"
"1573152253105","4680949.0"
"1573152253154","4675218.0"
"1573152253209","4653295.0"
"1573152253252","4637277.0"
"1573152253304","4647226.0"
"1573152253353","4694702.0"
"1573152253402","4680697.0"
"1573152253454","4746004.0"
"1573152253495","4742796.0"
"1573152253548","4769080.0"
"1573152253594","4689145.0"
"1573152253641","4670825.0"
"1573152253693","4621848.0"
"1573152253745","4603085.0"
"1573152253795","4603971.0"
"1573152253840","4642257.0"
"1573152253891","4666558.0"
"1573152253937","4684531.0"
"1573152253989","4668399.0"
"1573152254036","4611185.0"
"1573152254086","4588944.0"
"1573152254133","4590437.0"
"1573152254175","4637488.0"
"1573152254235","4662369.0"
"1573152254276","4689761.0"
"1573152254330","4684889.0"
"1573152254374","4616415.0"
"1573152254429","4563074.0"
"1573152254476","4598432.0"
"1573152254523","4572763.0"
"1573152254573","4577231.0"
"1573152254617","4579581.0"
"1573152254672","4573446.0"
"1573152254721","4573958.0"
"1573152254771","4496940.0"
"1573152254819","4471974.0"
"1573152254861","4434265.0"
"1573152254913","4379400.0"
"1573152254958","4348838.0"
"1573152255006","4352644.0"
"1573152255055","4415134.0"
"1573152255106","4376636.0"
"1573152255154","4353424.0"
"1573152255203","4306322.0"
"1573152255255","4317255.0"
"1573152255305","4312486.0"
"1573152255353","4319268.0"
"1573152255399","4315367.0"
"1573152255454","4335104.0"
"1573152255494","4321560.0"
"1573152255547","4264405.0"
"1573152255595","4217949.0"
"1573152255648","4185451.0"
"1573152255697","4162797.0"
"1573152255744","4210629.0"
"1573152255789","4254811.0"
"1573152255837","4276628.0"
"1573152255893","4247913.0"
"1573152255934","4204956.0"
"1573152255985","4226482.0"
"1573152256034","4219625.0"
"1573152256082","4214857.0"
"1573152256134","4231454.0"
"1573152256178","4243407.0"
"1573152256232","4273670.0"
"1573152256282","4278505.0"
"1573152256326","4223660.0"
"1573152256374","4176089.0"
"1573152256430","4111650.0"
"1573152256473","4080404.0"
"1573152256528","4120791.0"
"1573152256578","4141586.0"
"1573152256619","4160282.0"
"1573152256674","4118306.0"
"1573152256721","4113674.0"
"1573152256775","4147848.0"
"1573152256822","4092531.0"
"1573152256870","4113980.0"
"1573152256919","4127313.0"
"1573152256969","4136704.0"
"1573152257017","4140836.0"
"1573152257060","4128621.0"
"1573152257113","4128768.0"
"1573152257157","4245747.0"
"1573152257213","4264925.0"
"1573152257263","4258828.0"
"1573152257309","4309973.0"
"1573152257360","4343848.0"
"1573152257407","4303683.0"
"1573152257455","4291789.0"
"1573152257502","4329776.0"
"1573152257549","4320741.0"
"1573152257598","4304512.0"
"1573152257652","4380682.0"
"1573152257700","4369334.0"
"1573152257748","4396816.0"
"1573152257796","4411003.0"
"1573152257844","4371888.0"
"1573152257892","4411070.0"
"1573152257941","4417070.0"
"1573152257990","4373930.0"
"1573152258038","4333994.0"
"1573152258091","4384150.0"
"1573152258139","4421329.0"
"1573152258188","4376011.0"
"1573152258234","4368564.0"
"1573152258285","4422243.0"
"1573152258335","4372071.0"
"1573152258380","4365897.0"
"1573152258433","4403462.0"
"1573152258479","4423100.0"
"1573152258523","4441421.0"
"1573152258579","4417706.0"
"1573152258620","4396247.0"
"1573152258673","4377079.0"
"1573152258718","4281896.0"
"1573152258768","4257834.0"
"1573152258816","4246074.0"
"1573152258865","4280326.0"
"1573152258914","4253781.0"
"1573152258962","4200949.0"
"1573152259012","4175433.0"
"1573152259057","4303559.0"
"1573152259108","4243195.0"
"1573152259157","4246999.0"
"1573152259205","4293715.0"
"1573152259257","4317901.0"
"1573152259304","4326810.0"
"1573152259354","4289794.0"
"1573152259403","4270029.0"
"1573152259452","4225357.0"
"1573152259498","4183631.0"
"1573152259551","4186355.0"
"1573152259597","4249581.0"
"1573152259647","4251901.0"
"1573152259703","4251410.0"
"1573152259750","4199013.0"
"1573152259797","4278765.0"
"1573152259849","4250274.0"
"1573152259895","4250032.0"
"1573152259945","4264500.0"
"1573152259994","4292530.0"
"1573152260042","4331924.0"
"1573152260096","4322899.0"
"1573152260142","4247413.0"
"1573152260190","4143185.0"
"1573152260238","4099456.0"
"1573152260286","4117737.0"
"1573152260334","4143244.0"
"1573152260377","4182359.0"
"1573152260435","4177042.0"
"1573152260481","4147443.0"
"1573152260530","4180482.0"
"1573152260581","4194226.0"
"1573152260622","4194881.0"
"1573152260671","4245969.0"
"1573152260720","4256688.0"
"1573152260773","4277928.0"
"1573152260820","4270155.0"
"1573152260874","4267284.0"
"1573152260922","4261611.0"
"1573152260971","4232561.0"
"1573152261018","4166698.0"
"1573152261062","4131386.0"
"1573152261119","4168643.0"
"1573152261162","4199369.0"
"1573152261210","4177273.0"
"1573152261260","4140363.0"
"1573152261307","4106112.0"
"1573152261361","4091481.0"
"1573152261406","4183438.0"
"1573152261456","4202355.0"
"1573152261503","4230857.0"
"1573152261551","4258171.0"
"1573152261602","4271955.0"
"1573152261654","4237328.0"
"1573152261702","4166119.0"
"1573152261745","4148425.0"
"1573152261793","4163547.0"
"1573152261847","4220424.0"
"1573152261898","4312025.0"
"1573152261939","4313153.0"
"1573152261993","4216947.0"
"1573152262041","4214885.0"
"1573152262093","4187300.0"
"1573152262141","4170174.0"
"1573152262187","4220300.0"
"1573152262239","4248464.0"
"1573152262280","4261176.0"
"1573152262331","4292067.0"
"1573152262382","4299493.0"
"1573152262436","4296622.0"
"1573152262483","4323766.0"
"1573152262532","4317198.0"
"1573152262581","4363324.0"
"1573152262624","4401294.0"
"1573152262679","4472348.0"
"1573152262720","4417351.0"
"1573152262774","4391113.0"
"1573152262821","4372370.0"
"1573152262872","4404695.0"
"1573152262922","4428899.0"
"1573152262969","4488021.0"
"1573152263021","4503556.0"
"1573152263061","4523331.0"
"1573152263110","4506890.0"
"1573152263161","4466665.0"
"1573152263211","4486595.0"
"1573152263257","4462978.0"
"1573152263308","4468650.0"
"1573152263356","4470653.0"
"1573152263411","4563110.0"
"1573152263461","4545080.0"
"1573152263500","4463323.0"
"1573152263552","4461196.0"
"1573152263605","4460241.0"
"1573152263656","4500695.0"
"1573152263702","4513034.0"
"1573152263750","4516368.0"
"1573152263801","4509807.0"
"1573152263848","4478589.0"
"1573152263893","4436392.0"
"1573152263944","4380661.0"
"1573152263992","4289322.0"
"1573152264045","4280393.0"
"1573152264095","4292857.0"
"1573152264143","4341451.0"
"1573152264187","4370848.0"
"1573152264240","4321560.0"
"1573152264282","4254541.0"
"1573152264340","4271926.0"
"1573152264383","4296545.0"
"1573152264430","4327879.0"
"1573152264481","4365886.0"
"1573152264533","4392240.0"
"1573152264581","4488742.0"
"1573152264622","4538049.0"
"1573152264680","4482135.0"
"1573152264723","4458691.0"
"1573152264774","4418872.0"
"1573152264822","4444734.0"
"1573152264876","4397710.0"
"1573152264923","4464893.0"
"1573152264971","4437646.0"
"1573152265014","4363652.0"
"1573152265071","4365377.0"
"1573152265117","4308807.0"
"1573152265168","4344821.0"
"1573152265214","4394841.0"
"1573152265265","4439543.0"
"1573152265314","4457545.0"
"1573152265362","4441526.0"
"1573152265403","4375076.0"
"1573152265461","4361803.0"
"1573152265504","4306265.0"
"1573152265552","4292713.0"
"1573152265606","4305956.0"
"1573152265653","4337954.0"
"1573152265704","4345092.0"
"1573152265749","4310714.0"
"1573152265802","4282166.0"
"1573152265843","4300515.0"
"1573152265900","4288637.0"
"1573152265946","4306582.0"
"1573152265997","4343328.0"
"1573152266045","4367553.0"
"1573152266090","4400197.0"
"1573152266144","4400900.0"
"1573152266185","4429265.0"
"1573152266241","4346142.0"
"1573152266283","4255869.0"
"1573152266340","4313228.0"
"1573152266387","4341711.0"
"1573152266430","4370992.0"
"1573152266484","4349850.0"
"1573152266532","4236905.0"
"1573152266582","4262198.0"
"1573152266631","4203107.0"
"1573152266681","4154609.0"
"1573152266725","4156180.0"
"1573152266779","4184978.0"
"1573152266821","4198011.0"
"1573152266874","4227880.0"
"1573152266924","4181097.0"
"1573152266965","4104628.0"
"1573152267021","4037890.0"
"1573152267068","3985395.0"
"1573152267120","3981878.0"
"1573152267168","4040634.0"
"1573152267217","4070233.0"
"1573152267267","4078681.0"
"1573152267313","4023172.0"
"1573152267364","3869927.0"
"1573152267405","3887573.0"
"1573152267462","3912413.0"
"1573152267508","4003059.0"
"1573152267554","4029568.0"
"1573152267607","4084431.0"
"1573152267657","4087003.0"
"1573152267697","4015504.0"
"1573152267749","3873509.0"
"1573152267803","3817788.0"
"1573152267848","3881033.0"
"1573152267901","3939210.0"
"1573152267950","3982303.0"
"1573152267999","3996519.0"
"1573152268041","3963241.0"
"1573152268090","3956104.0"
"1573152268136","3870128.0"
"1573152268189","3907134.0"
"1573152268233","3956750.0"
"1573152268286","4002876.0"
"1573152268332","4028190.0"
"1573152268390","4043619.0"
"1573152268437","3988545.0"
"1573152268486","3890115.0"
"1573152268534","3785512.0"
"1573152268583","3757878.0"
"1573152268626","3808272.0"
"1573152268682","3883999.0"
"1573152268731","3985944.0"
"1573152268771","3977555.0"
"1573152268819","3866103.0"
"1573152268871","3823837.0"
"1573152268919","3851674.0"
"1573152268968","3921940.0"
"1573152269023","3991905.0"
"1573152269071","4038302.0"
"1573152269118","4087031.0"
"1573152269162","4115157.0"
"1573152269217","4078797.0"
"1573152269267","3996442.0"
"1573152269311","3917547.0"
"1573152269361","3898648.0"
"1573152269408","3879048.0"
"1573152269462","3907974.0"
"1573152269512","3951479.0"
"1573152269555","3986001.0"
"1573152269610","3904091.0"
"1573152269656","3930636.0"
"1573152269705","3966671.0"
"1573152269751","3932342.0"
"1573152269803","3883296.0"
"1573152269851","3880175.0"
"1573152269901","3879722.0"
"1573152269950","3880521.0"
"1573152269995","3863040.0"
"1573152270045","3873414.0"
"1573152270090","3846588.0"
"1573152270145","3813233.0"
"1573152270189","3788190.0"
"1573152270243","3821342.0"
"1573152270292","3834711.0"
"1573152270341","3843063.0"
"1573152270389","3885531.0"
"1573152270433","3927921.0"
"1573152270487","3912817.0"
"1573152270530","3916930.0"
"1573152270584","3929008.0"
"1573152270630","3994400.0"
"1573152270682","4050005.0"
"1573152270731","4065850.0"
"1573152270778","4104301.0"
"1573152270821","4080867.0"
"1573152270871","4047674.0"
"1573152270925","3981523.0"
"1573152270970","4060793.0"
"1573152271024","4120878.0"
"1573152271069","4125549.0"
"1573152271114","4059841.0"
"1573152271171","4040210.0"
"1573152271214","4015156.0"
"1573152271269","4003917.0"
"1573152271311","4054851.0"
"1573152271366","4197703.0"
"1573152271413","4266493.0"
"1573152271464","4256188.0"
"1573152271505","4250032.0"
"1573152271555","4301612.0"
"1573152271609","4191865.0"
"1573152271659","4288186.0"
"1573152271707","4314376.0"
"1573152271752","4349320.0"
"1573152271804","4432723.0"
"1573152271852","4363739.0"
"1573152271903","4434755.0"
"1573152271951","4370655.0"
"1573152271997","4485160.0"
"1573152272042","4498750.0"
"1573152272091","4563699.0"
"1573152272147","4525730.0"
"1573152272192","4497826.0"
"1573152272240","4489465.0"
"1573152272293","4427954.0"
"1573152272334","4353259.0"
"1573152272392","4312746.0"
"1573152272433","4385824.0"
"1573152272488","4403086.0"
"1573152272535","4463835.0"
"1573152272584","4460897.0"
"1573152272635","4410965.0"
"1573152272684","4432262.0"
"1573152272733","4438146.0"
"1573152272774","4496497.0"
"1573152272823","4542817.0"
"1573152272873","4544280.0"
"1573152272929","4546842.0"
"1573152272976","4539782.0"
"1573152273023","4507448.0"
"1573152273073","4421010.0"
"1573152273123","4307959.0"
"1573152273172","4313701.0"
"1573152273214","4313413.0"
"1573152273261","4331790.0"
"1573152273315","4348954.0"
"1573152273360","4330103.0"
"1573152273415","4337828.0"
"1573152273459","4304589.0"
"1573152273514","4359037.0"
"1573152273556","4355388.0"
"1573152273610","4405965.0"
"1573152273653","4482761.0"
"1573152273708","4521693.0"
"1573152273757","4510049.0"
"1573152273798","4455974.0"
"1573152273851","4403423.0"
"1573152273897","4454694.0"
"1573152273947","4478368.0"
"1573152273996","4511301.0"
"1573152274047","4525074.0"
"1573152274094","4481576.0"
"1573152274149","4436364.0"
"1573152274191","4359135.0"
"1573152274239","4311765.0"
"1573152274295","4315645.0"
"1573152274339","4333850.0"
"1573152274393","4402064.0"
"1573152274435","4447546.0"
"1573152274490","4506099.0"
"1573152274535","4482366.0"
"1573152274587","4415819.0"
"1573152274632","4342846.0"
"1573152274682","4330721.0"
"1573152274727","4307488.0"
"1573152274774","4306438.0"
"1573152274824","4344330.0"
"1573152274873","4355435.0"
"1573152274928","4351467.0"
"1573152274979","4306574.0"
"1573152275019","4293164.0"
"1573152275068","4326887.0"
"1573152275115","4326434.0"
"1573152275167","4386393.0"
"1573152275216","4417572.0"
"1573152275264","4438290.0"
"1573152275313","4432077.0"
"1573152275368","4376645.0"
"1573152275414","4306834.0"
"1573152275464","4302681.0"
"1573152275515","4302807.0"
"1573152275556","4308490.0"
"1573152275612","4317350.0"
"1573152275654","4292000.0"
"1573152275709","4273978.0"
"1573152275760","4300533.0"
"1573152275800","4323584.0"
"1573152275857","4302720.0"
"1573152275902","4315367.0"
"1573152275955","4329853.0"
"1573152275999","4375509.0"
"1573152276046","4394995.0"
"1573152276101","4401294.0"
"1573152276150","4367110.0"
"1573152276196","4319134.0"
"1573152276246","4278119.0"
"1573152276292","4249002.0"
"1573152276338","4263365.0"
"1573152276393","4265973.0"
"1573152276438","4262227.0"
"1573152276490","4274923.0"
"1573152276538","4267794.0"
"1573152276587","4262458.0"
"1573152276632","4256526.0"
"1573152276683","4290872.0"
"1573152276736","4294879.0"
"1573152276780","4339831.0"
"1573152276824","4331452.0"
"1573152276881","4273806.0"
"1573152276924","4190787.0"
"1573152276976","4168151.0"
"1573152277027","4165532.0"
"1573152277074","4173084.0"
"1573152277116","4179835.0"
"1573152277175","4147598.0"
"1573152277219","4131232.0"
"1573152277270","4126724.0"
"1573152277319","4109966.0"
"1573152277368","4126600.0"
"1573152277416","4168287.0"
"1573152277459","4197239.0"
"1573152277512","4218075.0"
"1573152277557","4237665.0"
"1573152277614","4227937.0"
"1573152277657","4199080.0"
"1573152277710","4167188.0"
"1573152277757","4166784.0"
"1573152277807","4164028.0"
"1573152277852","4215369.0"
"1573152277902","4260012.0"
"1573152277955","4209926.0"
"1573152277997","4222437.0"
"1573152278047","4193714.0"
"1573152278101","4229739.0"
"1573152278149","4266321.0"
"1573152278196","4371039.0"
"1573152278247","4394032.0"
"1573152278292","4392838.0"
"1573152278339","4346286.0"
"1573152278394","4238388.0"
"1573152278438","4140277.0"
"1573152278490","4125521.0"
"1573152278534","4130058.0"
"1573152278588","4157037.0"
"1573152278636","4210909.0"
"1573152278685","4171493.0"
"1573152278735","4168315.0"
"1573152278783","4159705.0"
"1573152278826","4171398.0"
"1573152278874","4170713.0"
"1573152278921","4208144.0"
"1573152278974","4219548.0"
"1573152279020","4260349.0"
"1573152279072","4286577.0"
"1573152279120","4251603.0"
"1573152279173","4209117.0"
"1573152279219","4168220.0"
"1573152279272","4162478.0"
"1573152279321","4154859.0"
"1573152279366","4185585.0"
"1573152279417","4162035.0"
"1573152279462","4147693.0"
"1573152279513","4164396.0"
"1573152279560","4158654.0"
"1573152279613","4135442.0"
"1573152279655","4148589.0"
"1573152279705","4191855.0"
"1573152279754","4231810.0"
"1573152279803","4235788.0"
"1573152279852","4210060.0"
"1573152279901","4151035.0"
"1573152279950","4108877.0"
"1573152280000","4113086.0"
"1573152280048","4110226.0"
"1573152280096","4109580.0"
"1573152280145","4120214.0"
"1573152280194","4110061.0"
"1573152280242","4127746.0"
"1573152280292","4138475.0"
"1573152280341","4083208.0"
"1573152280390","4083409.0"
"1573152280439","4137811.0"
"1573152280488","4200553.0"
"1573152280536","4254984.0"
"1573152280584","4252519.0"
"1573152280633","4254667.0"
"1573152280680","4276906.0"
"1573152280737","4327320.0"
"1573152280780","4356331.0"
"1573152280830","4348972.0"
"1573152280883","4347962.0"
"1573152280924","4351266.0"
"1573152280976","4351748.0"
"1573152281023","4310647.0"
"1573152281074","4228207.0"
"1573152281123","4253135.0"
"1573152281173","4275588.0"
"1573152281220","4337934.0"
"1573152281275","4383532.0"
"1573152281321","4388087.0"
"1573152281370","4292433.0"
"1573152281421","4192887.0"
"1573152281461","4157220.0"
"1573152281518","4157442.0"
"1573152281562","4138774.0"
"1573152281613","4139997.0"
"1573152281664","4135009.0"
"1573152281714","4163663.0"
"1573152281753","4211939.0"
"1573152281803","4187637.0"
"1573152281859","4158433.0"
"1573152281901","4121061.0"
"1573152281958","4137502.0"
"1573152282003","4128652.0"
"1573152282050","4109224.0"
"1573152282104","4111351.0"
"1573152282144","4152163.0"
"1573152282200","4124509.0"
"1573152282241","4062894.0"
"1573152282299","4013356.0"
"1573152282343","4049034.0"
"1573152282394","4066795.0"
"1573152282437","4042926.0"
"1573152282492","4044353.0"
"1573152282543","4034478.0"
"1573152282585","3996856.0"
"1573152282640","4012036.0"
"1573152282682","4028795.0"
"1573152282738","4031782.0"
"1573152282784","4041057.0"
"1573152282829","4007491.0"
"1573152282882","3948755.0"
"1573152282930","3864080.0"
"1573152282982","3788411.0"
"1573152283022","3783035.0"
"1573152283080","3772749.0"
"1573152283125","3829664.0"
"1573152283174","3843728.0"
"1573152283224","3787832.0"
"1573152283274","3800817.0"
"1573152283322","3781436.0"
"1573152283372","3808802.0"
"1573152283414","3822431.0"
"1573152283464","3854506.0"
"1573152283519","3891330.0"
"1573152283563","3886435.0"
"1573152283615","3844181.0"
"1573152283664","3825204.0"
"1573152283711","3719281.0"
"1573152283762","3668319.0"
"1573152283803","3647524.0"
"1573152283859","3694354.0"
"1573152283903","3740665.0"
"1573152283951","3691148.0"
"1573152284006","3670680.0"
"1573152284050","3636071.0"
"1573152284103","3648006.0"
"1573152284144","3672508.0"
"1573152284202","3707897.0"
"1573152284245","3759727.0"
"1573152284299","3804371.0"
"1573152284347","3767019.0"
"1573152284393","3679705.0"
"1573152284437","3611962.0"
"1573152284486","3513071.0"
"1573152284540","3525420.0"
"1573152284589","3596003.0"
"1573152284641","3653920.0"
"1573152284686","3631709.0"
"1573152284736","3590040.0"
"1573152284786","3631284.0"
"1573152284831","3598199.0"
"1573152284884","3592553.0"
"1573152284925","3638692.0"
"1573152284974","3673510.0"
"1573152285028","3739962.0"
"1573152285078","3745702.0"
"1573152285129","3685378.0"
"1573152285168","3643556.0"
"1573152285217","3538509.0"
"1573152285268","3540012.0"
"1573152285316","3562473.0"
"1573152285365","3670448.0"
"1573152285414","3668242.0"
"1573152285465","3586342.0"
"1573152285512","3588845.0"
"1573152285559","3557869.0"
"1573152285614","3560480.0"
"1573152285663","3594105.0"
"1573152285705","3650173.0"
"1573152285762","3698025.0"
"1573152285808","3656974.0"
"1573152285860","3602070.0"
"1573152285908","3576372.0"
"1573152285952","3566547.0"
"1573152285999","3597466.0"
"1573152286049","3615420.0"
"1573152286097","3635909.0"
"1573152286149","3666671.0"
"1573152286200","3661509.0"
"1573152286248","3675253.0"
"1573152286297","3677643.0"
"1573152286348","3672490.0"
"1573152286393","3710787.0"
"1573152286444","3710199.0"
"1573152286489","3749623.0"
"1573152286542","3808109.0"
"1573152286591","3792774.0"
"1573152286635","3668965.0"
"1573152286689","3641262.0"
"1573152286738","3616479.0"
"1573152286786","3634011.0"
"1573152286830","3628934.0"
"1573152286883","3703428.0"
"1573152286925","3721882.0"
"1573152286981","3665747.0"
"1573152287030","3744422.0"
"1573152287079","3703188.0"
"1573152287130","3757848.0"
"1573152287171","3807685.0"
"1573152287218","3861268.0"
"1573152287272","3882804.0"
"1573152287316","3864196.0"
"1573152287369","3761672.0"
"1573152287420","3665036.0"
"1573152287469","3647630.0"
"1573152287516","3710807.0"
"1573152287560","3755489.0"
"1573152287613","3831765.0"
"1573152287663","3886801.0"
"1573152287708","3830792.0"
"1573152287762","3788834.0"
"1573152287811","3744875.0"
"1573152287860","3863415.0"
"1573152287908","3909640.0"
"1573152287953","4004591.0"
"1573152288006","4057778.0"
"1573152288052","4082100.0"
"1573152288102","4005044.0"
"1573152288152","3889229.0"
"1573152288202","3761450.0"
"1573152288242","3879143.0"
"1573152288298","3905410.0"
"1573152288346","3968538.0"
"1573152288392","4007163.0"
"1573152288437","3980385.0"
"1573152288490","3987850.0"
"1573152288542","3946875.0"
"1573152288592","3976842.0"
"1573152288639","4038487.0"
"1573152288684","4112989.0"
"1573152288734","4157344.0"
"1573152288782","4181723.0"
"1573152288832","4181627.0"
"1573152288884","4146653.0"
"1573152288931","3992378.0"
"1573152288982","4170136.0"
"1573152289030","4264366.0"
"1573152289079","4262603.0"
"1573152289127","4383292.0"
"1573152289170","4384948.0"
"1573152289225","4210243.0"
"1573152289270","4114531.0"
"1573152289321","4044247.0"
"1573152289371","4039419.0"
"1573152289417","4095150.0"
"1573152289469","4145381.0"
"1573152289512","4183245.0"
"1573152289559","4207479.0"
"1573152289611","4207307.0"
"1573152289661","4092068.0"
"1573152289705","4105429.0"
"1573152289760","4231048.0"
"1573152289810","4146895.0"
"1573152289853","4221350.0"
"1573152289909","4278881.0"
"1573152289951","4331375.0"
"1573152290006","4296632.0"
"1573152290051","4137445.0"
"1573152290103","4191201.0"
"1573152290153","4287319.0"
"1573152290193","4371742.0"
"1573152290251","4437443.0"
"1573152290291","4475316.0"
"1573152290347","4460704.0"
"1573152290393","4437463.0"
"1573152290437","4388136.0"
"1573152290495","4404973.0"
"1573152290534","4431152.0"
"1573152290585","4410020.0"
"1573152290632","4426626.0"
"1573152290681","4446342.0"
"1573152290733","4378774.0"
"1573152290780","4332021.0"
"1573152290833","4289881.0"
"1573152290878","4265858.0"
"1573152290926","4275328.0"
"1573152290975","4315030.0"
"1573152291022","4331182.0"
"1573152291072","4361532.0"
"1573152291121","4348684.0"
"1573152291175","4297644.0"
"1573152291217","4290939.0"
"1573152291275","4260610.0"
"1573152291319","4231233.0"
"1573152291372","4220936.0"
"1573152291413","4276512.0"
"1573152291463","4307179.0"
"1573152291515","4235152.0"
"1573152291559","4238244.0"
"1573152291615","4240314.0"
"1573152291660","4291691.0"
"1573152291715","4305783.0"
"1573152291754","4307671.0"
"1573152291810","4289399.0"
"1573152291854","4278853.0"
"1573152291909","4234737.0"
"1573152291956","4244756.0"
"1573152291998","4227108.0"
"1573152292051","4150304.0"
"1573152292097","4105977.0"
"1573152292146","4073220.0"
"1573152292193","4054946.0"
"1573152292250","4043706.0"
"1573152292297","4030010.0"
"1573152292347","4031280.0"
"1573152292392","4017353.0"
"1573152292439","4001316.0"
"1573152292494","3995778.0"
"1573152292540","4006314.0"
"1573152292592","4033631.0"
"1573152292633","4030173.0"
"1573152292682","3978412.0"
"1573152292736","3969743.0"
"1573152292784","3934287.0"
"1573152292832","3918750.0"
"1573152292876","3899217.0"
"1573152292933","3890663.0"
"1573152292975","3880108.0"
"1573152293030","3885992.0"
"1573152293073","3866575.0"
"1573152293127","3918490.0"
"1573152293175","3889123.0"
"1573152293223","3868231.0"
"1573152293272","3903032.0"
"1573152293321","3908301.0"
"1573152293372","3926225.0"
"1573152293415","3919782.0"
"1573152293468","3875185.0"
"1573152293517","3823683.0"
"1573152293560","3746492.0"
"1573152293609","3735637.0"
"1573152293658","3731718.0"
"1573152293715","3795240.0"
"1573152293758","3824887.0"
"1573152293811","3785059.0"
"1573152293856","3800980.0"
"1573152293907","3726632.0"
"1573152293955","3734586.0"
"1573152294005","3789269.0"
"1573152294050","3797591.0"
"1573152294101","3819223.0"
"1573152294144","3822403.0"
"1573152294194","3783980.0"
"1573152294244","3771333.0"
"1573152294296","3687728.0"
"1573152294342","3599422.0"
"1573152294392","3585601.0"
"1573152294438","3612271.0"
"1573152294494","3651945.0"
"1573152294539","3636774.0"
"1573152294593","3601135.0"
"1573152294638","3603043.0"
"1573152294682","3607936.0"
"1573152294731","3660507.0"
"1573152294786","3693015.0"
"1573152294831","3744615.0"
"1573152294882","3795451.0"
"1573152294933","3815554.0"
"1573152294975","3758214.0"
"1573152295030","3654651.0"
"1573152295076","3677316.0"
"1573152295128","3729271.0"
"1573152295177","3744711.0"
"1573152295225","3746145.0"
"1573152295275","3767056.0"
"1573152295321","3717193.0"
"1573152295372","3647678.0"
"1573152295421","3608813.0"
"1573152295469","3700096.0"
"1573152295516","3797339.0"
"1573152295560","3941983.0"
"1573152295612","4005593.0"
"1573152295662","4033920.0"
"1573152295715","3983959.0"
"1573152295756","3911903.0"
"1573152295811","3845595.0"
"1573152295858","3906566.0"
"1573152295908","3922092.0"
"1573152295956","3992840.0"
"1573152296006","3970243.0"
"1573152296050","3939393.0"
"1573152296100","3958020.0"
"1573152296154","3953186.0"
"1573152296203","3995643.0"
"1573152296251","4046384.0"
"1573152296299","4081184.0"
"1573152296347","4133217.0"
"1573152296392","4188186.0"
"1573152296442","4194600.0"
"1573152296495","4119086.0"
"1573152296538","4011073.0"
"1573152296591","4076397.0"
"1573152296640","4120531.0"
"1573152296682","4148821.0"
"1573152296737","4152905.0"
"1573152296786","4127061.0"
"1573152296832","4135962.0"
"1573152296878","4060544.0"
"1573152296931","4069548.0"
"1573152296982","4122632.0"
"1573152297030","4178419.0"
"1573152297079","4245073.0"
"1573152297128","4295785.0"
"1573152297176","4306602.0"
"1573152297225","4296980.0"
"1573152297271","4225442.0"
"1573152297318","4198328.0"
"1573152297373","4189015.0"
"1573152297414","4179807.0"
"1573152297469","4166330.0"
"1573152297511","4186684.0"
"1573152297561","4155639.0"
"1573152297611","4173748.0"
"1573152297659","4194350.0"
"1573152297709","4230934.0"
"1573152297759","4257942.0"
"1573152297812","4292798.0"
"1573152297860","4322263.0"
"1573152297907","4360232.0"
"1573152297951","4340343.0"
"1573152297999","4292443.0"
"1573152298051","4237964.0"
"1573152298102","4225280.0"
"1573152298155","4218729.0"
"1573152298201","4201748.0"
"1573152298251","4184285.0"
"1573152298299","4169770.0"
"1573152298345","4145854.0"
"1573152298398","4094669.0"
"1573152298438","4097674.0"
"1573152298493","4144833.0"
"1573152298543","4163653.0"
"1573152298593","4233880.0"
"1573152298641","4271993.0"
"1573152298684","4266774.0"
"1573152298740","4195256.0"
"1573152298787","4133264.0"
"1573152298835","4092472.0"
"1573152298880","4149369.0"
"1573152298933","4149900.0"
"1573152298981","4163230.0"
"1573152299033","4171619.0"
"1573152299075","4131098.0"
"1573152299123","4072226.0"
"1573152299171","4052914.0"
"1573152299223","4119962.0"
"1573152299271","4131078.0"
"1573152299321","4211053.0"
"1573152299370","4259464.0"
"1573152299421","4298762.0"
"1573152299473","4288272.0"
"1573152299516","4205118.0"
"1573152299563","4127370.0"
"1573152299613","4096816.0"
"1573152299663","4112085.0"
"1573152299718","4130511.0"
"1573152299760","4146383.0"
"1573152299814","4144967.0"
"1573152299863","4093765.0"
"1573152299910","4099620.0"
"1573152299960","4111565.0"
"1573152300002","4131917.0"
"1573152300053","4142569.0"
"1573152300103","4178996.0"
"1573152300149","4182974.0"
"1573152300203","4156371.0"
"1573152300254","4122477.0"
"1573152300301","4133014.0"
"1573152300348","4078102.0"
"1573152300399","4034210.0"
"1573152300441","4011930.0"
"1573152300498","4004177.0"
"1573152300546","3976610.0"
"1573152300595","3940837.0"
"1573152300636","3936243.0"
"1573152300686","3950248.0"
"1573152300741","3929711.0"
"1573152300783","3973499.0"
"1573152300839","3993187.0"
"1573152300881","4008492.0"
"1573152300934","4030819.0"
"1573152300984","4011034.0"
"1573152301034","3988815.0"
"1573152301081","3987831.0"
"1573152301129","3942735.0"
"1573152301174","3925300.0"
"1573152301226","3915446.0"
"1573152301278","3950498.0"
"1573152301323","3928825.0"
"1573152301373","3878152.0"
"1573152301424","3841733.0"
"1573152301473","3844045.0"
"1573152301522","3888747.0"
"1573152301564","3922054.0"
"1573152301620","3938602.0"
"1573152301661","3976600.0"
"1573152301716","4022198.0"
"1573152301766","4027843.0"
"1573152301814","3975127.0"
"1573152301865","3944931.0"
"1573152301910","3935028.0"
"1573152301961","3922064.0"
"1573152302003","3924945.0"
"1573152302054","3926263.0"
"1573152302105","3901037.0"
"1573152302152","3893632.0"
"1573152302206","3901279.0"
"1573152302251","3929654.0"
"1573152302301","3983410.0"
"1573152302350","3991346.0"
"1573152302401","4015156.0"
"1573152302444","4018346.0"
"1573152302492","4001625.0"
"1573152302546","3977776.0"
"1573152302590","3999524.0"
"1573152302643","3979182.0"
"1573152302688","3929587.0"
"1573152302741","3919041.0"
"1573152302783","4013606.0"
"1573152302837","4014242.0"
"1573152302885","3942773.0"
"1573152302937","3991694.0"
"1573152302984","4023094.0"
"1573152303035","4010707.0"
"1573152303083","4044342.0"
"1573152303129","4103318.0"
"1573152303182","4119491.0"
"1573152303223","4140844.0"
"1573152303279","4157836.0"
"1573152303328","4077602.0"
"1573152303371","3994390.0"
"1573152303424","3961882.0"
"1573152303472","3955527.0"
"1573152303522","3945827.0"
"1573152303571","3934624.0"
"1573152303621","3937881.0"
"1573152303666","3946038.0"
"1573152303712","3996452.0"
"1573152303758","4003348.0"
"1573152303808","4031628.0"
"1573152303855","4065850.0"
"1573152303905","4083063.0"
"1573152303957","4098801.0"
"1573152304010","4085953.0"
"1573152304053","4086887.0"
"1573152304108","4076946.0"
"1573152304149","4071881.0"
"1573152304203","4068914.0"
"1573152304247","4041077.0"
"1573152304297","4033737.0"
"1573152304348","4016168.0"
"1573152304394","4021900.0"
"1573152304447","4014031.0"
"1573152304499","4053906.0"
"1573152304540","4053089.0"
"1573152304591","4086377.0"
"1573152304639","4112373.0"
"1573152304689","4124751.0"
"1573152304734","4140700.0"
"1573152304786","4140363.0"
"1573152304840","4088823.0"
"1573152304889","4043320.0"
"1573152304940","3996241.0"
"1573152304984","4005034.0"
"1573152305028","4002645.0"
"1573152305078","4036579.0"
"1573152305133","4031975.0"
"1573152305183","4008752.0"
"1573152305227","3993870.0"
"1573152305280","3990895.0"
"1573152305328","4043956.0"
"1573152305377","4060659.0"
"1573152305425","4076938.0"
"1573152305473","4092704.0"
"1573152305523","4082860.0"
"1573152305568","4017353.0"
"1573152305621","3939277.0"
"1573152305668","3887658.0"
"1573152305721","3892128.0"
"1573152305768","3913752.0"
"1573152305815","3981312.0"
"1573152305862","3994487.0"
"1573152305912","3961372.0"
"1573152305962","3914223.0"
"1573152306009","3929018.0"
"1573152306055","3989258.0"
"1573152306102","4040076.0"
"1573152306151","4067256.0"
"1573152306208","4089411.0"
"1573152306253","4108336.0"
"1573152306306","4076281.0"
"1573152306348","4022863.0"
"1573152306403","3981051.0"
"1573152306450","3942204.0"
"1573152306500","3923114.0"
"1573152306546","3945132.0"
"1573152306592","3962461.0"
"1573152306639","3930713.0"
"1573152306691","3899727.0"
"1573152306743","3907953.0"
"1573152306789","3894989.0"
"1573152306841","3938690.0"
"1573152306890","3957144.0"
"1573152306939","3976533.0"
"1573152306988","4004571.0"
"1573152307035","4025618.0"
"1573152307085","4004717.0"
"1573152307131","3934336.0"
"1573152307183","3847233.0"
"1573152307230","3866892.0"
"1573152307280","3898205.0"
"1573152307330","4016304.0"
"1573152307376","3987388.0"
"1573152307428","3902049.0"
"1573152307470","3928519.0"
"1573152307524","3940317.0"
"1573152307569","3917326.0"
"1573152307623","3915091.0"
"1573152307664","3929549.0"
"1573152307720","3973008.0"
"1573152307770","4007586.0"
"1573152307811","3962510.0"
"1573152307864","3825003.0"
"1573152307911","3710287.0"
"1573152307964","3601820.0"
"1573152308012","3621711.0"
"1573152308056","3709092.0"
"1573152308110","3822161.0"
"1573152308153","3790000.0"
"1573152308205","3761538.0"
"1573152308256","3778316.0"
"1573152308307","3773895.0"
"1573152308352","3813300.0"
"1573152308404","3863212.0"
"1573152308452","3884115.0"
"1573152308499","3898081.0"
"1573152308547","3907636.0"
"1573152308592","3897600.0"
"1573152308646","3889489.0"
"1573152308693","4140787.0"
"1573152308744","4162056.0"
"1573152308792","4310261.0"
"1573152308840","4359838.0"
"1573152308892","4301718.0"
"1573152308940","4244447.0"
"1573152308989","4133938.0"
"1573152309030","4129479.0"
"1573152309086","4081666.0"
"1573152309134","4120338.0"
"1573152309177","4155784.0"
"1573152309233","4193542.0"
"1573152309275","4236751.0"
"1573152309331","4223902.0"
"1573152309373","4171320.0"
"1573152309427","4052039.0"
"1573152309475","4047849.0"
"1573152309522","4060755.0"
"1573152309566","4124962.0"
"1573152309615","4131521.0"
"1573152309663","4126427.0"
"1573152309714","4062933.0"
"1573152309763","4069808.0"
"1573152309814","4073526.0"
"1573152309860","4143666.0"
"1573152309917","4188379.0"
"1573152309962","4222746.0"
"1573152310014","4263740.0"
"1573152310056","4291941.0"
"1573152310110","4262314.0"
"1573152310158","4202634.0"
"1573152310209","4136665.0"
"1573152310255","4174374.0"
"1573152310304","4184756.0"
"1573152310349","4213548.0"
"1573152310396","4241991.0"
"1573152310452","4197520.0"
"1573152310493","4189005.0"
"1573152310547","4191229.0"
"1573152310597","4274893.0"
"1573152310647","4313006.0"
"1573152310696","4371685.0"
"1573152310743","4434167.0"
"1573152310794","4487663.0"
"1573152310837","4463055.0"
"1573152310886","4387827.0"
"1573152310937","4311052.0"
"1573152310989","4295458.0"
"1573152311034","4295198.0"
"1573152311085","4308845.0"
"1573152311131","4337954.0"
"1573152311181","4297518.0"
"1573152311234","4232456.0"
"1573152311275","4192646.0"
"1573152311329","4122477.0"
"1573152311373","4132532.0"
"1573152311427","4150477.0"
"1573152311476","4197808.0"
"1573152311523","4206275.0"
"1573152311572","4161361.0"
"1573152311615","4034566.0"
"1573152311672","4009937.0"
"1573152311713","4036780.0"
"1573152311769","4094285.0"
"1573152311818","4149629.0"
"1573152311860","4191971.0"
"1573152311912","4165589.0"
"1573152311962","4056074.0"
"1573152312014","4080896.0"
"1573152312056","4076773.0"
"1573152312111","4107113.0"
"1573152312157","4129064.0"
"1573152312208","4139765.0"
"1573152312255","4143321.0"
"1573152312306","4129036.0"
"1573152312351","4077679.0"
"1573152312396","3987803.0"
"1573152312450","3844719.0"
"1573152312496","3873259.0"
"1573152312544","3895066.0"
"1573152312598","3948956.0"
"1573152312647","3962528.0"
"1573152312695","3860815.0"
"1573152312745","3743969.0"
"1573152312791","3721459.0"
"1573152312841","3716894.0"
"1573152312893","3751107.0"
"1573152312936","3811230.0"
"1573152312992","3834963.0"
"1573152313039","3831312.0"
"1573152313081","3832573.0"
"1573152313136","3792292.0"
"1573152313186","3707676.0"
"1573152313229","3688980.0"
"1573152313281","3706991.0"
"1573152313333","3755576.0"
"1573152313374","3834749.0"
"1573152313430","3813347.0"
"1573152313475","3687226.0"
"1573152313522","3672750.0"
"1573152313577","3666941.0"
"1573152313618","3723895.0"
"1573152313672","3753947.0"
"1573152313716","3778885.0"
"1573152313773","3807221.0"
"1573152313821","3813955.0"
"1573152313862","3769146.0"
"1573152313919","3671190.0"
"1573152313966","3572731.0"
"1573152314012","3553824.0"
"1573152314058","3595782.0"
"1573152314114","3615276.0"
"1573152314160","3655818.0"
"1573152314203","3627528.0"
"1573152314259","3575612.0"
"1573152314308","3595540.0"
"1573152314355","3593016.0"
"1573152314405","3627566.0"
"1573152314452","3631112.0"
"1573152314499","3631709.0"
"1573152314547","3653477.0"
"1573152314601","3666076.0"
"1573152314649","3636504.0"
"1573152314691","3626315.0"
"1573152314745","3585397.0"
"1573152314791","3591245.0"
"1573152314839","3593027.0"
"1573152314889","3664341.0"
"1573152314936","3651955.0"
"1573152314992","3625630.0"
"1573152315041","3649172.0"
"1573152315089","3670979.0"
"1573152315137","3732603.0"
"1573152315186","3728085.0"
"1573152315230","3756385.0"
"1573152315277","3786233.0"
"1573152315334","3800259.0"
"1573152315379","3741801.0"
"1573152315430","3696599.0"
"1573152315480","3684770.0"
"1573152315526","3688354.0"
"1573152315577","3694817.0"
"1573152315622","3742697.0"
"1573152315671","3791301.0"
"1573152315717","3734213.0"
"1573152315765","3684839.0"
"1573152315815","3680524.0"
"1573152315863","3706144.0"
"1573152315919","3744479.0"
"1573152315967","3748872.0"
"1573152316014","3729771.0"
"1573152316062","3745038.0"
"1573152316111","3785916.0"
"1573152316164","3691908.0"
"1573152316211","3667240.0"
"1573152316260","3728144.0"
"1573152316302","3751789.0"
"1573152316350","3726545.0"
"1573152316398","3748207.0"
"1573152316451","3744065.0"
"1573152316501","3697765.0"
"1573152316547","3707406.0"
"1573152316601","3781447.0"
"1573152316645","3837090.0"
"1573152316699","3885791.0"
"1573152316744","3923508.0"
"1573152316794","3989363.0"
"1573152316838","3987118.0"
"1573152316894","3895383.0"
"1573152316938","3837765.0"
"1573152316992","3789586.0"
"1573152317040","3833825.0"
"1573152317088","3859494.0"
"1573152317138","3932680.0"
"1573152317180","3947859.0"
"1573152317236","3847119.0"
"1573152317278","3807723.0"
"1573152317333","3765593.0"
"1573152317382","3791051.0"
"1573152317431","3833604.0"
"1573152317480","3904197.0"
"1573152317526","3953369.0"
"1573152317578","4003752.0"
"1573152317618","3972853.0"
"1573152317673","3935664.0"
"1573152317721","3875311.0"
"1573152317774","3913029.0"
"1573152317822","3887130.0"
"1573152317865","3941483.0"
"1573152317919","3978613.0"
"1573152317969","3923866.0"
"1573152318019","3864917.0"
"1573152318058","3883440.0"
"1573152318113","3984258.0"
"1573152318164","4021784.0"
"1573152318213","4076783.0"
"1573152318260","4101142.0"
"1573152318307","4102702.0"
"1573152318358","4083988.0"
"1573152318401","4015254.0"
"1573152318449","4031483.0"
"1573152318501","3997472.0"
"1573152318547","4003945.0"
"1573152318603","4036492.0"
"1573152318651","4069548.0"
"1573152318701","4065562.0"
"1573152318745","4029490.0"
"1573152318798","4036482.0"
"1573152318842","4056257.0"
"1573152318895","4100410.0"
"1573152318943","4131309.0"
"1573152318993","4173795.0"
"1573152319035","4195372.0"
"1573152319084","4214625.0"
"1573152319140","4158415.0"
"1573152319181","4153587.0"
"1573152319239","4127022.0"
"1573152319282","4124663.0"
"1573152319334","4181906.0"
"1573152319383","4173535.0"
"1573152319432","4213113.0"
"1573152319481","4163508.0"
"1573152319524","4145093.0"
"1573152319573","4127967.0"
"1573152319627","4072496.0"
"1573152319678","4082108.0"
"1573152319722","4132705.0"
"1573152319776","4161487.0"
"1573152319822","4174470.0"
"1573152319866","4117546.0"
"1573152319921","4044690.0"
"1573152319962","4020754.0"
"1573152320018","3918760.0"
"1573152320061","3861796.0"
"1573152320109","3860236.0"
"1573152320163","3912480.0"
"1573152320211","3924067.0"
"1573152320262","3862952.0"
"1573152320305","3785597.0"
"1573152320361","3801240.0"
"1573152320403","3801309.0"
"1573152320460","3828721.0"
"1573152320505","3872026.0"
"1573152320551","3898426.0"
"1573152320603","3911864.0"
"1573152320650","3896819.0"
"1573152320701","3861835.0"
"1573152320747","3825253.0"
"1573152320800","3803264.0"
"1573152320845","3822980.0"
"1573152320898","3888536.0"
"1573152320944","3930368.0"
"1573152320995","3887351.0"
"1573152321042","3858763.0"
"1573152321084","3846009.0"
"1573152321140","3835568.0"
"1573152321182","3879799.0"
"1573152321234","3941597.0"
"1573152321287","3992368.0"
"1573152321333","4045228.0"
"1573152321385","4061854.0"
"1573152321430","3989518.0"
"1573152321481","3984768.0"
"1573152321523","3955429.0"
"1573152321580","3954649.0"
"1573152321625","3991897.0"
"1573152321677","4031792.0"
"1573152321718","4035462.0"
"1573152321769","3939527.0"
"1573152321823","3933015.0"
"1573152321864","3884210.0"
"1573152321921","3932631.0"
"1573152321965","3971746.0"
"1573152322018","3975482.0"
"1573152322061","3981263.0"
"1573152322113","3955197.0"
"1573152322165","3848332.0"
"1573152322208","3782651.0"
"1573152322261","3712298.0"
"1573152322306","3726362.0"
"1573152322359","3744690.0"
"1573152322407","3812654.0"
"1573152322457","3793101.0"
"1573152322505","3738662.0"
"1573152322549","3745509.0"
"1573152322603","3806029.0"
"1573152322645","3833258.0"
"1573152322700","3844171.0"
"1573152322752","3873720.0"
"1573152322793","3889960.0"
"1573152322840","3855073.0"
"1573152322890","3777960.0"
"1573152322944","3733317.0"
"1573152322988","3655635.0"
"1573152323041","3668849.0"
"1573152323085","3743315.0"
"1573152323139","4034411.0"
"1573152323190","4130192.0"
"1573152323232","3979674.0"
"1573152323277","3929914.0"
"1573152323329","3747437.0"
"1573152323374","3756192.0"
"1573152323424","3796463.0"
"1573152323475","3880320.0"
"1573152323527","3919242.0"
"1573152323573","3904014.0"
"1573152323626","3809052.0"
"1573152323672","3520593.0"
"1573152323723","3442643.0"
"1573152323766","3433337.0"
"1573152323822","3493422.0"
"1573152323865","3597515.0"
"1573152323917","3705673.0"
"1573152323968","3676082.0"
"1573152324017","3556193.0"
"1573152324060","3519959.0"
"1573152324113","3509160.0"
"1573152324163","3578770.0"
"1573152324208","3606087.0"
"1573152324261","3626498.0"
"1573152324310","3628336.0"
"1573152324360","3574851.0"
"1573152324401","3460356.0"
"1573152324452","3369457.0"
"1573152324504","3349780.0"
"1573152324546","3408737.0"
"1573152324602","3437411.0"
"1573152324649","3487845.0"
"1573152324701","3457562.0"
"1573152324744","3361204.0"
"1573152324796","3340080.0"
"1573152324846","3374978.0"
"1573152324892","3447775.0"
"1573152324941","3462552.0"
"1573152324989","3485986.0"
"1573152325041","3533462.0"
"1573152325090","3525969.0"
"1573152325139","3450790.0"
"1573152325187","3402882.0"
"1573152325229","3379110.0"
"1573152325284","3425296.0"
"1573152325329","3451524.0"
"1573152325382","3539433.0"
"1573152325429","3508784.0"
"1573152325474","3457147.0"
"1573152325524","3452669.0"
"1573152325578","3468639.0"
"1573152325626","3524764.0"
"1573152325669","3576960.0"
"1573152325724","3653158.0"
"1573152325769","3721738.0"
"1573152325822","3704506.0"
"1573152325864","3646927.0"
"1573152325918","3548334.0"
"1573152325967","3487835.0"
"1573152326010","3527269.0"
"1573152326059","3609565.0"
"1573152326110","3726622.0"
"1573152326163","3800750.0"
"1573152326213","3771121.0"
"1573152326258","3670920.0"
"1573152326310","3654412.0"
"1573152326351","3658359.0"
"1573152326406","3719600.0"
"1573152326451","3817027.0"
"1573152326504","3884548.0"
"1573152326552","3893341.0"
"1573152326595","3894633.0"
"1573152326651","3837870.0"
"1573152326696","3767673.0"
"1573152326741","3719639.0"
"1573152326791","3721537.0"
"1573152326846","3738209.0"
"1573152326891","3759408.0"
"1573152326944","3769262.0"
"1573152326992","3721362.0"
"1573152327038","3711327.0"
"1573152327088","3755440.0"
"1573152327133","3787958.0"
"1573152327188","3793757.0"
"1573152327230","3830089.0"
"1573152327284","3860555.0"
"1573152327335","3882670.0"
"1573152327380","3864283.0"
"1573152327431","3932891.0"
"1573152327476","3939555.0"
"1573152327527","3979914.0"
"1573152327573","3973432.0"
"1573152327625","3988612.0"
"1573152327672","4000402.0"
"1573152327724","3951047.0"
"1573152327772","3891917.0"
"1573152327816","3928663.0"
"1573152327863","3927545.0"
"1573152327913","4035057.0"
"1573152327967","4171493.0"
"1573152328015","4301563.0"
"1573152328058","4307642.0"
"1573152328111","4295381.0"
"1573152328154","4207691.0"
"1573152328212","4179892.0"
"1573152328253","4153762.0"
"1573152328301","4234719.0"
"1573152328352","4252566.0"
"1573152328400","4268123.0"
"1573152328453","4204781.0"
"1573152328497","4230355.0"
"1573152328547","4222852.0"
"1573152328595","4188196.0"
"1573152328642","4255388.0"
"1573152328693","4266831.0"
"1573152328741","4294408.0"
"1573152328796","4292731.0"
"1573152328844","4299503.0"
"1573152328892","4279767.0"
"1573152328938","4193956.0"
"1573152328991","4145275.0"
"1573152329034","4068317.0"
"1573152329089","4056990.0"
"1573152329133","4052731.0"
"1573152329185","4079104.0"
"1573152329235","4093023.0"
"1573152329281","4004967.0"
"1573152329331","4025849.0"
"1573152329377","3989122.0"
"1573152329432","4047357.0"
"1573152329472","4061517.0"
"1573152329528","4080896.0"
"1573152329578","4085306.0"
"1573152329624","4075637.0"
"1573152329671","3993977.0"
"1573152329721","3975773.0"
"1573152329773","3897098.0"
"1573152329814","3859388.0"
"1573152329864","3851038.0"
"1573152329914","3874549.0"
"1573152329967","3874001.0"
"1573152330017","3881715.0"
"1573152330059","3836060.0"
"1573152330112","3874271.0"
"1573152330156","3899757.0"
"1573152330213","3920889.0"
"1573152330254","3945990.0"
"1573152330309","3949515.0"
"1573152330355","3990481.0"
"1573152330402","3982908.0"
"1573152330452","3962008.0"
"1573152330503","3898120.0"
"1573152330549","3808956.0"
"1573152330596","3834384.0"
"1573152330651","3908242.0"
"1573152330693","4105187.0"
"1573152330742","4104793.0"
"1573152330799","4057057.0"
"1573152330839","4103338.0"
"1573152330889","4040933.0"
"1573152330944","4058934.0"
"1573152330993","4062604.0"
"1573152331039","4090788.0"
"1573152331091","4105331.0"
"1573152331138","4108704.0"
"1573152331189","4069867.0"
"1573152331234","3996519.0"
"1573152331285","3865805.0"
"1573152331331","3823770.0"
"1573152331381","3726236.0"
"1573152331433","3688632.0"
"1573152331473","3758128.0"
"1573152331529","3682383.0"
"1573152331576","3711471.0"
"1573152331626","3747947.0"
"1573152331675","3774242.0"
"1573152331724","3818934.0"
"1573152331775","3843988.0"
"1573152331820","3880368.0"
"1573152331868","3917200.0"
"1573152331917","3938458.0"
"1573152331967","3913587.0"
"1573152332018","3857308.0"
"1573152332061","3819089.0"
"1573152332112","3838313.0"
"1573152332163","3882217.0"
"1573152332211","3933545.0"
"1573152332261","3918222.0"
"1573152332314","3907029.0"
"1573152332363","3906259.0"
"1573152332409","3936512.0"
"1573152332458","3947194.0"
"1573152332503","3969974.0"
"1573152332551","3999380.0"
"1573152332602","4029807.0"
"1573152332651","4039738.0"
"1573152332696","4045509.0"
"1573152332745","4001066.0"
"1573152332801","3929047.0"
"1573152332849","3894276.0"
"1573152332895","3913520.0"
"1573152332946","4018828.0"
"1573152332991","4024269.0"
"1573152333037","4007944.0"
"1573152333087","3962363.0"
"1573152333140","3988246.0"
"1573152333191","3968404.0"
"1573152333239","3976185.0"
"1573152333288","4013001.0"
"1573152333335","4092464.0"
"1573152333384","4176493.0"
"1573152333429","4206978.0"
"1573152333476","4219615.0"
"1573152333526","4169683.0"
"1573152333574","4108424.0"
"1573152333624","4097964.0"
"1573152333674","4086280.0"
"1573152333727","4115185.0"
"1573152333775","4126195.0"
"1573152333822","4089400.0"
"1573152333869","4011410.0"
"1573152333917","4002279.0"
"1573152333970","3978083.0"
"1573152334020","3987909.0"
"1573152334062","4040576.0"
"1573152334111","4081964.0"
"1573152334166","4088525.0"
"1573152334211","4037022.0"
"1573152334256","3996877.0"
"1573152334314","3974790.0"
"1573152334360","3921227.0"
"1573152334410","3899428.0"
"1573152334460","3895576.0"
"1573152334506","3952906.0"
"1573152334552","3923894.0"
"1573152334599","3865496.0"
"1573152334651","3911903.0"
"1573152334702","3841609.0"
"1573152334750","3894479.0"
"1573152334800","3875762.0"
"1573152334850","3906123.0"
"1573152334896","3935471.0"
"1573152334945","3938332.0"
"1573152334994","3924154.0"
"1573152335039","3897685.0"
"1573152335095","3863810.0"
"1573152335140","3853484.0"
"1573152335185","3844150.0"
"1573152335237","3830397.0"
"1573152335285","3824839.0"
"1573152335338","3805249.0"
"1573152335378","3743400.0"
"1573152335428","3784124.0"
"1573152335478","3793139.0"
"1573152335526","3824483.0"
"1573152335575","3835097.0"
"1573152335622","3851576.0"
"1573152335678","3886571.0"
"1573152335721","3901307.0"
"1573152335770","3832370.0"
"1573152335820","3819715.0"
"1573152335870","3790165.0"
"1573152335921","3800712.0"
"1573152335971","3819869.0"
"1573152336021","3849604.0"
"1573152336063","3822864.0"
"1573152336111","3744700.0"
"1573152336159","3725062.0"
"1573152336217","3729501.0"
"1573152336260","3785309.0"
"1573152336306","3778547.0"
"1573152336361","3817096.0"
"1573152336407","3875523.0"
"1573152336459","3918953.0"
"1573152336502","3883546.0"
"1573152336551","3817085.0"
"1573152336600","3735580.0"
"1573152336656","3809080.0"
"1573152336697","3841647.0"
"1573152336751","3872296.0"
"1573152336800","3917758.0"
"1573152336842","3894170.0"
"1573152336898","3826901.0"
"1573152336940","3829664.0"
"1573152336993","3868385.0"
"1573152337043","3895576.0"
"1573152337093","3913732.0"
"1573152337141","3963115.0"
"1573152337183","3988264.0"
"1573152337237","4000044.0"
"1573152337279","3923982.0"
"1573152337338","3861008.0"
"1573152337381","3853474.0"
"1573152337434","3888459.0"
"1573152337482","3917383.0"
"1573152337532","3948976.0"
"1573152337580","3930396.0"
"1573152337623","3879810.0"
"1573152337679","3858830.0"
"1573152337720","3800941.0"
"1573152337775","3835877.0"
"1573152337824","3839760.0"
"1573152337867","3864263.0"
"1573152337921","3918953.0"
"1573152337971","3946646.0"
"1573152338019","3921044.0"
"1573152338063","3892725.0"
"1573152338117","3809765.0"
"1573152338163","3797012.0"
"1573152338214","3826718.0"
"1573152338262","3846810.0"
"1573152338311","3860766.0"
"1573152338361","3843795.0"
"1573152338401","3788546.0"
"1573152338453","3739654.0"
"1573152338501","3796435.0"
"1573152338550","3823221.0"
"1573152338596","3861132.0"
"1573152338648","3900141.0"
"1573152338695","3937590.0"
"1573152338746","3922507.0"
"1573152338795","3901037.0"
"1573152338847","3833632.0"
"1573152338899","3844333.0"
"1573152338944","3852637.0"
"1573152338989","3903089.0"
"1573152339037","3901395.0"
"1573152339093","3883083.0"
"1573152339143","3843072.0"
"1573152339183","3835280.0"
"1573152339240","3842031.0"
"1573152339281","3887658.0"
"1573152339339","3935616.0"
"1573152339385","3954080.0"
"1573152339434","3970773.0"
"1573152339483","3921420.0"
"1573152339527","3770745.0"
"1573152339580","3682834.0"
"1573152339623","3581285.0"
"1573152339679","3499229.0"
"1573152339724","3475709.0"
"1573152339773","3537661.0"
"1573152339825","3584887.0"
"1573152339870","3554671.0"
"1573152339922","3563426.0"
"1573152339968","3591889.0"
"1573152340021","3651299.0"
"1573152340063","3692842.0"
"1573152340115","3738642.0"
"1573152340166","3766682.0"
"1573152340216","3788458.0"
"1573152340264","3711865.0"
"1573152340312","3583404.0"
"1573152340364","3589126.0"
"1573152340408","3602157.0"
"1573152340461","3655259.0"
"1573152340504","3703968.0"
"1573152340552","3724405.0"
"1573152340601","3716075.0"
"1573152340651","3700028.0"
"1573152340699","3710508.0"
"1573152340750","3726112.0"
"1573152340796","3760593.0"
"1573152340846","3793477.0"
"1573152340895","3831533.0"
"1573152340946","3848244.0"
"1573152340992","3803457.0"
"1573152341040","3769368.0"
"1573152341090","3696542.0"
"1573152341138","3577730.0"
"1573152341190","3544886.0"
"1573152341235","3584290.0"
"1573152341283","3640695.0"
"1573152341333","3617097.0"
"1573152341385","3555143.0"
"1573152341432","3552581.0"
"1573152341479","3539925.0"
"1573152341530","3596436.0"
"1573152341582","3627662.0"
"1573152341625","3687092.0"
"1573152341681","3731043.0"
"1573152341724","3716788.0"
"1573152341772","3674099.0"
"1573152341821","3654700.0"
"1573152341870","3627036.0"
"1573152341919","3643546.0"
"1573152341971","3646080.0"
"1573152342014","3681554.0"
"1573152342066","3689780.0"
"1573152342120","3606406.0"
"1573152342169","3565285.0"
"1573152342217","3574359.0"
"1573152342260","3633643.0"
"1573152342313","3682247.0"
"1573152342364","3768405.0"
"1573152342408","3813705.0"
"1573152342463","3815757.0"
"1573152342507","3811663.0"
"1573152342553","3748851.0"
"1573152342607","3602484.0"
"1573152342656","3580533.0"
"1573152342705","3614063.0"
"1573152342751","3689307.0"
"1573152342796","3749363.0"
"1573152342847","3711827.0"
"1573152342901","3678279.0"
"1573152342950","3645405.0"
"1573152342998","3656317.0"
"1573152343045","3716796.0"
"1573152343094","3764736.0"
"1573152343144","3832102.0"
"1573152343191","3867288.0"
"1573152343242","3884076.0"
"1573152343289","3701185.0"
"1573152343338","3783074.0"
"1573152343389","3834798.0"
"1573152343436","3814918.0"
"1573152343485","3871815.0"
"1573152343527","4006036.0"
"1573152343582","4002086.0"
"1573152343628","3929327.0"
"1573152343681","3958377.0"
"1573152343730","4019165.0"
"1573152343773","4022141.0"
"1573152343827","4053396.0"
"1573152343871","4084652.0"
"1573152343925","4108086.0"
"1573152343968","4106237.0"
"1573152344022","4060832.0"
"1573152344074","4051441.0"
"1573152344121","4024519.0"
"1573152344169","4037995.0"
"1573152344211","4051825.0"
"1573152344266","4076899.0"
"1573152344309","4017247.0"
"1573152344364","3971486.0"
"1573152344408","3966372.0"
"1573152344459","3965505.0"
"1573152344510","3991588.0"
"1573152344554","4021957.0"
"1573152344607","4030858.0"
"1573152344650","4025299.0"
"1573152344705","3978546.0"
"1573152344750","3979211.0"
"1573152344803","4010168.0"
"1573152344853","4085538.0"
"1573152344901","4170713.0"
"1573152344949","4242299.0"
"1573152344996","4283467.0"
"1573152345045","4197798.0"
"1573152345090","4192646.0"
"1573152345144","4192337.0"
"1573152345193","4236259.0"
"1573152345240","4238659.0"
"1573152345292","4242568.0"
"1573152345335","4216378.0"
"1573152345388","4198058.0"
"1573152345430","4178602.0"
"1573152345477","4203993.0"
"1573152345529","4156641.0"
"1573152345574","4253269.0"
"1573152345624","4275933.0"
"1573152345672","4333456.0"
"1573152345721","4344842.0"
"1573152345771","4255995.0"
"1573152345818","4233447.0"
"1573152345870","4223853.0"
"1573152345926","4240006.0"
"1573152345971","4221685.0"
"1573152346016","4187859.0"
"1573152346068","4164077.0"
"1573152346113","4140247.0"
"1573152346170","4114830.0"
"1573152346214","4046250.0"
"1573152346267","4042733.0"
"1573152346314","4031079.0"
"1573152346361","4106814.0"
"1573152346414","4090662.0"
"1573152346454","4179758.0"
"1573152346510","4143926.0"
"1573152346553","4102576.0"
"1573152346608","4104263.0"
"1573152346655","4177938.0"
"1573152346704","4247944.0"
"1573152346755","4275665.0"
"1573152346802","4260156.0"
"1573152346844","4239101.0"
"1573152346895","4211640.0"
"1573152346945","4133014.0"
"1573152346993","4019317.0"
"1573152347041","4146287.0"
"1573152347091","4206738.0"
"1573152347144","4204974.0"
"1573152347193","4241682.0"
"1573152347234","4380517.0"
"1573152347292","4355561.0"
"1573152347332","4249870.0"
"1573152347388","4285517.0"
"1573152347434","4299773.0"
"1573152347483","4332137.0"
"1573152347532","4347046.0"
"1573152347583","4369412.0"
"1573152347626","4372707.0"
"1573152347680","4368824.0"
"1573152347729","4343503.0"
"1573152347772","4364288.0"
"1573152347827","4326231.0"
"1573152347875","4333842.0"
"1573152347921","4389465.0"
"1573152347976","4426049.0"
"1573152348018","4432010.0"
"1573152348065","4384814.0"
"1573152348114","4409549.0"
"1573152348168","4408220.0"
"1573152348214","4453028.0"
"1573152348267","4431183.0"
"1573152348311","4424805.0"
"1573152348361","4423216.0"
"1573152348413","4412005.0"
"1573152348459","4390016.0"
"1573152348510","4359096.0"
"1573152348553","4451929.0"
"1573152348607","4559219.0"
"1573152348657","4528012.0"
"1573152348703","4595206.0"
"1573152348748","4612774.0"
"1573152348798","4643346.0"
"1573152348852","4592363.0"
"1573152348895","4490264.0"
"1573152348948","4482722.0"
"1573152348997","4450369.0"
"1573152349045","4477358.0"
"1573152349090","4482665.0"
"1573152349140","4493645.0"
"1573152349196","4498614.0"
"1573152349234","4457843.0"
"1573152349284","4477425.0"
"1573152349337","4400321.0"
"1573152349387","4368824.0"
"1573152349434","4433089.0"
"1573152349484","4452276.0"
"1573152349531","4430084.0"
"1573152349582","4404656.0"
"1573152349632","4421859.0"
"1573152349674","4404618.0"
"1573152349729","4368969.0"
"1573152349775","4338474.0"
"1573152349820","4353645.0"
"1573152349877","4379834.0"
"1573152349924","4384418.0"
"1573152349975","4392894.0"
"1573152350013","4401968.0"
"1573152350063","4392248.0"
"1573152350113","4371888.0"
"1573152350159","4380672.0"
"1573152350210","4426800.0"
"1573152350265","4462216.0"
"1573152350311","4390873.0"
"1573152350358","4353048.0"
"1573152350412","4334236.0"
"1573152350455","4309625.0"
"1573152350501","4329140.0"
"1573152350554","4355821.0"
"1573152350608","4391489.0"
"1573152350655","4431865.0"
"1573152350703","4431067.0"
"1573152350754","4422879.0"
"1573152350803","4431538.0"
"1573152350851","4412757.0"
"1573152350901","4390276.0"
"1573152350948","4387163.0"
"1573152350995","4402584.0"
"1573152351045","4394388.0"
"1573152351091","4329545.0"
"1573152351140","4372929.0"
"1573152351193","4310099.0"
"1573152351243","4275114.0"
"1573152351289","4280336.0"
"1573152351337","4316127.0"
"1573152351387","4347816.0"
"1573152351430","4392789.0"
"1573152351478","4386962.0"
"1573152351530","4402017.0"
"1573152351576","4396401.0"
"1573152351633","4305755.0"
"1573152351679","4291354.0"
"1573152351729","4290373.0"
"1573152351776","4303134.0"
"1573152351826","4245371.0"
"1573152351871","4165810.0"
"1573152351921","4173295.0"
"1573152351965","4115474.0"
"1573152352016","4095488.0"
"1573152352062","4120482.0"
"1573152352114","4153386.0"
"1573152352160","4176908.0"
"1573152352211","4154965.0"
"1573152352258","4118528.0"
"1573152352311","4179586.0"
"1573152352358","4151507.0"
"1573152352412","4153541.0"
"1573152352457","4259366.0"
"1573152352508","4347442.0"
"1573152352552","4286904.0"
"1573152352606","4303095.0"
"1573152352651","4242019.0"
"1573152352699","4188804.0"
"1573152352755","4208087.0"
"1573152352802","4220645.0"
"1573152352851","4242789.0"
"1573152352896","4262209.0"
"1573152352948","4226405.0"
"1573152352995","4177399.0"
"1573152353044","4191278.0"
"1573152353089","4159203.0"
"1573152353141","4196490.0"
"1573152353193","4173429.0"
"1573152353241","4208654.0"
"1573152353288","4215629.0"
"1573152353338","4090835.0"
"1573152353384","4130251.0"
"1573152353434","4059773.0"
"1573152353478","4066669.0"
"1573152353531","4099110.0"
"1573152353576","4151604.0"
"1573152353628","4243716.0"
"1573152353680","4264915.0"
"1573152353726","4277300.0"
"1573152353777","4284149.0"
"1573152353823","4236395.0"
"1573152353871","4440813.0"
"1573152353921","4359491.0"
"1573152353973","4353385.0"
"1573152354021","4535486.0"
"1573152354064","4453865.0"
"1573152354118","4339726.0"
"1573152354167","4294369.0"
"1573152354217","4311042.0"
"1573152354258","4369527.0"
"1573152354306","4436624.0"
"1573152354357","4456427.0"
"1573152354406","4455222.0"
"1573152354454","4472523.0"
"1573152354503","4456167.0"
"1573152354553","4481846.0"
"1573152354602","4503017.0"
"1573152354650","4540263.0"
"1573152354701","4592749.0"
"1573152354755","4610905.0"
"1573152354795","4602418.0"
"1573152354851","4544550.0"
"1573152354892","4482521.0"
"1573152354941","4454761.0"
"1573152354998","4491440.0"
"1573152355038","4513391.0"
"1573152355095","4518824.0"
"1573152355142","4540023.0"
"1573152355186","4551649.0"
"1573152355235","4538772.0"
"1573152355289","4527597.0"
"1573152355339","4509125.0"
"1573152355379","4495225.0"
"1573152355438","4442942.0"
"1573152355480","4458441.0"
"1573152355533","4433310.0"
"1573152355576","4358960.0"
"1573152355631","4385672.0"
"1573152355681","4297057.0"
"1573152355723","4353798.0"
"1573152355773","4331241.0"
"1573152355819","4317785.0"
"1573152355876","4298481.0"
"1573152355921","4257700.0"
"1573152355973","4221840.0"
"1573152356021","4308768.0"
"1573152356064","4435468.0"
"1573152356119","4443578.0"
"1573152356160","4481749.0"
"1573152356222","4482125.0"
"1573152356263","4517378.0"
"1573152356308","4402035.0"
"1573152356363","4393474.0"
"1573152356407","4377618.0"
"1573152356461","4368477.0"
"1573152356504","4364133.0"
"1573152356553","4365348.0"
"1573152356604","4364355.0"
"1573152356658","4384302.0"
"1573152356704","4364568.0"
"1573152356756","4355456.0"
"1573152356795","4384004.0"
"1573152356850","4325327.0"
"1573152356893","4298260.0"
"1573152356940","4258606.0"
"1573152356997","4275529.0"
"1573152357045","4295468.0"
"1573152357087","4208384.0"
"1573152357137","4232608.0"
"1573152357188","4295448.0"
"1573152357236","4232773.0"
"1573152357285","4207016.0"
"1573152357332","4204936.0"
"1573152357381","4214009.0"
"1573152357437","4208231.0"
"1573152357478","4185191.0"
"1573152357535","4273487.0"
"1573152357582","4302132.0"
"1573152357629","4270608.0"
"1573152357680","4176262.0"
"1573152357722","4234410.0"
"1573152357778","4214712.0"
"1573152357824","4159628.0"
"1573152357876","4234390.0"
"1573152357924","4234621.0"
"1573152357972","4184689.0"
"1573152358021","4174750.0"
"1573152358066","4194937.0"
"1573152358119","4223863.0"
"1573152358164","4233254.0"
"1573152358218","4267284.0"
"1573152358267","4405859.0"
"1573152358313","4510203.0"
"1573152358363","4539599.0"
"1573152358412","4536604.0"
"1573152358461","4560125.0"
"1573152358506","4571471.0"
"1573152358553","4535082.0"
"1573152358605","4488116.0"
"1573152358652","4462205.0"
"1573152358705","4494628.0"
"1573152358755","4469690.0"
"1573152358795","4514354.0"
"1573152358844","4511926.0"
"1573152358893","4551631.0"
"1573152358945","4541931.0"
"1573152358997","4463699.0"
"1573152359044","4357382.0"
"1573152359095","4288040.0"
"1573152359144","4256438.0"
"1573152359189","4296151.0"
"1573152359242","4320434.0"
"1573152359285","4290960.0"
"1573152359339","4243907.0"
"1573152359386","4239158.0"
"1573152359437","4178236.0"
"1573152359478","4166148.0"
"1573152359529","4191018.0"
"1573152359582","4220684.0"
"1573152359626","4231742.0"
"1573152359675","4233851.0"
"1573152359725","4226946.0"
"1573152359773","4250187.0"
"1573152359821","4262574.0"
"1573152359867","4269576.0"
"1573152359923","4260504.0"
"1573152359968","4312419.0"
"1573152360022","4257430.0"
"1573152360063","4190065.0"
"1573152360118","4188147.0"
"1573152360167","4107576.0"
"1573152360210","4093466.0"
"1573152360263","4089063.0"
"1573152360312","4101894.0"
"1573152360362","4150314.0"
"1573152360404","4142348.0"
"1573152360460","4090778.0"
"1573152360507","3974712.0"
"1573152360552","3873066.0"
"1573152360601","3826389.0"
"1573152360657","3832303.0"
"1573152360703","3934423.0"
"1573152360750","3923210.0"
"1573152360802","3786928.0"
"1573152360847","3812530.0"
"1573152360894","3773212.0"
"1573152360940","3821815.0"
"1573152360990","3835954.0"
"1573152361037","3884499.0"
"1573152361093","3935654.0"
"1573152361140","3927844.0"
"1573152361191","3830588.0"
"1573152361240","3774695.0"
"1573152361288","3741907.0"
"1573152361338","3713271.0"
"1573152361387","3690463.0"
"1573152361435","3762954.0"
"1573152361484","3766383.0"
"1573152361531","3635224.0"
"1573152361582","3620526.0"
"1573152361628","3576094.0"
"1573152361680","3629917.0"
"1573152361729","3651232.0"
"1573152361777","3719263.0"
"1573152361828","3766016.0"
"1573152361874","3762673.0"
"1573152361923","3716412.0"
"1573152361966","3717703.0"
"1573152362021","3655576.0"
"1573152362064","3604670.0"
"1573152362120","3604536.0"
"1573152362168","3603015.0"
"1573152362211","3604853.0"
"1573152362266","3524591.0"
"1573152362308","3519987.0"
"1573152362362","3514727.0"
"1573152362409","3528021.0"
"1573152362460","3543885.0"
"1573152362509","3613793.0"
"1573152362552","3650539.0"
"1573152362606","3629781.0"
"1573152362649","3628472.0"
"1573152362704","3629927.0"
"1573152362749","3510056.0"
"1573152362801","3519140.0"
"1573152362851","3503872.0"
"1573152362894","3566307.0"
"1573152362947","3548932.0"
"1573152362990","3472617.0"
"1573152363045","3467704.0"
"1573152363090","3402506.0"
"1573152363143","3475112.0"
"1573152363190","3501387.0"
"1573152363238","3533972.0"
"1573152363283","3571787.0"
"1573152363335","3565141.0"
"1573152363387","3581700.0"
"1573152363428","3564862.0"
"1573152363477","3580745.0"
"1573152363529","3678114.0"
"1573152363582","3741716.0"
"1573152363632","3873048.0"
"1573152363678","3818674.0"
"1573152363728","3753100.0"
"1573152363771","3802156.0"
"1573152363819","3702995.0"
"1573152363871","3676275.0"
"1573152363921","3734174.0"
"1573152363970","3805777.0"
"1573152364020","3852395.0"
"1573152364064","3859118.0"
"1573152364116","3848582.0"
"1573152364168","3778547.0"
"1573152364210","3685205.0"
"1573152364266","3663069.0"
"1573152364312","3688797.0"
"1573152364354","3764043.0"
"1573152364404","3742128.0"
"1573152364452","3711219.0"
"1573152364503","3759063.0"
"1573152364553","3799401.0"
"1573152364601","3858436.0"
"1573152364654","3849555.0"
"1573152364695","3884460.0"
"1573152364748","3867422.0"
"1573152364795","3866536.0"
"1573152364845","3853505.0"
"1573152364893","3845451.0"
"1573152364942","3761123.0"
"1573152364997","3693391.0"
"1573152365037","3696694.0"
"1573152365095","3763657.0"
"1573152365140","3814387.0"
"1573152365194","3714293.0"
"1573152365234","3710776.0"
"1573152365290","3750865.0"
"1573152365331","3740982.0"
"1573152365387","3746696.0"
"1573152365434","3745548.0"
"1573152365485","3729377.0"
"1573152365530","3705644.0"
"1573152365581","3656202.0"
"1573152365631","3707792.0"
"1573152365672","3805133.0"
"1573152365728","3883556.0"
"1573152365773","3930463.0"
"1573152365824","3981301.0"
"1573152365874","4000459.0"
"1573152365923","3918549.0"
"1573152365970","3868741.0"
"1573152366013","3897551.0"
"1573152366064","3987033.0"
"1573152366112","4089642.0"
"1573152366167","4115311.0"
"1573152366215","4179980.0"
"1573152366265","4264124.0"
"1573152366311","4242722.0"
"1573152366358","4185230.0"
"1573152366411","4186481.0"
"1573152366453","4229932.0"
"1573152366503","4277004.0"
"1573152366553","4339533.0"
"1573152366605","4379652.0"
"1573152366651","4364094.0"
"1573152366697","4359771.0"
"1573152366755","4320731.0"
"1573152366794","4297472.0"
"1573152366850","4406052.0"
"1573152366892","4485835.0"
"1573152366947","4553748.0"
"1573152366997","4575922.0"
"1573152367039","4587576.0"
"1573152367091","4540476.0"
"1573152367142","4445659.0"
"1573152367193","4509490.0"
"1573152367233","4564701.0"
"1573152367289","4581721.0"
"1573152367337","4578994.0"
"1573152367386","4615269.0"
"1573152367432","4512591.0"
"1573152367477","4454182.0"
"1573152367533","4414201.0"
"1573152367575","4379670.0"
"1573152367628","4381009.0"
"1573152367671","4393896.0"
"1573152367728","4409510.0"
"1573152367775","4442615.0"
"1573152367819","4463989.0"
"1573152367871","4480199.0"
"1573152367922","4537732.0"
"1573152367973","4558545.0"
"1573152368018","4554904.0"
"1573152368064","4527203.0"
"1573152368118","4529775.0"
"1573152368167","4575276.0"
"1573152368214","4540273.0"
"1573152368261","4480768.0"
"1573152368311","4427465.0"
"1573152368360","4431577.0"
"1573152368411","4447932.0"
"1573152368452","4498423.0"
"1573152368507","4515905.0"
"1573152368551","4540456.0"
"1573152368605","4518206.0"
"1573152368648","4490197.0"
"1573152368702","4487877.0"
"1573152368753","4459133.0"
"1573152368794","4417129.0"
"1573152368849","4438040.0"
"1573152368899","4435661.0"
"1573152368946","4439031.0"
"1573152368992","4388994.0"
"1573152369044","4366782.0"
"1573152369090","4331692.0"
"1573152369139","4320587.0"
"1573152369185","4307102.0"
"1573152369235","4329825.0"
"1573152369287","4355986.0"
"1573152369335","4370694.0"
"1573152369387","4334988.0"
"1573152369431","4326030.0"
"1573152369482","4405802.0"
"1573152369533","4377801.0"
"1573152369575","4354096.0"
"1573152369629","4339303.0"
"1573152369678","4363613.0"
"1573152369721","4302961.0"
"1573152369770","4235064.0"
"1573152369816","4265512.0"
"1573152369870","4292134.0"
"1573152369915","4283379.0"
"1573152369966","4301795.0"
"1573152370017","4314394.0"
"1573152370062","4323998.0"
"1573152370116","4313335.0"
"1573152370166","4249821.0"
"1573152370212","4227592.0"
"1573152370261","4222612.0"
"1573152370307","4242173.0"
"1573152370357","4260975.0"
"1573152370411","4312854.0"
"1573152370459","4344031.0"
"1573152370507","4236434.0"
"1573152370551","4231714.0"
"1573152370601","4288802.0"
"1573152370651","4335652.0"
"1573152370698","4364509.0"
"1573152370752","4386614.0"
"1573152370801","4399309.0"
"1573152370842","4457274.0"
"1573152370892","4508373.0"
"1573152370946","4477830.0"
"1573152370994","4425683.0"
"1573152371044","4446640.0"
"1573152371093","4479341.0"
"1573152371141","4519131.0"
"1573152371193","4571800.0"
"1573152371243","4515019.0"
"1573152371289","4447951.0"
"1573152371338","4431711.0"
"1573152371384","4416975.0"
"1573152371436","4399445.0"
"1573152371482","4364133.0"
"1573152371530","4414740.0"
"1573152371577","4405002.0"
"1573152371630","4386045.0"
"1573152371679","4316292.0"
"1573152371727","4306901.0"
"1573152371772","4260656.0"
"1573152371820","4213085.0"
"1573152371872","4174287.0"
"1573152371922","4155207.0"
"1573152371974","4182714.0"
"1573152372021","4086637.0"
"1573152372064","4083988.0"
"1573152372119","4058636.0"
"1573152372165","4066188.0"
"1573152372216","4052154.0"
"1573152372263","4062990.0"
"1573152372310","4104803.0"
"1573152372359","4130269.0"
"1573152372409","4074721.0"
"1573152372454","4047396.0"
"1573152372502","3987705.0"
"1573152372553","3938293.0"
"1573152372601","3943293.0"
"1573152372654","3966823.0"
"1573152372700","3973180.0"
"1573152372754","3955025.0"
"1573152372800","3917779.0"
"1573152372851","3930674.0"
"1573152372899","3865728.0"
"1573152372947","3867144.0"
"1573152372990","3932737.0"
"1573152373038","3975724.0"
"1573152373095","4001558.0"
"1573152373140","3958810.0"
"1573152373192","3890308.0"
"1573152373233","3877016.0"
"1573152373288","3826968.0"
"1573152373338","3749930.0"
"1573152373380","3737148.0"
"1573152373438","3804554.0"
"1573152373478","3782958.0"
"1573152373528","3730003.0"
"1573152373575","3773895.0"
"1573152373631","3745434.0"
"1573152373680","3739895.0"
"1573152373728","3742620.0"
"1573152373778","3773925.0"
"1573152373820","3824280.0"
"1573152373876","3811990.0"
"1573152373927","3709929.0"
"1573152373973","3649777.0"
"1573152374020","3627046.0"
"1573152374064","3610181.0"
"1573152374116","3599904.0"
"1573152374165","3658514.0"
"1573152374217","3668849.0"
"1573152374262","3618629.0"
"1573152374312","3609689.0"
"1573152374363","3609931.0"
"1573152374410","3598506.0"
"1573152374454","3587102.0"
"1573152374503","3631853.0"
"1573152374552","3654757.0"
"1573152374601","3662713.0"
"1573152374657","3590397.0"
"1573152374703","3501976.0"
"1573152374753","3423427.0"
"1573152374801","3440282.0"
"1573152374843","3521924.0"
"1573152374892","3580515.0"
"1573152374943","3583250.0"
"1573152374992","3545742.0"
"1573152375043","3473840.0"
"1573152375090","3503130.0"
"1573152375134","3501927.0"
"1573152375190","3538171.0"
"1573152375242","3574763.0"
"1573152375282","3600048.0"
"1573152375338","3620679.0"
"1573152375382","3564101.0"
"1573152375436","3444742.0"
"1573152375483","3418725.0"
"1573152375532","3435225.0"
"1573152375581","3405039.0"
"1573152375628","3524831.0"
"1573152375674","3661192.0"
"1573152375721","3622731.0"
"1573152375773","3683557.0"
"1573152375823","3556955.0"
"1573152375873","3602793.0"
"1573152375922","3617800.0"
"1573152375971","3770563.0"
"1573152376021","3864513.0"
"1573152376064","3894932.0"
"1573152376119","3861971.0"
"1573152376162","3780396.0"
"1573152376216","3737380.0"
"1573152376259","3748264.0"
"1573152376314","3724812.0"
"1573152376362","3723501.0"
"1573152376405","3723828.0"
"1573152376460","3671594.0"
"1573152376502","3580783.0"
"1573152376552","3558361.0"
"1573152376603","3586389.0"
"1573152376654","3639895.0"
"1573152376704","3668020.0"
"1573152376750","3718395.0"
"1573152376796","3741118.0"
"1573152376851","3722152.0"
"1573152376900","3653187.0"
"1573152376944","3682285.0"
"1573152376997","3688903.0"
"1573152377044","3631833.0"
"1573152377094","3607253.0"
"1573152377142","3642554.0"
"1573152377188","3602301.0"
"1573152377241","3549807.0"
"1573152377282","3591996.0"
"1573152377331","3674512.0"
"1573152377388","3695492.0"
"1573152377437","3703677.0"
"1573152377485","3715362.0"
"1573152377535","3734097.0"
"1573152377582","3712241.0"
"1573152377623","3664302.0"
"1573152377679","3652553.0"
"1573152377728","3652715.0"
"1573152377778","3648178.0"
"1573152377826","3626055.0"
"1573152377874","3639480.0"
"1573152377922","3634405.0"
"1573152377973","3560807.0"
"1573152378022","3537267.0"
"1573152378065","3545492.0"
"1573152378118","3605577.0"
"1573152378166","3641148.0"
"1573152378217","3689904.0"
"1573152378266","3723298.0"
"1573152378309","3743207.0"
"1573152378362","3704815.0"
"1573152378405","3666527.0"
"1573152378457","3614398.0"
"1573152378505","3648449.0"
"1573152378552","3665950.0"
"1573152378607","3695057.0"
"1573152378651","3724137.0"
"1573152378704","3715074.0"
"1573152378749","3793217.0"
"1573152378801","3902868.0"
"1573152378849","3966661.0"
"1573152378899","3989930.0"
"1573152378947","4082312.0"
"1573152378997","4182475.0"
"1573152379045","4256737.0"
"1573152379088","4232618.0"
"1573152379144","4182686.0"
"1573152379185","4133034.0"
"1573152379240","4092781.0"
"1573152379288","4049188.0"
"1573152379339","4031435.0"
"1573152379387","4047993.0"
"1573152379436","4004187.0"
"1573152379481","3963221.0"
"1573152379533","3955988.0"
"1573152379582","4035683.0"
"1573152379625","3996269.0"
"1573152379680","3978739.0"
"1573152379727","3995219.0"
"1573152379781","4002789.0"
"1573152379827","3985097.0"
"1573152379875","3952589.0"
"1573152379918","3952308.0"
"1573152379972","3902780.0"
"1573152380015","3844961.0"
"1573152380067","3826121.0"
"1573152380120","3843370.0"
"1573152380169","3807741.0"
"1573152380219","3774531.0"
"1573152380268","3819089.0"
"1573152380314","3829867.0"
"1573152380363","3849025.0"
"1573152380406","3852925.0"
"1573152380461","3862934.0"
"1573152380508","3894816.0"
"1573152380553","3905922.0"
"1573152380605","3874578.0"
"1573152380656","3814542.0"
"1573152380705","3736224.0"
"1573152380753","3628915.0"
"1573152380803","3631496.0"
"1573152380852","3683086.0"
"1573152380901","3726112.0"
"1573152380949","3711095.0"
"1573152380998","3722884.0"
"1573152381045","3730108.0"
"1573152381095","3769041.0"
"1573152381145","3794555.0"
"1573152381188","3840077.0"
"1573152381244","3907173.0"
"1573152381290","3949236.0"
"1573152381340","3918289.0"
"1573152381388","3811084.0"
"1573152381436","3764532.0"
"1573152381486","3782044.0"
"1573152381529","3773568.0"
"1573152381575","3788566.0"
"1573152381632","3802908.0"
"1573152381676","3742167.0"
"1573152381725","3713233.0"
"1573152381774","3734164.0"
"1573152381822","3741358.0"
"1573152381870","3776197.0"
"1573152381918","3785425.0"
"1573152381969","3805460.0"
"1573152382024","3842523.0"
"1573152382070","3798534.0"
"1573152382122","3700297.0"
"1573152382171","3646147.0"
"1573152382221","3690965.0"
"1573152382270","3785260.0"
"1573152382310","4029740.0"
"1573152382365","4221667.0"
"1573152382411","4218132.0"
"1573152382463","4184267.0"
"1573152382510","4191183.0"
"1573152382555","4085345.0"
"1573152382611","4140285.0"
"1573152382656","4214838.0"
"1573152382701","4338618.0"
"1573152382752","4346256.0"
"1573152382805","4299465.0"
"1573152382850","4164154.0"
"1573152382905","4087714.0"
"1573152382953","4017999.0"
"1573152383002","4023777.0"
"1573152383046","4046644.0"
"1573152383092","4077602.0"
"1573152383148","4027621.0"
"1573152383193","3993197.0"
"1573152383239","3973152.0"
"1573152383296","3967171.0"
"1573152383341","3998831.0"
"1573152383394","4045826.0"
"1573152383433","4171966.0"
"1573152383481","4190854.0"
"1573152383534","4173035.0"
"1573152383580","4107219.0"
"1573152383634","4138668.0"
"1573152383677","4143079.0"
"1573152383732","4135306.0"
"1573152383775","4110638.0"
"1573152383832","4108665.0"
"1573152383873","4106402.0"
"1573152383922","4021042.0"
"1573152383972","4028594.0"
"1573152384027","4061478.0"
"1573152384076","4101054.0"
"1573152384122","4093513.0"
"1573152384170","4154040.0"
"1573152384216","4171138.0"
"1573152384273","4154089.0"
"1573152384312","4063211.0"
"1573152384368","3978055.0"
"1573152384412","3947058.0"
"1573152384466","3966583.0"
"1573152384515","4004148.0"
"1573152384556","4021573.0"
"1573152384614","3992474.0"
"1573152384657","3926196.0"
"1573152384711","3908829.0"
"1573152384753","3912395.0"
"1573152384810","3973296.0"
"1573152384852","4020234.0"
"1573152384905","4127900.0"
"1573152384950","4168643.0"
"1573152385000","4183322.0"
"1573152385047","4124220.0"
"1573152385099","4065735.0"
"1573152385150","4022940.0"
"1573152385192","4048898.0"
"1573152385247","4071996.0"
"1573152385294","4046472.0"
"1573152385345","4031445.0"
"1573152385391","4023527.0"
"1573152385436","4038639.0"
"1573152385492","4056470.0"
"1573152385533","4089758.0"
"1573152385589","4060466.0"
"1573152385633","4105900.0"
"1573152385686","4126214.0"
"1573152385737","4131551.0"
"1573152385783","4093456.0"
"1573152385831","4074626.0"
"1573152385876","4018547.0"
"1573152385923","3955025.0"
"1573152385974","3898457.0"
"1573152386029","3870023.0"
"1573152386077","3873607.0"
"1573152386126","3856412.0"
"1573152386173","3887880.0"
"1573152386223","3897888.0"
"1573152386271","3906306.0"
"1573152386319","3890058.0"
"1573152386371","3936648.0"
"1573152386412","3963182.0"
"1573152386461","3992907.0"
"1573152386511","3936802.0"
"1573152386559","3942127.0"
"1573152386608","3929000.0"
"1573152386662","3895586.0"
"1573152386706","3900334.0"
"1573152386754","3940904.0"
"1573152386801","3914725.0"
"1573152386852","3908811.0"
"1573152386902","3942050.0"
"1573152386952","3970801.0"
"1573152386998","3967565.0"
"1573152387048","3949293.0"
"1573152387101","3996972.0"
"1573152387153","4037071.0"
"1573152387194","4064512.0"
"1573152387251","4022593.0"
"1573152387299","3907145.0"
"1573152387347","3764089.0"
"1573152387394","3732421.0"
"1573152387443","3799102.0"
"1573152387491","3856442.0"
"1573152387536","3935193.0"
"1573152387591","3826919.0"
"1573152387641","3806722.0"
"1573152387688","3783287.0"
"1573152387737","3769321.0"
"1573152387786","3807213.0"
"1573152387833","3861199.0"
"1573152387883","3876496.0"
"1573152387931","3902098.0"
"1573152387978","3811712.0"
"1573152388032","3813684.0"
"1573152388075","3731033.0"
"1573152388128","3676353.0"
"1573152388177","3687507.0"
"1573152388227","3721400.0"
"1573152388270","3774531.0"
"1573152388321","3750085.0"
"1573152388372","3736072.0"
"1573152388417","3718058.0"
"1573152388469","3713320.0"
"1573152388520","3718887.0"
"1573152388561","3790868.0"
"1573152388614","3880714.0"
"1573152388658","3937253.0"
"1573152388711","3901480.0"
"1573152388755","3847513.0"
"1573152388813","3787322.0"
"1573152388858","3750981.0"
"1573152388909","3729058.0"
"1573152388957","3718838.0"
"1573152389006","3741041.0"
"1573152389051","3732892.0"
"1573152389101","3744556.0"
"1573152389150","3715372.0"
"1573152389196","3726053.0"
"1573152389254","3749719.0"
"1573152389301","3799082.0"
"1573152389349","3893034.0"
"1573152389396","3956258.0"
"1573152389444","3946914.0"
"1573152389491","3848968.0"
"1573152389544","3728826.0"
"1573152389591","3745722.0"
"1573152389642","3809013.0"
"1573152389691","3841089.0"
"1573152389731","3909822.0"
"1573152389782","3852135.0"
"1573152389832","3790299.0"
"1573152389880","3741754.0"
"1573152389928","3727642.0"
"1573152389975","3740395.0"
"1573152390030","3813030.0"
"1573152390077","3930666.0"
"1573152390130","4009705.0"
"1573152390179","3972874.0"
"1573152390224","3900806.0"
"1573152390279","3811604.0"
"1573152390326","3765343.0"
"1573152390373","3787304.0"
"1573152390418","3794661.0"
"1573152390473","3846588.0"
"1573152390518","3797686.0"
"1573152390563","3696849.0"
"1573152390620","3677470.0"
"1573152390664","3698332.0"
"1573152390715","3759774.0"
"1573152390763","3818607.0"
"1573152390813","3937485.0"
"1573152390858","4017247.0"
"1573152390912","4073142.0"
"1573152390961","4057577.0"
"1573152391009","3922391.0"
"1573152391053","3900056.0"
"1573152391100","3935510.0"
"1573152391156","4049659.0"
"1573152391198","4031504.0"
"1573152391254","3951471.0"
"1573152391301","3920686.0"
"1573152391345","3929278.0"
"1573152391398","3990934.0"
"1573152391446","4063124.0"
"1573152391498","4159607.0"
"1573152391538","4306206.0"
"1573152391592","4373688.0"
"1573152391640","4379997.0"
"1573152391692","4341701.0"
"1573152391740","4308480.0"
"1573152391790","4211697.0"
"1573152391839","4241702.0"
"1573152391881","4289080.0"
"1573152391930","4325355.0"
"1573152391978","4226155.0"
"1573152392034","4176522.0"
"1573152392082","4210629.0"
"1573152392133","4216842.0"
"1573152392179","4231233.0"
"1573152392227","4286075.0"
"1573152392278","4337722.0"
"1573152392319","4348732.0"
"1573152392377","4328919.0"
"1573152392419","4229575.0"
"1573152392472","4168576.0"
"1573152392521","4137108.0"
"1573152392564","4155351.0"
"1573152392619","4173200.0"
"1573152392664","4190132.0"
"1573152392718","4168104.0"
"1573152392758","4120116.0"
"1573152392815","4107625.0"
"1573152392861","4083640.0"
"1573152392914","4087907.0"
"1573152392953","4107471.0"
"1573152393010","4156430.0"
"1573152393053","4185132.0"
"1573152393101","4196325.0"
"1573152393158","4131281.0"
"1573152393200","4087464.0"
"1573152393252","4066149.0"
"1573152393303","4085711.0"
"1573152393351","4081233.0"
"1573152393401","4083728.0"
"1573152393446","4089207.0"
"1573152393493","4024482.0"
"1573152393542","4069424.0"
"1573152393589","4061854.0"
"1573152393643","4069048.0"
"1573152393688","4051287.0"
"1573152393736","4042280.0"
"1573152393786","4056035.0"
"1573152393840","4047512.0"
"1573152393886","4007962.0"
"1573152393932","3944978.0"
"1573152393982","3931060.0"
"1573152394034","3910150.0"
"1573152394083","3903329.0"
"1573152394133","3926225.0"
"1573152394181","3945567.0"
"1573152394227","3844902.0"
"1573152394280","3868789.0"
"1573152394321","3914388.0"
"1573152394377","3945335.0"
"1573152394422","3911411.0"
"1573152394469","3922903.0"
"1573152394523","3917681.0"
"1573152394567","3969135.0"
"1573152394620","3927921.0"
"1573152394662","3892041.0"
"1573152394720","3804544.0"
"1573152394761","3793217.0"
"1573152394812","3805478.0"
"1573152394858","3829829.0"
"1573152394909","3817701.0"
"1573152394957","3802329.0"
"1573152395010","3837121.0"
"1573152395054","3847608.0"
"1573152395103","3887004.0"
"1573152395152","3891175.0"
"1573152395203","3971756.0"
"1573152395258","4047520.0"
"1573152395305","4103212.0"
"1573152395349","4037032.0"
"1573152395402","3951471.0"
"1573152395443","3901047.0"
"1573152395491","3904225.0"
"1573152395543","3908965.0"
"1573152395589","3951327.0"
"1573152395637","3969771.0"
"1573152395686","3911056.0"
"1573152395735","3917874.0"
"1573152395785","3908262.0"
"1573152395841","3910505.0"
"1573152395887","3901135.0"
"1573152395933","3925233.0"
"1573152395985","3944458.0"
"1573152396037","3948168.0"
"1573152396084","3895596.0"
"1573152396133","3730793.0"
"1573152396174","3681649.0"
"1573152396226","3687111.0"
"1573152396281","3767576.0"
"1573152396323","3839124.0"
"1573152396379","3907250.0"
"1573152396424","3827449.0"
"1573152396476","3864533.0"
"1573152396523","3870774.0"
"1573152396572","3958656.0"
"1573152396622","3974269.0"
"1573152396664","4060186.0"
"1573152396713","4155119.0"
"1573152396866","4182629.0"
"1573152396872","4153839.0"
"1573152396873","4114492.0"
"1573152396913","4046008.0"
"1573152396970","4015416.0"
"1573152397012","3985617.0"
"1573152397055","3980377.0"
"1573152397104","3976754.0"
"1573152397152","3978711.0"
"1573152397204","4001076.0"
"1573152397251","3978747.0"
"1573152397299","3991482.0"
"1573152397349","3991704.0"
"1573152397395","4118056.0"
"1573152397447","4215233.0"
"1573152397494","4259819.0"
"1573152397546","4226791.0"
"1573152397591","4170898.0"
"1573152397641","4098263.0"
"1573152397688","4028084.0"
"1573152397738","3996403.0"
"1573152397789","3971880.0"
"1573152397836","3979721.0"
"1573152397886","3934017.0"
"1573152397931","3903146.0"
"1573152397988","3920812.0"
"1573152398031","3968231.0"
"1573152398080","3974867.0"
"1573152398129","4027631.0"
"1573152398175","4133861.0"
"1573152398228","4189689.0"
"1573152398274","4176993.0"
"1573152398326","4127928.0"
"1573152398372","4096384.0"
"1573152398420","4054320.0"
"1573152398471","4014262.0"
"1573152398519","3996856.0"
"1573152398569","3990267.0"
"1573152398616","3963944.0"
"1573152398666","3935886.0"
"1573152398714","3946790.0"
"1573152398766","3967258.0"
"1573152398812","3980606.0"
"1573152398862","3969926.0"
"1573152398908","3951961.0"
"1573152398959","3966120.0"
"1573152399009","3961730.0"
"1573152399056","3930522.0"
"1573152399107","3925079.0"
"1573152399153","3856028.0"
"1573152399207","3824367.0"
"1573152399252","3793178.0"
"1573152399300","3764725.0"
"1573152399350","3771363.0"
"1573152399397","3735925.0"
"1573152399451","3770890.0"
"1573152399495","3779338.0"
"1573152399548","3820369.0"
"1573152399593","3813512.0"
"1573152399642","3841367.0"
"1573152399694","3900334.0"
"1573152399744","3928238.0"
"1573152399791","3903360.0"
"1573152399835","3906171.0"
"1573152399892","3885598.0"
"1573152399932","3858523.0"
"1573152399984","3822758.0"
"1573152400032","3830763.0"
"1573152400079","3822758.0"
"1573152400129","3805960.0"
"1573152400181","3808879.0"
"1573152400232","3793842.0"
"1573152400281","3818819.0"
"1573152400332","3806268.0"
"1573152400373","3829221.0"
"1573152400423","3851952.0"
"1573152400472","3845201.0"
"1573152400525","3820515.0"
"1573152400570","3759959.0"
"1573152400618","3725592.0"
"1573152400670","3702416.0"
"1573152400715","3697456.0"
"1573152400771","3749150.0"
"1573152400813","3795279.0"
"1573152400862","3740598.0"
"1573152400914","3811575.0"
"1573152400965","3843998.0"
"1573152401011","3876581.0"
"1573152401057","3838921.0"
"1573152401110","3844835.0"
"1573152401153","3890722.0"
"1573152401210","3905093.0"
"1573152401253","3872132.0"
"1573152401301","3875551.0"
"1573152401351","3816653.0"
"1573152401398","3813050.0"
"1573152401453","3808099.0"
"1573152401496","3856172.0"
"1573152401550","3846540.0"
"1573152401594","3835001.0"
"1573152401641","3788873.0"
"1573152401693","3798477.0"
"1573152401738","3817721.0"
"1573152401794","3829182.0"
"1573152401838","3891397.0"
"1573152401892","3951577.0"
"1573152401935","3947926.0"
"1573152401986","3926804.0"
"1573152402033","3903311.0"
"1573152402083","3809716.0"
"1573152402132","3810419.0"
"1573152402180","3796087.0"
"1573152402232","3828508.0"
"1573152402277","3850036.0"
"1573152402327","3807175.0"
"1573152402374","3834221.0"
"1573152402424","3798389.0"
"1573152402477","3848342.0"
"1573152402521","3865890.0"
"1573152402571","3933190.0"
"1573152402618","4032601.0"
"1573152402672","4076755.0"
"1573152402717","3991289.0"
"1573152402771","3938314.0"
"1573152402814","3914329.0"
"1573152402864","3917249.0"
"1573152402911","3906210.0"
"1573152402966","3910206.0"
"1573152403016","3913636.0"
"1573152403058","3879887.0"
"1573152403110","3872855.0"
"1573152403155","3844691.0"
"1573152403210","3907163.0"
"1573152403258","3913472.0"
"1573152403307","3992340.0"
"1573152403351","4061352.0"
"1573152403399","4107769.0"
"1573152403455","4027678.0"
"1573152403502","3991655.0"
"1573152403551","3931205.0"
"1573152403595","3914666.0"
"1573152403641","3888843.0"
"1573152403698","3920109.0"
"1573152403746","3909359.0"
"1573152403797","3822596.0"
"1573152403839","3767316.0"
"1573152403900","3746531.0"
"1573152403936","3837322.0"
"1573152403990","3860362.0"
"1573152404034","3947367.0"
"1573152404087","4029990.0"
"1573152404133","4039883.0"
"1573152404186","3962124.0"
"1573152404238","3902618.0"
"1573152404284","3884712.0"
"1573152404331","3888554.0"
"1573152404375","3890066.0"
"1573152404430","3901374.0"
"1573152404478","3904408.0"
"1573152404528","3913896.0"
"1573152404573","3958280.0"
"1573152404619","4006546.0"
"1573152404678","4029307.0"
"1573152404717","4026282.0"
"1573152404772","4099311.0"
"1573152404815","4094208.0"
"1573152404864","4090461.0"
"1573152404918","4023432.0"
"1573152404967","3897955.0"
"1573152405015","3723329.0"
"1573152405059","3713060.0"
"1573152405109","3800066.0"
"1573152405161","3903254.0"
"1573152405212","3867440.0"
"1573152405255","3841328.0"
"1573152405304","3851597.0"
"1573152405358","3876352.0"
"1573152405402","3921101.0"
"1573152405459","3956740.0"
"1573152405504","4055564.0"
"1573152405547","4103954.0"
"1573152405595","4101075.0"
"1573152405644","4093976.0"
"1573152405695","4056874.0"
"1573152405744","4028546.0"
"1573152405793","4031262.0"
"1573152405840","4015205.0"
"1573152405899","4008868.0"
"1573152405939","4015012.0"
"1573152405993","3994997.0"
"1573152406036","3991068.0"
"1573152406086","4019752.0"
"1573152406133","4059753.0"
"1573152406191","4029905.0"
"1573152406239","4009301.0"
"1573152406282","4017324.0"
"1573152406331","4038042.0"
"1573152406382","4011631.0"
"1573152406434","4012344.0"
"1573152406481","3999323.0"
"1573152406531","3984615.0"
"1573152406594","4076938.0"
"1573152406621","4330528.0"
"1573152406673","4294436.0"
"1573152406720","4260705.0"
"1573152406770","4261766.0"
"1573152406818","4206671.0"
"1573152406866","4251778.0"
"1573152406916","4236923.0"
"1573152406964","4322196.0"
"1573152407013","4369355.0"
"1573152407062","4403634.0"
"1573152407109","4307246.0"
"1573152407160","4204021.0"
"1573152407210","4157990.0"
"1573152407257","4177466.0"
"1573152407307","4199484.0"
"1573152407355","4237830.0"
"1573152407404","4248204.0"
"1573152407455","4213142.0"
"1573152407502","4175471.0"
"1573152407551","4095209.0"
"1573152407597","4136616.0"
"1573152407648","4110043.0"
"1573152407697","4116398.0"
"1573152407746","4107924.0"
"1573152407795","4090845.0"
"1573152407843","3994544.0"
"1573152407892","4073864.0"
"1573152407940","4015784.0"
"1573152407991","3933488.0"
"1573152408038","3921533.0"
"1573152408088","3962605.0"
"1573152408139","3939555.0"
"1573152408184","3926438.0"
"1573152408236","3912356.0"
"1573152408282","3871939.0"
"1573152408332","3887928.0"
"1573152408380","3894343.0"
"1573152408429","3959330.0"
"1573152408477","4061257.0"
"1573152408528","4118846.0"
"1573152408577","4049332.0"
"1573152408624","3934596.0"
"1573152408672","3931081.0"
"1573152408725","3943044.0"
"1573152408776","3949246.0"
"1573152408824","3991722.0"
"1573152408874","4003829.0"
"1573152408919","3968818.0"
"1573152408970","3982543.0"
"1573152409020","3949381.0"
"1573152409064","3967469.0"
"1573152409116","3961998.0"
"1573152409165","4025445.0"
"1573152409209","4092204.0"
"1573152409258","4136752.0"
"1573152409311","4027765.0"
"1573152409362","3923153.0"
"1573152409409","3867257.0"
"1573152409457","3896433.0"
"1573152409506","3936465.0"
"1573152409552","4031512.0"
"1573152409604","4143118.0"
"1573152409654","4124442.0"
"1573152409698","4109435.0"
"1573152409747","4004272.0"
"1573152409798","4048560.0"
"1573152409849","4104397.0"
"1573152409897","4217699.0"
"1573152409942","4327763.0"
"1573152409996","4390641.0"
"1573152410038","4405550.0"
"1573152410094","4332609.0"
"1573152410142","4210832.0"
"1573152410190","4276000.0"
"1573152410245","4540649.0"
"1573152410283","4911229.0"
"1573152410331","5060410.0"
"1573152410386","5099121.0"
"1573152410435","5088747.0"
"1573152410479","4951348.0"
"1573152410533","4974906.0"
"1573152410579","5142523.0"
"1573152410631","5251722.0"
"1573152410678","5301008.0"
"1573152410728","5335202.0"
"1573152410776","5328103.0"
"1573152410820","5251086.0"
"1573152410874","5151240.0"
"1573152410920","5044796.0"
"1573152410971","5115294.0"
"1573152411022","5124358.0"
"1573152411064","5191482.0"
"1573152411119","5093843.0"
"1573152411168","4927124.0"
"1573152411215","4815526.0"
"1573152411261","4725130.0"
"1573152411315","4730140.0"
"1573152411363","4814661.0"
"1573152411411","4867202.0"
"1573152411459","4896965.0"
"1573152411503","4902215.0"
"1573152411551","4853333.0"
"1573152411599","4810837.0"
"1573152411655","4756069.0"
"1573152411699","4744789.0"
"1573152411754","4818196.0"
"1573152411803","4859333.0"
"1573152411851","4714392.0"
"1573152411899","4634426.0"
"1573152411944","4622108.0"
"1573152411997","4635524.0"
"1573152412045","4644165.0"
"1573152412095","4617157.0"
"1573152412144","4640802.0"
"1573152412194","4664710.0"
"1573152412245","4720286.0"
"1573152412292","4683385.0"
"1573152412338","4661973.0"
"1573152412387","4557092.0"
"1573152412433","4506764.0"
"1573152412479","4498269.0"
"1573152412531","4498230.0"
"1573152412586","4465529.0"
"1573152412627","4401024.0"
"1573152412674","4418015.0"
"1573152412724","4441439.0"
"1573152412773","4466696.0"
"1573152412824","4420114.0"
"1573152412872","4418641.0"
"1573152412919","4447894.0"
"1573152412969","4513680.0"
"1573152413021","4488917.0"
"1573152413068","4460800.0"
"1573152413120","4372455.0"
"1573152413169","4343212.0"
"1573152413218","4360407.0"
"1573152413268","4404703.0"
"1573152413317","4399280.0"
"1573152413366","4362467.0"
"1573152413413","4326964.0"
"1573152413463","4361648.0"
"1573152413510","4349801.0"
"1573152413553","4305359.0"
"1573152413610","4294428.0"
"1573152413657","4326347.0"
"1573152413701","4385257.0"
"1573152413756","4352507.0"
"1573152413806","4246247.0"
"1573152413854","4156891.0"
"1573152413902","4047664.0"
"1573152413946","3996210.0"
"1573152414000","4025020.0"
"1573152414046","4072159.0"
"1573152414098","4037176.0"
"1573152414144","3968751.0"
"1573152414196","4001865.0"
"1573152414247","3997060.0"
"1573152414296","3974326.0"
"1573152414343","3994593.0"
"1573152414392","4018905.0"
"1573152414440","4058231.0"
"1573152414490","4139593.0"
"1573152414534","4045344.0"
"1573152414583","3885385.0"
"1573152414630","3840067.0"
"1573152414682","3867893.0"
"1573152414727","3974125.0"
"1573152414776","4023373.0"
"1573152414825","4002539.0"
"1573152414873","4007730.0"
"1573152414925","4099592.0"
"1573152414971","4103078.0"
"1573152415021","4109850.0"
"1573152415069","4160253.0"
"1573152415122","4235095.0"
"1573152415167","4311919.0"
"1573152415216","4312149.0"
"1573152415265","4203077.0"
"1573152415314","4109850.0"
"1573152415365","4045836.0"
"1573152415412","4040181.0"
"1573152415464","4098436.0"
"1573152415510","4115551.0"
"1573152415560","4122689.0"
"1573152415610","4090971.0"
"1573152415661","4082119.0"
"1573152415708","4040287.0"
"1573152415755","3997637.0"
"1573152415803","3958444.0"
"1573152415857","3958233.0"
"1573152415909","3979077.0"
"1573152415951","3959446.0"
"1573152416005","3869858.0"
"1573152416050","3774193.0"
"1573152416101","3732035.0"
"1573152416152","3783671.0"
"1573152416199","3873913.0"
"1573152416252","3969058.0"
"1573152416298","3970629.0"
"1573152416349","3965592.0"
"1573152416394","3975521.0"
"1573152416438","3975781.0"
"1573152416493","3975580.0"
"1573152416541","3943716.0"
"1573152416588","3985635.0"
"1573152416632","3992502.0"
"1573152416685","3964964.0"
"1573152416736","3920725.0"
"1573152416783","3902270.0"
"1573152416835","3829308.0"
"1573152416883","3776534.0"
"1573152416933","3748784.0"
"1573152416981","3729954.0"
"1573152417027","3684896.0"
"1573152417073","3632065.0"
"1573152417129","3694163.0"
"1573152417177","3705768.0"
"1573152417224","3716951.0"
"1573152417275","3719667.0"
"1573152417323","3734972.0"
"1573152417368","3725793.0"
"1573152417419","3718501.0"
"1573152417469","3688903.0"
"1573152417517","3714929.0"
"1573152417562","3853175.0"
"1573152417616","3939653.0"
"1573152417664","4011641.0"
"1573152417713","4038265.0"
"1573152417761","4001759.0"
"1573152417808","3978845.0"
"1573152417855","4124895.0"
"1573152417906","4110205.0"
"1573152417950","4114279.0"
"1573152418002","4083516.0"
"1573152418051","4102615.0"
"1573152418103","4103165.0"
"1573152418149","4074345.0"
"1573152418201","3967863.0"
"1573152418250","3957760.0"
"1573152418299","3939931.0"
"1573152418348","3904178.0"
"1573152418396","3894893.0"
"1573152418443","3909831.0"
"1573152418492","3852655.0"
"1573152418543","3850575.0"
"1573152418591","3854303.0"
"1573152418640","3868115.0"
"1573152418691","3851520.0"
"1573152418738","3848380.0"
"1573152418788","3868704.0"
"1573152418837","3901943.0"
"1573152418885","3899536.0"
"1573152418931","3895604.0"
"1573152418977","3851347.0"
"1573152419033","3819156.0"
"1573152419074","3787853.0"
"1573152419130","3809428.0"
"1573152419178","3818886.0"
"1573152419226","3811825.0"
"1573152419276","3854679.0"
"1573152419324","3849207.0"
"1573152419370","3844449.0"
"1573152419420","3831745.0"
"1573152419472","3891069.0"
"1573152419519","3953580.0"
"1573152419563","3966843.0"
"1573152419617","3936522.0"
"1573152419665","3897984.0"
"1573152419711","3842850.0"
"1573152419763","3828163.0"
"1573152419810","3818819.0"
"1573152419860","3817441.0"
"1573152419910","3880551.0"
"1573152419952","3818491.0"
"1573152420007","3826718.0"
"1573152420049","3802772.0"
"1573152420104","3824530.0"
"1573152420155","3822027.0"
"1573152420203","3850595.0"
"1573152420256","3940510.0"
"1573152420293","3998522.0"
"1573152420350","3950959.0"
"1573152420391","3951162.0"
"1573152420442","3921718.0"
"1573152420492","3894603.0"
"1573152420541","3878036.0"
"1573152420593","3906277.0"
"1573152420637","3891579.0"
"1573152420690","3838931.0"
"1573152420740","3842379.0"
"1573152420787","3834105.0"
"1573152420830","3868405.0"
"1573152420885","3854949.0"
"1573152420936","3928701.0"
"1573152420982","4030675.0"
"1573152421036","4081830.0"
"1573152421080","4013444.0"
"1573152421131","3807502.0"
"1573152421176","3721593.0"
"1573152421227","3799970.0"
"1573152421270","3944998.0"
"1573152421325","4084083.0"
"1573152421374","4067728.0"
"1573152421421","3994871.0"
"1573152421470","3977872.0"
"1573152421519","3942918.0"
"1573152421563","4020610.0"
"1573152421611","4049091.0"
"1573152421665","4167149.0"
"1573152421715","4246162.0"
"1573152421763","4290141.0"
"1573152421816","4297191.0"
"1573152421861","4337385.0"
"1573152421911","4363739.0"
"1573152421953","4390873.0"
"1573152422007","4453211.0"
"1573152422051","4507410.0"
"1573152422105","4542817.0"
"1573152422155","4441979.0"
"1573152422197","4488299.0"
"1573152422251","4463835.0"
"1573152422300","4451573.0"
"1573152422349","4419315.0"
"1573152422396","4380769.0"
"1573152422448","4390698.0"
"1573152422495","4416050.0"
"1573152422544","4407440.0"
"1573152422598","4527906.0"
"1573152422642","4585872.0"
"1573152422691","4652718.0"
"1573152422739","4608719.0"
"1573152422788","4574063.0"
"1573152422835","4563689.0"
"1573152422886","4575884.0"
"1573152422938","4545601.0"
"1573152422983","4558189.0"
"1573152423032","4539483.0"
"1573152423081","4627791.0"
"1573152423131","4633260.0"
"1573152423179","4646322.0"
"1573152423227","4656879.0"
"1573152423275","4667068.0"
"1573152423324","4684619.0"
"1573152423376","4739703.0"
"1573152423421","4752977.0"
"1573152423473","4703101.0"
"1573152423515","4685157.0"
"1573152423564","4654866.0"
"1573152423612","4666790.0"
"1573152423666","4599163.0"
"1573152423713","4529909.0"
"1573152423764","4577414.0"
"1573152423814","4622917.0"
"1573152423862","4652389.0"
"1573152423911","4562446.0"
"1573152423954","4510309.0"
"1573152424009","4522656.0"
"1573152424054","4552391.0"
"1573152424107","4594405.0"
"1573152424157","4660798.0"
"1573152424197","4701763.0"
"1573152424254","4685600.0"
"1573152424301","4633425.0"
"1573152424351","4605559.0"
"1573152424398","4599972.0"
"1573152424448","4577934.0"
"1573152424498","4597930.0"
"1573152424545","4615509.0"
"1573152424596","4647121.0"
"1573152424644","4595244.0"
"1573152424693","4596120.0"
"1573152424741","4635389.0"
"1573152424791","4654644.0"
"1573152424834","4644193.0"
"1573152424882","4632259.0"
"1573152424940","4580488.0"
"1573152424984","4577704.0"
"1573152425028","4565451.0"
"1573152425077","4530988.0"
"1573152425130","4522185.0"
"1573152425176","4469575.0"
"1573152425229","4453922.0"
"1573152425280","4445525.0"
"1573152425320","4401351.0"
"1573152425369","4369056.0"
"1573152425417","4374806.0"
"1573152425468","4362274.0"
"1573152425517","4388839.0"
"1573152425566","4350303.0"
"1573152425615","4288570.0"
"1573152425665","4228524.0"
"1573152425720","4200862.0"
