time,value
1574097015904,4100784.0
1574097015948,4100701.0
1574097015999,4069347.0
1574097016047,4017824.0
1574097016096,3877816.0
1574097016148,3797030.0
1574097016199,3724285.0
1574097016250,3684630.0
1574097016358,3641303.0
1574097016407,3610648.0
1574097016410,3597291.0
1574097016437,3603793.0
1574097016543,3610055.0
1574097016544,3607007.0
1574097016588,3612208.0
1574097016633,3619634.0
1574097016681,3630453.0
1574097016729,3624972.0
1574097016776,3589613.0
1574097016827,3565417.0
1574097016876,3556408.0
1574097016924,3567882.0
1574097016978,3580781.0
1574097017022,3579377.0
1574097017070,3573396.0
1574097017119,3584869.0
1574097017168,3597228.0
1574097017216,3619458.0
1574097017265,3613289.0
1574097017311,3623381.0
1574097017360,3599392.0
1574097017410,3564283.0
1574097017460,3529569.0
1574097017511,3524827.0
1574097017554,3527031.0
1574097017606,3527781.0
1574097017656,3556284.0
1574097017708,3575330.0
1574097017752,3582644.0
1574097017802,3583725.0
1574097017851,3612749.0
1574097017899,3592057.0
1574097017954,3580917.0
1574097017996,3584568.0
1574097018049,3599839.0
1574097018090,3618813.0
1574097018143,3633418.0
1574097018187,3641679.0
1574097018240,3637329.0
1574097018292,3633710.0
1574097018332,3644174.0
1574097018388,3653193.0
1574097018435,3685453.0
1574097018484,3656003.0
1574097018535,3614953.0
1574097018578,3608431.0
1574097018630,3622765.0
1574097018683,3649968.0
1574097018731,3675381.0
1574097018776,3690028.0
1574097018829,3700713.0
1574097018869,3722193.0
1574097018926,3730360.0
1574097018968,3748585.0
1574097019022,3736226.0
1574097019072,3698777.0
1574097019119,3721642.0
1574097019166,3779323.0
1574097019207,3807140.0
1574097019260,3800338.0
1574097019307,3803396.0
1574097019357,3814278.0
1574097019410,3849344.0
1574097019451,3891703.0
1574097019511,3865821.0
1574097019554,3843061.0
1574097019605,3836716.0
1574097019654,3837058.0
1574097019704,3849573.0
1574097019754,3860766.0
1574097019796,3856375.0
1574097019848,3838264.0
1574097019890,3840097.0
1574097019947,3858883.0
1574097019988,3878544.0
1574097020043,3849927.0
1574097020089,3810001.0
1574097020138,3802315.0
1574097020187,3813558.0
1574097020233,3826135.0
1574097020288,3840908.0
1574097020327,3872812.0
1574097020384,3874413.0
1574097020431,3872946.0
1574097020474,3885159.0
1574097020527,3866540.0
1574097020571,3838724.0
1574097020627,3846223.0
1574097020668,3847066.0
1574097020724,3896072.0
1574097020771,3877877.0
1574097020820,3882101.0
1574097020867,3903353.0
1574097020915,3913069.0
1574097020968,3925575.0
1574097021008,3921964.0
1574097021057,3939555.0
1574097021109,3941199.0
1574097021155,3932513.0
1574097021208,3948834.0
1574097021256,3972280.0
1574097021309,3986657.0
1574097021349,4011322.0
1574097021396,4024387.0
1574097021455,4023856.0
1574097021495,3987354.0
1574097021542,3953212.0
1574097021590,3943373.0
1574097021642,3955575.0
1574097021689,3972197.0
1574097021746,3988051.0
1574097021795,3990414.0
1574097021836,3995572.0
1574097021892,4000440.0
1574097021938,3999494.0
1574097021987,3972740.0
1574097022031,3955232.0
1574097022080,3957313.0
1574097022135,3968245.0
1574097022176,3978875.0
1574097022226,3991338.0
1574097022279,3997309.0
1574097022323,4005132.0
1574097022371,4021995.0
1574097022421,4027227.0
1574097022471,4001596.0
1574097022518,3977088.0
1574097022565,3971033.0
1574097022617,3971303.0
1574097022667,3995292.0
1574097022711,4011020.0
1574097022759,4024096.0
1574097022813,4036205.0
1574097022864,4051049.0
1574097022910,4045931.0
1574097022962,4016097.0
1574097023008,4005715.0
1574097023054,4009429.0
1574097023100,4021028.0
1574097023158,4035102.0
1574097023206,4047449.0
1574097023252,4057061.0
1574097023299,4069441.0
1574097023349,4080904.0
1574097023393,4067829.0
1574097023450,4037609.0
1574097023497,4031628.0
1574097023544,4036142.0
1574097023588,4049873.0
1574097023636,4063979.0
1574097023687,4074248.0
1574097023733,4084087.0
1574097023790,4094699.0
1574097023839,4105486.0
1574097023885,4079532.0
1574097023931,4056448.0
1574097023981,4050332.0
1574097024027,4064896.0
1574097024080,4072468.0
1574097024126,4070180.0
1574097024178,4066694.0
1574097024226,4072084.0
1574097024274,4081237.0
1574097024320,4092690.0
1574097024372,4078232.0
1574097024412,4057831.0
1574097024471,4059985.0
1574097024514,4065176.0
1574097024566,4061515.0
1574097024613,4047928.0
1574097024661,4030764.0
1574097024709,4019862.0
1574097024752,4009065.0
1574097024810,4007151.0
1574097024857,3988561.0
1574097024906,3959944.0
1574097024954,3944517.0
1574097024996,3952392.0
1574097025053,3952195.0
1574097025097,3958674.0
1574097025144,3947471.0
1574097025200,3943486.0
1574097025247,3941323.0
1574097025295,3941469.0
1574097025337,3922245.0
1574097025384,3909534.0
1574097025435,3904321.0
1574097025485,3905893.0
1574097025536,3898496.0
1574097025579,3892910.0
1574097025635,3888083.0
1574097025676,3900462.0
1574097025732,3906704.0
1574097025776,3911354.0
1574097025829,3902220.0
1574097025877,3889487.0
1574097025920,3887750.0
1574097025975,3889477.0
1574097026017,3896561.0
1574097026066,3904883.0
1574097026116,3913423.0
1574097026168,3922797.0
1574097026217,3933801.0
1574097026265,3927436.0
1574097026315,3894044.0
1574097026356,3857166.0
1574097026413,3843726.0
1574097026458,3844382.0
1574097026504,3844955.0
1574097026555,3829455.0
1574097026607,3811697.0
1574097026656,3811334.0
1574097026696,3815651.0
1574097026754,3790352.0
1574097026797,3751102.0
1574097026848,3732565.0
1574097026897,3731651.0
1574097026947,3726000.0
1574097026996,3737880.0
1574097027044,3760652.0
1574097027088,3770951.0
1574097027137,3776776.0
1574097027188,3777775.0
1574097027230,3743041.0
1574097027281,3705809.0
1574097027327,3692952.0
1574097027378,3703604.0
1574097027427,3710856.0
1574097027474,3703241.0
1574097027525,3676954.0
1574097027570,3659477.0
1574097027629,3655096.0
1574097027676,3626489.0
1574097027718,3574436.0
1574097027774,3543072.0
1574097027817,3536904.0
1574097027869,3541898.0
1574097027919,3552424.0
1574097027970,3552851.0
1574097028016,3540981.0
1574097028060,3535280.0
1574097028108,3526460.0
1574097028162,3486275.0
1574097028212,3469257.0
1574097028260,3470037.0
1574097028310,3484777.0
1574097028357,3501411.0
1574097028399,3512832.0
1574097028458,3515454.0
1574097028498,3514225.0
1574097028546,3512604.0
1574097028604,3499361.0
1574097028645,3455794.0
1574097028694,3422205.0
1574097028742,3411179.0
1574097028796,3423953.0
1574097028837,3449532.0
1574097028894,3461849.0
1574097028940,3456471.0
1574097028989,3458635.0
1574097029038,3459842.0
1574097029082,3423746.0
1574097029136,3391258.0
1574097029179,3389208.0
1574097029231,3401971.0
1574097029280,3400047.0
1574097029329,3384714.0
1574097029380,3356993.0
1574097029425,3328197.0
1574097029478,3333304.0
1574097029518,3295059.0
1574097029574,3265883.0
1574097029621,3246632.0
1574097029669,3244172.0
1574097029712,3265190.0
1574097029769,3281930.0
1574097029817,3294782.0
1574097029858,3297619.0
1574097029916,3302450.0
1574097029961,3309590.0
1574097030013,3277500.0
1574097030061,3245535.0
1574097030103,3229167.0
1574097030150,3228466.0
1574097030209,3228734.0
1574097030249,3226914.0
1574097030303,3221105.0
1574097030354,3224133.0
1574097030394,3228877.0
1574097030449,3223415.0
1574097030499,3183309.0
1574097030540,3165649.0
1574097030590,3167839.0
1574097030642,3173694.0
1574097030694,3170629.0
1574097030742,3175635.0
1574097030784,3197171.0
1574097030839,3221193.0
1574097030880,3242644.0
1574097030936,3241612.0
1574097030982,3199394.0
1574097031034,3188542.0
1574097031076,3199071.0
1574097031129,3219104.0
1574097031180,3229909.0
1574097031220,3234188.0
1574097031277,3230199.0
1574097031322,3227095.0
1574097031375,3222255.0
1574097031423,3215888.0
1574097031463,3182687.0
1574097031512,3155506.0
1574097031561,3148375.0
1574097031616,3149051.0
1574097031664,3139840.0
1574097031708,3118996.0
1574097031764,3107961.0
1574097031810,3106513.0
1574097031860,3113943.0
1574097031908,3152355.0
1574097031957,3198386.0
1574097032003,3198504.0
1574097032055,3188898.0
1574097032100,3197795.0
1574097032151,3223367.0
1574097032201,3249477.0
1574097032243,3258231.0
1574097032298,3259745.0
1574097032344,3258831.0
1574097032389,3258491.0
1574097032436,3255480.0
1574097032484,3248601.0
1574097032536,3248688.0
1574097032585,3223706.0
1574097032633,3181047.0
1574097032682,3158958.0
1574097032736,3144734.0
1574097032785,3129319.0
1574097032832,3125473.0
1574097032881,3115150.0
1574097032923,3129185.0
1574097032974,3157926.0
1574097033025,3178471.0
1574097033070,3191940.0
1574097033117,3212925.0
1574097033172,3232477.0
1574097033223,3239419.0
1574097033263,3217158.0
1574097033319,3200900.0
1574097033366,3186698.0
1574097033414,3185288.0
1574097033467,3191434.0
1574097033507,3183199.0
1574097033563,3165460.0
1574097033603,3156585.0
1574097033650,3160439.0
1574097033701,3164247.0
1574097033749,3166468.0
1574097033800,3167918.0
1574097033847,3167461.0
1574097033903,3157729.0
1574097033949,3110192.0
1574097033993,3074588.0
1574097034046,3074178.0
1574097034091,3095503.0
1574097034147,3112549.0
1574097034192,3118791.0
1574097034243,3129918.0
1574097034285,3151211.0
1574097034333,3167642.0
1574097034386,3181474.0
1574097034438,3186043.0
1574097034489,3188354.0
1574097034532,3193325.0
1574097034577,3201466.0
1574097034625,3173363.0
1574097034672,3116678.0
1574097034724,3093510.0
1574097034771,3099253.0
1574097034821,3107734.0
1574097034869,3098481.0
1574097034918,3084036.0
1574097034967,3066014.0
1574097035015,3059023.0
1574097035065,3056060.0
1574097035111,3063877.0
1574097035162,3089371.0
1574097035208,3120587.0
1574097035258,3133905.0
1574097035307,3128515.0
1574097035356,3096346.0
1574097035405,3092026.0
1574097035452,3117230.0
1574097035502,3141778.0
1574097035549,3149155.0
1574097035599,3141014.0
1574097035649,3123242.0
1574097035696,3097679.0
1574097035745,3089584.0
1574097035792,3093847.0
1574097035843,3100436.0
1574097035890,3100137.0
1574097035939,3084596.0
1574097035987,3013528.0
1574097036036,2965731.0
1574097036088,2945911.0
1574097036132,2955526.0
1574097036185,3017287.0
1574097036230,3055343.0
1574097036280,3085826.0
1574097036327,3138578.0
1574097036377,3200300.0
1574097036428,3242636.0
1574097036473,3283679.0
1574097036525,3318590.0
1574097036571,3289061.0
1574097036620,3228680.0
1574097036669,3185783.0
1574097036724,3166413.0
1574097036774,3152361.0
1574097036819,3130532.0
1574097036867,3099190.0
1574097036910,3083304.0
1574097036967,3080506.0
1574097037008,3079860.0
1574097037064,3085565.0
1574097037109,3074753.0
1574097037161,3023670.0
1574097037207,2994740.0
1574097037252,3000415.0
1574097037308,3007656.0
1574097037356,3014702.0
1574097037397,3028045.0
1574097037450,3051237.0
1574097037496,3068795.0
1574097037545,3088402.0
1574097037592,3114780.0
1574097037643,3140880.0
1574097037691,3130934.0
1574097037745,3101326.0
1574097037792,3080419.0
1574097037835,3089891.0
1574097037887,3114975.0
1574097037936,3141904.0
1574097037987,3167502.0
1574097038028,3201907.0
1574097038079,3245346.0
1574097038127,3279028.0
1574097038176,3280944.0
1574097038231,3238696.0
1574097038277,3152158.0
1574097038326,3085344.0
1574097038377,3061024.0
1574097038427,3058620.0
1574097038467,3056721.0
1574097038523,3071664.0
1574097038576,3095100.0
1574097038611,3102848.0
1574097038662,3105637.0
1574097038710,3100956.0
1574097038768,3084903.0
1574097038808,3060276.0
1574097038863,3008239.0
1574097038912,2966544.0
1574097038962,2959766.0
1574097039007,2981997.0
1574097039055,3016112.0
1574097039101,3040985.0
1574097039149,3043482.0
1574097039205,3023331.0
1574097039250,3004954.0
1574097039302,2999052.0
1574097039345,2961468.0
1574097039397,2917313.0
1574097039442,2906042.0
1574097039488,2934129.0
1574097039537,2976150.0
1574097039603,3007971.0
1574097039637,3004795.0
1574097039684,2985591.0
1574097039730,2982849.0
1574097039790,3003511.0
1574097039830,3023758.0
1574097039887,3031393.0
1574097039937,3016452.0
1574097039976,3004883.0
1574097040030,3026121.0
1574097040075,3064153.0
1574097040124,3071829.0
1574097040171,3042891.0
1574097040220,3008743.0
1574097040270,2999698.0
1574097040317,2997286.0
1574097040366,2987861.0
1574097040411,2965447.0
1574097040464,2964557.0
1574097040511,2994220.0
1574097040560,3015797.0
1574097040610,3006955.0
1574097040657,2991028.0
1574097040707,2989263.0
1574097040754,3001478.0
1574097040804,3012731.0
1574097040852,3035452.0
1574097040901,3041757.0
1574097040950,3024048.0
1574097040997,3021494.0
1574097041046,3027618.0
1574097041094,3026405.0
1574097041143,3015064.0
1574097041192,2993785.0
1574097041239,2992312.0
1574097041292,3012638.0
1574097041337,3025625.0
1574097041387,3054602.0
1574097041435,3066351.0
1574097041484,3067416.0
1574097041532,3076148.0
1574097041582,3071418.0
1574097041631,3050219.0
1574097041678,3023355.0
1574097041727,3004732.0
1574097041775,2992950.0
1574097041825,2998247.0
1574097041873,3018114.0
1574097041922,3033671.0
1574097041972,3027027.0
1574097042019,3023386.0
1574097042067,3017815.0
1574097042114,3011549.0
1574097042172,3008343.0
1574097042211,3004259.0
1574097042270,3008516.0
1574097042314,3012307.0
1574097042365,2998081.0
1574097042407,3027531.0
1574097042463,3006663.0
1574097042511,2944091.0
1574097042552,2907737.0
1574097042604,2907863.0
1574097042653,2909352.0
1574097042700,2896713.0
1574097042750,2900614.0
1574097042803,2924783.0
1574097042852,2946369.0
1574097042893,2964589.0
1574097042947,2925366.0
1574097042996,2860712.0
1574097043047,2837930.0
1574097043088,2850909.0
1574097043143,2861147.0
1574097043191,2887964.0
1574097043241,2898492.0
1574097043287,2881164.0
1574097043335,2860712.0
1574097043379,2840120.0
1574097043428,2835833.0
1574097043485,2791757.0
1574097043532,2794002.0
1574097043575,2818511.0
1574097043628,2857797.0
1574097043676,2906445.0
1574097043729,2949788.0
1574097043776,2968206.0
1574097043818,2986347.0
1574097043875,3002313.0
1574097043914,3010974.0
1574097043972,3015688.0
1574097044015,2993330.0
1574097044070,2973691.0
1574097044117,2946344.0
1574097044159,2926634.0
1574097044215,2922506.0
1574097044255,2921553.0
1574097044311,2920913.0
1574097044354,2924302.0
1574097044407,2930127.0
1574097044458,2921717.0
1574097044504,2903694.0
1574097044548,2856135.0
1574097044597,2824815.0
1574097044644,2845746.0
1574097044698,2895813.0
1574097044748,2962035.0
1574097044792,3031771.0
1574097044840,3129516.0
1574097044896,3233651.0
1574097044936,3338709.0
1574097044993,3442176.0
1574097045037,3538218.0
1574097045084,3589182.0
1574097045136,3625063.0
1574097045186,3683435.0
1574097045236,3770762.0
1574097045277,3863895.0
1574097045328,3964808.0
1574097045376,4046697.0
1574097045425,4089427.0
1574097045478,4034387.0
1574097045525,4004630.0
1574097045577,4007121.0
1574097045620,3969253.0
1574097045674,3934216.0
1574097045716,3901078.0
1574097045772,3888310.0
1574097045820,3896821.0
1574097045863,3921582.0
1574097045916,3965675.0
1574097045962,3978183.0
1574097046014,3982596.0
1574097046056,3970444.0
1574097046112,3948046.0
1574097046158,3895844.0
1574097046209,3845337.0
1574097046257,3823010.0
1574097046299,3834880.0
1574097046348,3831600.0
1574097046398,3830987.0
1574097046446,3837045.0
1574097046493,3859200.0
1574097046543,3872942.0
1574097046590,3893566.0
1574097046639,3900966.0
1574097046690,3875732.0
1574097046741,3815714.0
1574097046788,3776617.0
1574097046842,3769437.0
1574097046889,3782946.0
1574097046938,3789834.0
1574097046978,3789257.0
1574097047032,3800502.0
1574097047080,3819418.0
1574097047127,3832090.0
1574097047184,3843021.0
1574097047228,3840820.0
1574097047278,3780477.0
1574097047322,3735732.0
1574097047376,3734251.0
1574097047418,3757356.0
1574097047473,3781764.0
1574097047520,3790850.0
1574097047569,3795451.0
1574097047610,3806075.0
1574097047663,3815556.0
1574097047711,3826935.0
1574097047760,3839821.0
1574097047808,3817652.0
1574097047861,3748421.0
1574097047911,3692663.0
1574097047959,3681347.0
1574097048007,3691371.0
1574097048049,3706030.0
1574097048106,3718174.0
1574097048155,3720545.0
1574097048200,3723926.0
1574097048253,3731602.0
1574097048301,3738995.0
1574097048348,3699260.0
1574097048397,3604014.0
1574097048439,3543269.0
1574097048497,3524315.0
1574097048544,3539620.0
1574097048586,3571821.0
1574097048641,3595509.0
1574097048688,3600459.0
1574097048739,3599750.0
1574097048779,3617292.0
1574097048837,3669975.0
1574097048883,3715045.0
1574097048932,3656933.0
1574097048982,3589757.0
1574097049029,3542450.0
1574097049074,3519171.0
1574097049122,3501226.0
1574097049176,3490586.0
1574097049223,3481626.0
1574097049274,3489696.0
1574097049322,3507766.0
1574097049368,3519193.0
1574097049418,3527405.0
1574097049461,3465801.0
1574097049516,3413481.0
1574097049563,3413120.0
1574097049611,3443358.0
1574097049663,3469978.0
1574097049707,3522897.0
1574097049759,3555476.0
1574097049801,3571451.0
1574097049857,3637774.0
1574097049902,3752636.0
1574097049953,3811622.0
1574097050003,3864218.0
1574097050049,3865526.0
1574097050093,3776902.0
1574097050147,3741413.0
1574097050197,3742998.0
1574097050244,3726669.0
1574097050295,3722877.0
1574097050336,3722264.0
1574097050387,3756828.0
1574097050440,3748782.0
1574097050484,3738136.0
1574097050539,3654568.0
1574097050583,3556114.0
1574097050635,3578835.0
1574097050684,3696493.0
1574097050726,3728623.0
1574097050781,3765922.0
1574097050822,3762533.0
1574097050878,3761651.0
1574097050924,3718590.0
1574097050977,3731768.0
1574097051025,3746173.0
1574097051068,3727268.0
1574097051114,3644789.0
1574097051164,3602840.0
1574097051214,3625348.0
1574097051265,3664546.0
1574097051309,3704068.0
1574097051361,3706416.0
1574097051413,3714407.0
1574097051463,3709064.0
1574097051505,3716778.0
1574097051560,3726803.0
1574097051605,3696148.0
1574097051657,3644661.0
1574097051704,3622164.0
1574097051754,3655671.0
1574097051796,3689606.0
1574097051844,3717512.0
1574097051901,3729735.0
1574097051945,3720553.0
1574097051997,3733187.0
1574097052046,3746253.0
1574097052089,3790132.0
1574097052142,3787745.0
1574097052184,3714352.0
1574097052237,3671803.0
1574097052287,3687424.0
1574097052331,3707495.0
1574097052387,3789911.0
1574097052433,3889280.0
1574097052484,3986639.0
1574097052526,3938448.0
1574097052579,3961845.0
1574097052626,4007877.0
1574097052677,3988325.0
1574097052726,3920676.0
1574097052768,3858110.0
1574097052825,3823437.0
1574097052865,3835912.0
1574097052914,3895600.0
1574097052965,3983195.0
1574097053018,4038351.0
1574097053068,4088584.0
1574097053114,4139759.0
1574097053166,4220206.0
1574097053205,4257387.0
1574097053262,4311606.0
1574097053307,4378420.0
1574097053359,4472571.0
1574097053409,4587810.0
1574097053454,4673899.0
1574097053509,4689968.0
1574097053546,4663718.0
1574097053598,4767930.0
1574097053648,4807367.0
1574097053698,4795392.0
1574097053750,4595216.0
1574097053789,4495414.0
1574097053846,4476710.0
1574097053888,4503600.0
1574097053942,4482245.0
1574097053993,4480601.0
1574097054039,4521037.0
1574097054084,4528349.0
1574097054129,4579019.0
1574097054186,4622888.0
1574097054228,4644191.0
1574097054274,4580059.0
1574097054331,4496828.0
1574097054377,4467961.0
1574097054422,4451130.0
1574097054469,4415055.0
1574097054519,4384327.0
1574097054569,4375952.0
1574097054617,4404943.0
1574097054671,4454688.0
1574097054717,4488382.0
1574097054767,4479437.0
1574097054809,4398890.0
1574097054867,4391982.0
1574097054908,4463197.0
1574097054963,4518924.0
1574097055009,4589651.0
1574097055060,4563228.0
1574097055108,4492867.0
1574097055157,4427142.0
1574097055207,4380426.0
1574097055248,4354200.0
1574097055304,4293075.0
1574097055351,4202376.0
1574097055400,4151403.0
1574097055447,4134062.0
1574097055491,4143695.0
1574097055548,4138264.0
1574097055590,4132679.0
1574097055646,4121567.0
1574097055691,4156021.0
1574097055739,4255719.0
1574097055787,4347335.0
1574097055831,4310269.0
1574097055889,4261400.0
1574097055929,4195114.0
1574097055986,4116855.0
1574097056034,4082724.0
1574097056074,4052142.0
1574097056123,4048209.0
1574097056173,4076068.0
1574097056222,4096436.0
1574097056270,4166164.0
1574097056319,4142498.0
1574097056367,4083620.0
1574097056415,4107763.0
1574097056464,4186219.0
1574097056513,4282652.0
1574097056563,4352847.0
1574097056609,4434726.0
1574097056658,4450736.0
1574097056712,4453617.0
1574097056763,4467858.0
1574097056808,4473433.0
1574097056856,4339990.0
1574097056908,4210281.0
1574097056951,4135600.0
1574097056999,4061045.0
1574097057047,4030878.0
1574097057099,3985389.0
1574097057152,3934427.0
1574097057194,3913528.0
1574097057247,3920954.0
1574097057295,3919404.0
1574097057341,3889529.0
1574097057393,3824784.0
1574097057444,3772885.0
1574097057494,3743061.0
1574097057534,3733252.0
1574097057585,3696520.0
1574097057638,3668776.0
1574097057688,3649875.0
1574097057731,3651031.0
1574097057777,3668819.0
1574097057835,3630839.0
1574097057882,3515901.0
1574097057926,3429914.0
1574097057970,3391227.0
1574097058028,3367302.0
1574097058070,3351519.0
1574097058125,3348545.0
1574097058173,3329426.0
1574097058222,3357773.0
1574097058263,3397491.0
1574097058311,3416389.0
1574097058362,3364630.0
1574097058408,3312924.0
1574097058460,3307044.0
1574097058515,3331476.0
1574097058562,3366355.0
1574097058610,3392676.0
1574097058653,3435343.0
1574097058709,3462397.0
1574097058751,3507616.0
1574097058807,3564460.0
1574097058849,3634543.0
1574097058900,3671300.0
1574097058948,3691710.0
1574097058995,3740184.0
1574097059047,3812167.0
1574097059090,3874078.0
1574097059139,3947052.0
1574097059195,4006009.0
1574097059242,4051228.0
1574097059291,4143211.0
1574097059332,4259823.0
1574097059386,4361224.0
1574097059435,4433625.0
1574097059487,4505638.0
1574097059533,4557470.0
1574097059575,4556972.0
1574097059628,4571284.0
1574097059677,4585667.0
1574097059727,4576761.0
1574097059774,4586786.0
1574097059827,4593808.0
1574097059874,4682662.0
1574097059919,4752518.0
1574097059973,4826053.0
1574097060012,4960034.0
1574097060062,4981536.0
1574097060112,5002372.0
1574097060165,5013794.0
1574097060213,5023666.0
1574097060262,5021710.0
1574097060311,5020639.0
1574097060358,5016041.0
1574097060406,5018142.0
1574097060456,5010027.0
1574097060508,5001291.0
1574097060556,4947644.0
1574097060598,4907282.0
1574097060651,4895652.0
1574097060695,4890441.0
1574097060747,4888287.0
1574097060796,4883002.0
1574097060849,4870863.0
1574097060895,4857923.0
1574097060942,4863717.0
1574097060993,4861584.0
1574097061043,4858953.0
1574097061085,4823635.0
1574097061133,4787082.0
1574097061190,4769552.0
1574097061235,4766868.0
1574097061284,4770165.0
1574097061334,4771145.0
1574097061374,4760543.0
1574097061432,4753304.0
1574097061471,4756071.0
1574097061521,4756591.0
1574097061574,4757225.0
1574097061618,4758265.0
1574097061670,4732936.0
1574097061717,4686021.0
1574097061773,4669730.0
1574097061813,4661625.0
1574097061868,4665350.0
1574097061917,4660731.0
1574097061964,4654969.0
1574097062015,4651422.0
1574097062063,4648695.0
1574097062109,4648821.0
1574097062157,4647334.0
1574097062206,4650548.0
1574097062257,4644087.0
1574097062307,4595882.0
1574097062354,4565185.0
1574097062397,4561127.0
1574097062453,4564798.0
1574097062494,4566682.0
1574097062549,4556216.0
1574097062594,4547874.0
1574097062648,4543766.0
1574097062696,4544629.0
1574097062738,4544077.0
1574097062793,4548280.0
1574097062834,4544526.0
1574097062888,4504204.0
1574097062937,4467464.0
1574097062985,4460170.0
1574097063036,4465040.0
1574097063077,4479790.0
1574097063126,4475276.0
1574097063175,4473185.0
1574097063225,4463290.0
1574097063278,4461033.0
1574097063329,4464727.0
1574097063376,4469241.0
1574097063419,4446742.0
1574097063468,4397297.0
1574097063517,4363989.0
1574097063565,4359328.0
1574097063613,4366652.0
1574097063661,4365133.0
1574097063709,4355011.0
1574097063757,4345285.0
1574097063814,4345077.0
1574097063856,4341477.0
1574097063911,4350476.0
1574097063959,4353627.0
1574097064010,4310373.0
1574097064056,4261057.0
1574097064106,4239542.0
1574097064148,4234217.0
1574097064197,4244630.0
1574097064245,4245357.0
1574097064299,4234624.0
1574097064350,4234404.0
1574097064397,4233717.0
1574097064440,4246056.0
1574097064495,4259911.0
1574097064540,4267786.0
1574097064586,4232437.0
1574097064634,4196758.0
1574097064691,4183755.0
1574097064730,4195541.0
1574097064780,4214576.0
1574097064835,4221421.0
1574097064878,4216720.0
1574097064932,4216169.0
1574097064980,4228215.0
1574097065021,4234518.0
1574097065069,4249957.0
1574097065121,4263834.0
1574097065174,4235174.0
1574097065217,4201927.0
1574097065266,4197371.0
1574097065313,4211238.0
1574097065371,4227653.0
1574097065417,4230369.0
1574097065459,4231917.0
1574097065515,4235934.0
1574097065559,4242799.0
1574097065612,4249270.0
1574097065660,4266766.0
1574097065708,4279946.0
1574097065759,4244317.0
1574097065800,4212165.0
1574097065848,4207150.0
1574097065899,4225084.0
1574097065953,4241426.0
1574097066001,4243549.0
1574097066045,4241426.0
1574097066091,4239294.0
1574097066141,4249081.0
1574097066196,4260827.0
1574097066241,4270033.0
1574097066293,4262304.0
1574097066340,4220830.0
1574097066389,4204550.0
1574097066438,4204403.0
1574097066478,4223928.0
1574097066539,4236537.0
1574097066578,4232521.0
1574097066626,4231127.0
1574097066675,4235871.0
1574097066728,4239762.0
1574097066779,4252838.0
1574097066820,4262024.0
1574097066877,4223087.0
1574097066923,4185555.0
1574097066974,4176109.0
1574097067022,4185772.0
1574097067069,4201969.0
1574097067119,4201283.0
1574097067169,4194251.0
1574097067216,4182267.0
1574097067262,4189060.0
1574097067313,4203133.0
1574097067363,4218270.0
1574097067409,4212091.0
1574097067457,4164520.0
1574097067510,4143248.0
1574097067555,4145733.0
1574097067606,4167421.0
1574097067654,4176369.0
1574097067702,4171782.0
1574097067750,4168431.0
1574097067800,4173456.0
1574097067842,4185419.0
1574097067898,4200439.0
1574097067943,4212028.0
1574097067992,4190496.0
1574097068042,4147730.0
1574097068087,4132065.0
1574097068139,4142008.0
1574097068182,4159506.0
1574097068237,4163240.0
1574097068284,4157259.0
1574097068327,4152848.0
1574097068376,4158809.0
1574097068426,4167598.0
1574097068474,4179634.0
1574097068525,4207878.0
1574097068571,4182942.0
1574097068621,4143685.0
1574097068670,4131472.0
1574097068724,4141301.0
1574097068771,4154305.0
1574097068822,4153597.0
1574097068861,4138118.0
1574097068916,4132022.0
1574097068964,4140708.0
1574097069014,4187209.0
1574097069057,4303872.0
1574097069106,4390058.0
1574097069154,4389079.0
1574097069202,4490380.0
1574097069258,4614523.0
1574097069305,4724654.0
1574097069356,4795028.0
1574097069404,4649445.0
1574097069451,4518560.0
1574097069502,4452410.0
1574097069546,4424021.0
1574097069593,4423970.0
1574097069643,4408667.0
1574097069688,4370980.0
1574097069740,4309542.0
1574097069788,4277148.0
1574097069837,4296372.0
1574097069891,4308305.0
1574097069939,4288893.0
1574097069985,4250487.0
1574097070036,4225145.0
1574097070079,4203843.0
1574097070129,4189476.0
1574097070176,4173923.0
1574097070224,4168265.0
1574097070280,4103052.0
1574097070325,4023316.0
1574097070374,3980718.0
1574097070425,3969629.0
1574097070467,3955200.0
1574097070522,3922641.0
1574097070565,3882414.0
1574097070620,3854098.0
1574097070666,3841198.0
1574097070715,3830172.0
1574097070767,3819083.0
1574097070806,3809180.0
1574097070854,3746744.0
1574097070905,3697653.0
1574097070962,3675944.0
1574097071006,3673937.0
1574097071057,3670160.0
1574097071107,3645840.0
1574097071147,3624764.0
1574097071202,3608015.0
1574097071246,3598539.0
1574097071302,3597529.0
1574097071344,3594762.0
1574097071399,3560529.0
1574097071449,3482030.0
1574097071492,3428000.0
1574097071538,3413810.0
1574097071588,3417908.0
1574097071642,3413946.0
1574097071688,3395575.0
1574097071732,3378088.0
1574097071787,3371190.0
1574097071829,3371597.0
1574097071887,3371306.0
1574097071928,3333310.0
1574097071983,3256842.0
1574097072030,3195383.0
1574097072076,3172941.0
1574097072126,3180911.0
1574097072177,3195032.0
1574097072227,3193632.0
1574097072268,3191765.0
1574097072323,3196302.0
1574097072369,3211715.0
1574097072417,3231516.0
1574097072467,3252918.0
1574097072510,3243196.0
1574097072568,3224151.0
1574097072608,3292365.0
1574097072665,3425739.0
1574097072709,3560842.0
1574097072758,3637912.0
1574097072803,3603829.0
1574097072852,3530558.0
1574097072907,3489607.0
1574097072948,3459884.0
1574097073004,3454063.0
1574097073049,3415901.0
1574097073095,3343888.0
1574097073150,3289916.0
1574097073195,3268973.0
1574097073248,3279575.0
1574097073288,3281854.0
1574097073336,3268943.0
1574097073387,3267803.0
1574097073434,3287493.0
1574097073489,3308442.0
1574097073533,3279140.0
1574097073582,3254058.0
1574097073630,3165988.0
1574097073680,3113281.0
1574097073728,3100682.0
1574097073782,3088221.0
1574097073829,3076006.0
1574097073876,3051676.0
1574097073929,3014509.0
1574097073969,2991126.0
1574097074025,2977237.0
1574097074067,2971942.0
1574097074123,2969579.0
1574097074171,2923357.0
1574097074217,2882306.0
1574097074266,2871812.0
1574097074313,2885670.0
1574097074366,2908350.0
1574097074406,2932933.0
1574097074464,2951405.0
1574097074513,2972478.0
1574097074552,2989596.0
1574097074609,3007488.0
1574097074650,3014639.0
1574097074707,2977243.0
1574097074747,2925108.0
1574097074804,2903706.0
1574097074851,2918737.0
1574097074902,2941379.0
1574097074942,2960186.0
1574097074989,2973190.0
1574097075039,2981688.0
1574097075088,2992426.0
1574097075136,3003609.0
1574097075188,2982239.0
1574097075242,2927449.0
1574097075291,2894559.0
1574097075332,2899041.0
1574097075389,2927410.0
1574097075430,2953975.0
1574097075486,2970437.0
1574097075532,2983838.0
1574097075576,2989169.0
1574097075628,3002729.0
1574097075677,3022319.0
1574097075729,3032086.0
1574097075768,2993497.0
1574097075826,2960568.0
1574097075871,2964378.0
1574097075924,2990470.0
1574097075971,3022502.0
1574097076017,3045847.0
1574097076066,3065795.0
1574097076109,3083625.0
1574097076159,3098510.0
1574097076215,3100261.0
1574097076263,3046926.0
1574097076310,3005108.0
1574097076360,2997942.0
1574097076408,3009798.0
1574097076451,3024635.0
1574097076498,3030824.0
1574097076555,3043766.0
1574097076596,3061664.0
1574097076651,3079572.0
1574097076697,3090464.0
1574097076743,3080374.0
1574097076793,3037876.0
1574097076846,3011250.0
1574097076895,3014072.0
1574097076943,3039362.0
1574097076990,3074836.0
1574097077039,3088688.0
1574097077084,3093652.0
1574097077131,3116568.0
1574097077189,3153391.0
1574097077237,3182717.0
1574097077284,3169225.0
1574097077333,3148243.0
1574097077373,3137503.0
1574097077426,3139431.0
1574097077476,3157544.0
1574097077530,3182839.0
1574097077574,3267772.0
1574097077627,3375660.0
1574097077667,3542032.0
1574097077716,3657860.0
1574097077771,3725316.0
1574097077810,3768066.0
1574097077866,3836348.0
1574097077917,3937956.0
1574097077967,3930599.0
1574097078015,3820653.0
1574097078061,3764579.0
1574097078112,3740775.0
1574097078152,3723091.0
1574097078202,3794608.0
1574097078250,3894777.0
1574097078307,3866071.0
1574097078354,3781154.0
1574097078403,3738319.0
1574097078451,3719718.0
1574097078498,3717193.0
1574097078548,3716039.0
1574097078590,3719824.0
1574097078638,3745670.0
1574097078690,3781544.0
1574097078736,3827949.0
1574097078786,3838529.0
1574097078833,3859179.0
1574097078883,3879978.0
1574097078933,3932021.0
1574097078982,3988126.0
1574097079030,4058847.0
1574097079076,4107800.0
1574097079133,4187617.0
1574097079180,4231263.0
1574097079226,4241198.0
1574097079275,4217256.0
1574097079328,4148203.0
1574097079375,4151178.0
1574097079422,4261506.0
1574097079474,4387628.0
1574097079518,4477037.0
1574097079568,4599734.0
1574097079614,4627323.0
1574097079661,4621472.0
1574097079716,4677390.0
1574097079762,4604814.0
1574097079813,4500498.0
1574097079860,4402923.0
1574097079911,4362305.0
1574097079955,4361744.0
1574097080008,4366734.0
1574097080055,4372926.0
1574097080102,4361234.0
1574097080153,4371976.0
1574097080202,4446275.0
1574097080251,4582658.0
1574097080296,4672920.0
1574097080344,4721952.0
1574097080397,4760271.0
1574097080445,4783577.0
1574097080492,4848812.0
1574097080534,4819596.0
1574097080585,4754909.0
1574097080637,4678810.0
1574097080687,4613075.0
1574097080735,4584838.0
1574097080782,4568293.0
1574097080834,4505888.0
1574097080882,4418407.0
1574097080932,4397763.0
1574097080978,4359722.0
1574097081028,4319412.0
1574097081077,4320424.0
1574097081123,4376366.0
1574097081167,4532246.0
1574097081215,4581658.0
1574097081272,4559043.0
1574097081318,4574035.0
1574097081369,4625897.0
1574097081409,4614625.0
1574097081466,4603983.0
1574097081514,4581737.0
1574097081557,4480463.0
1574097081611,4410185.0
1574097081657,4369416.0
1574097081709,4342670.0
1574097081756,4367496.0
1574097081802,4452536.0
1574097081854,4527674.0
1574097081895,4568385.0
1574097081952,4604202.0
1574097081999,4601461.0
1574097082050,4528414.0
1574097082090,4467779.0
1574097082138,4431000.0
1574097082194,4422698.0
1574097082237,4455637.0
1574097082292,4486763.0
1574097082339,4508850.0
1574097082390,4526084.0
1574097082436,4616445.0
1574097082477,4687453.0
1574097082528,4711858.0
1574097082579,4738104.0
1574097082632,4763792.0
1574097082676,4783026.0
1574097082729,4742367.0
1574097082777,4661757.0
1574097082818,4600821.0
1574097082875,4527063.0
1574097082917,4457557.0
1574097082972,4425409.0
1574097083019,4422148.0
1574097083063,4407184.0
1574097083117,4357162.0
1574097083159,4306100.0
1574097083214,4313242.0
1574097083258,4324945.0
1574097083312,4338838.0
1574097083360,4345199.0
1574097083409,4355321.0
1574097083456,4440003.0
1574097083497,4503858.0
1574097083557,4560843.0
1574097083599,4598942.0
1574097083645,4614125.0
1574097083699,4584878.0
1574097083747,4567653.0
1574097083796,4576225.0
1574097083840,4594511.0
1574097083888,4559882.0
1574097083940,4522193.0
1574097083987,4485434.0
1574097084036,4467118.0
1574097084083,4453416.0
1574097084129,4427960.0
1574097084185,4410116.0
1574097084235,4392722.0
1574097084281,4380598.0
1574097084334,4375096.0
1574097084381,4360773.0
1574097084428,4300478.0
1574097084475,4270862.0
1574097084520,4276473.0
1574097084567,4319303.0
1574097084621,4360553.0
1574097084665,4429179.0
1574097084715,4510541.0
1574097084762,4557261.0
1574097084818,4567944.0
1574097084859,4551730.0
1574097084914,4466429.0
1574097084961,4390721.0
1574097085012,4373516.0
1574097085060,4419088.0
1574097085106,4442682.0
1574097085157,4503917.0
1574097085199,4521402.0
1574097085247,4544117.0
1574097085302,4530826.0
1574097085353,4507229.0
1574097085401,4458827.0
1574097085446,4383648.0
1574097085497,4322663.0
1574097085539,4262739.0
1574097085589,4233693.0
1574097085644,4190821.0
1574097085692,4159575.0
1574097085741,4119655.0
1574097085788,4098340.0
1574097085831,4099250.0
1574097085880,4107012.0
1574097085936,4084297.0
1574097085983,4063240.0
1574097086034,4058359.0
1574097086076,4041295.0
1574097086123,4010798.0
1574097086170,3971518.0
1574097086219,3931798.0
1574097086276,3902130.0
1574097086324,3884887.0
1574097086372,3863931.0
1574097086423,3815121.0
1574097086468,3746594.0
1574097086515,3710935.0
1574097086564,3693580.0
1574097086617,3676915.0
1574097086663,3654111.0
1574097086711,3640488.0
1574097086762,3640687.0
1574097086809,3649619.0
1574097086856,3648430.0
1574097086903,3651911.0
1574097086956,3615492.0
1574097087003,3575901.0
1574097087052,3560498.0
1574097087097,3563769.0
1574097087148,3572400.0
1574097087199,3581043.0
1574097087241,3580934.0
1574097087296,3583114.0
1574097087339,3583124.0
1574097087394,3584024.0
1574097087443,3585625.0
1574097087482,3552806.0
1574097087539,3530890.0
1574097087583,3533151.0
1574097087635,3546424.0
1574097087679,3547075.0
1574097087732,3521688.0
1574097087783,3527631.0
1574097087824,3605449.0
1574097087872,3780221.0
1574097087935,3921395.0
1574097087974,4006416.0
1574097088026,4005126.0
1574097088067,4034094.0
1574097088122,4101160.0
1574097088165,4143510.0
1574097088221,4179959.0
1574097088264,4217498.0
1574097088316,4223250.0
1574097088366,4162125.0
1574097088408,4085485.0
1574097088462,4044497.0
1574097088504,4025691.0
1574097088560,4001495.0
1574097088608,3998014.0
1574097088656,4010597.0
1574097088705,4033113.0
1574097088751,4038944.0
1574097088804,4042426.0
1574097088845,4046937.0
1574097088901,4040905.0
1574097088943,4034293.0
1574097088992,4029442.0
1574097089041,4007277.0
1574097089088,3990312.0
1574097089139,3983030.0
1574097089187,3977110.0
1574097089241,3979020.0
1574097089287,3974649.0
1574097089332,3975789.0
1574097089389,3979690.0
1574097089432,3981941.0
1574097089485,3985001.0
1574097089527,3986952.0
1574097089576,3993394.0
1574097089627,4002925.0
1574097089673,4021231.0
1574097089723,4052207.0
1574097089770,4087966.0
1574097089817,4152513.0
1574097089868,4241505.0
1574097089921,4289125.0
1574097089969,4311151.0
1574097090012,4331806.0
1574097090064,4335406.0
1574097090107,4321824.0
1574097090156,4305369.0
1574097090205,4294487.0
1574097090257,4291277.0
1574097090307,4281313.0
1574097090356,4270951.0
1574097090409,4265069.0
1574097090448,4254927.0
1574097090506,4258988.0
1574097090548,4261548.0
1574097090593,4243835.0
1574097090647,4219948.0
1574097090692,4215698.0
1574097090741,4217378.0
1574097090789,4214838.0
1574097090839,4206185.0
1574097090888,4191101.0
1574097090936,4176989.0
1574097090987,4168196.0
1574097091033,4158433.0
1574097091083,4141870.0
1574097091130,4092267.0
1574097091180,4051447.0
1574097091230,4027042.0
1574097091276,4015349.0
1574097091328,4006507.0
1574097091374,3996604.0
1574097091422,3994624.0
1574097091471,4003476.0
1574097091520,4011918.0
1574097091568,4022651.0
1574097091617,4020660.0
1574097091666,3985832.0
1574097091714,3959586.0
1574097091764,3952083.0
1574097091812,3953103.0
1574097091859,3954005.0
1574097091908,3952144.0
1574097091958,3945191.0
1574097092006,3938480.0
1574097092055,3927298.0
1574097092105,3922555.0
1574097092151,3918486.0
1574097092201,3892138.0
1574097092248,3856249.0
1574097092299,3842547.0
1574097092348,3838797.0
1574097092394,3832594.0
1574097092445,3823892.0
1574097092491,3816031.0
1574097092542,3811220.0
1574097092590,3810108.0
1574097092637,3807038.0
1574097092688,3809828.0
1574097092735,3803966.0
1574097092785,3775731.0
1574097092832,3756546.0
1574097092883,3758325.0
1574097092930,3781481.0
1574097092979,3808099.0
1574097093029,3823453.0
1574097093075,3845688.0
1574097093126,3859271.0
1574097093172,3870884.0
1574097093221,3882997.0
1574097093269,3904912.0
1574097093320,3905152.0
1574097093367,3897691.0
1574097093416,3894139.0
1574097093466,3903481.0
1574097093513,3911834.0
1574097093564,3908463.0
1574097093611,3905021.0
1574097093659,3911854.0
1574097093708,3929788.0
1574097093758,3956014.0
1574097093808,3975810.0
1574097093854,4002165.0
1574097093904,4023651.0
1574097093949,4021841.0
1574097093999,4015339.0
1574097094047,4047916.0
1574097094096,4074812.0
1574097094144,4098759.0
1574097094192,4108842.0
1574097094244,4109931.0
1574097094292,4113263.0
1574097094341,4120194.0
1574097094390,4130366.0
1574097094438,4140359.0
1574097094487,4152393.0
1574097094532,4147260.0
1574097094584,4132857.0
1574097094631,4129306.0
1574097094681,4139530.0
1574097094730,4150032.0
1574097094776,4154412.0
1574097094826,4154973.0
1574097094875,4157734.0
1574097094923,4166745.0
1574097094972,4172448.0
1574097095023,4180299.0
1574097095069,4197073.0
1574097095117,4189301.0
1574097095167,4170207.0
1574097095213,4162224.0
1574097095263,4164266.0
1574097095310,4171938.0
1574097095361,4172336.0
1574097095409,4167247.0
1574097095457,4169146.0
1574097095505,4170126.0
1574097095554,4170646.0
1574097095606,4175038.0
1574097095653,4179898.0
1574097095703,4152482.0
1574097095751,4122934.0
1574097095799,4109462.0
1574097095848,4108613.0
1574097095896,4109421.0
1574097095946,4106181.0
1574097095994,4095179.0
1574097096043,4088356.0
1574097096089,4083896.0
1574097096141,4080125.0
1574097096188,4081026.0
1574097096237,4090067.0
1574097096287,4064652.0
1574097096334,4024352.0
1574097096384,4007076.0
1574097096436,4002035.0
1574097096481,4000195.0
1574097096532,3991602.0
1574097096578,3983122.0
1574097096627,3970878.0
1574097096676,3970218.0
1574097096723,3975799.0
1574097096773,3984272.0
1574097096822,3988022.0
1574097096872,3983481.0
1574097096919,3953883.0
1574097096967,3918524.0
1574097097016,3902541.0
1574097097065,3907882.0
1574097097114,3911233.0
1574097097163,3899621.0
1574097097214,3887447.0
1574097097265,3881667.0
1574097097314,3878625.0
1574097097360,3872475.0
1574097097409,3876644.0
1574097097452,3875815.0
1574097097508,3868982.0
1574097097554,3826893.0
1574097097599,3785413.0
1574097097654,3765278.0
1574097097699,3763638.0
1574097097752,3764467.0
1574097097793,3779112.0
1574097097848,3778750.0
1574097097895,3782402.0
1574097097947,3778551.0
1574097097995,3777850.0
1574097098041,3769600.0
1574097098087,3766397.0
1574097098135,3723507.0
1574097098188,3679837.0
1574097098239,3658841.0
1574097098286,3654560.0
1574097098335,3653810.0
1574097098378,3642138.0
1574097098434,3630494.0
1574097098474,3625774.0
1574097098533,3632105.0
1574097098580,3641648.0
1574097098620,3646809.0
1574097098669,3650259.0
1574097098723,3639058.0
1574097098774,3600327.0
1574097098815,3576913.0
1574097098872,3574901.0
1574097098915,3581253.0
1574097098968,3583333.0
1574097099017,3572461.0
1574097099063,3572102.0
1574097099107,3577002.0
1574097099154,3581523.0
1574097099203,3585934.0
1574097099254,3596326.0
1574097099303,3607450.0
1574097099350,3622702.0
1574097099399,3627855.0
1574097099448,3648910.0
1574097099497,3701402.0
1574097099546,3741222.0
1574097099593,3761298.0
1574097099641,3750235.0
1574097099688,3734190.0
1574097099740,3718217.0
1574097099787,3714086.0
1574097099837,3722947.0
1574097099887,3731409.0
1574097099936,3746253.0
1574097099983,3757966.0
1574097100030,3733010.0
1574097100079,3728188.0
1574097100128,3737681.0
1574097100177,3754465.0
1574097100225,3754065.0
1574097100277,3741811.0
1574097100323,3738632.0
1574097100371,3743802.0
1574097100418,3745363.0
1574097100468,3748443.0
1574097100518,3746064.0
1574097100567,3733280.0
1574097100616,3692970.0
1574097100662,3661663.0
1574097100708,3655781.0
1574097100760,3655070.0
1574097100808,3644578.0
1574097100858,3635417.0
1574097100907,3627944.0
1574097100956,3633846.0
1574097101003,3638808.0
1574097101051,3643637.0
1574097101101,3651049.0
1574097101148,3656092.0
1574097101198,3633015.0
1574097101247,3601999.0
1574097101297,3590276.0
1574097101342,3591025.0
1574097101391,3596216.0
1574097101441,3591265.0
1574097101489,3580164.0
1574097101541,3580133.0
1574097101587,3585954.0
1574097101638,3588414.0
1574097101683,3594136.0
1574097101731,3598917.0
1574097101781,3604248.0
1574097101829,3592116.0
1574097101880,3558647.0
1574097101927,3539242.0
1574097101978,3535532.0
1574097102025,3540522.0
1574097102072,3541473.0
1574097102123,3530760.0
1574097102169,3528350.0
1574097102218,3529041.0
1574097102267,3531741.0
1574097102318,3535902.0
1574097102365,3545004.0
1574097102412,3553477.0
1574097102462,3528651.0
1574097102517,3494562.0
1574097102558,3482808.0
1574097102615,3482749.0
1574097102662,3488000.0
1574097102710,3485090.0
1574097102758,3473946.0
1574097102807,3472977.0
1574097102856,3478887.0
1574097102899,3483818.0
1574097102954,3493012.0
1574097103004,3498754.0
1574097103053,3487061.0
1574097103094,3452822.0
1574097103147,3429995.0
1574097103197,3424896.0
1574097103239,3435507.0
1574097103295,3435117.0
1574097103340,3429495.0
1574097103393,3428835.0
1574097103441,3434307.0
1574097103482,3438248.0
1574097103531,3444289.0
1574097103581,3450810.0
1574097103636,3459242.0
1574097103683,3442389.0
1574097103733,3402028.0
1574097103772,3391717.0
1574097103824,3393277.0
1574097103871,3402449.0
1574097103924,3399009.0
1574097103969,3393726.0
1574097104023,3390736.0
1574097104066,3394738.0
1574097104122,3398828.0
1574097104164,3409901.0
1574097104217,3417604.0
1574097104260,3424605.0
1574097104315,3409172.0
1574097104362,3379293.0
1574097104413,3372353.0
1574097104461,3381514.0
1574097104507,3395498.0
1574097104558,3397747.0
1574097104601,3393066.0
1574097104649,3399308.0
1574097104705,3411451.0
1574097104747,3426176.0
1574097104796,3439268.0
1574097104846,3451511.0
1574097104893,3451721.0
1574097104946,3423185.0
1574097104997,3404570.0
1574097105045,3406260.0
1574097105087,3420424.0
1574097105135,3427275.0
1574097105184,3420544.0
1574097105238,3421923.0
1574097105282,3429786.0
1574097105329,3434016.0
1574097105386,3448051.0
1574097105424,3458243.0
1574097105475,3463385.0
1574097105525,3438559.0
1574097105575,3414192.0
1574097105623,3411242.0
1574097105669,3417372.0
1574097105723,3423735.0
1574097105772,3422675.0
1574097105822,3419773.0
1574097105863,3424215.0
1574097105919,3429636.0
1574097105965,3439158.0
1574097106015,3447149.0
1574097106066,3452852.0
1574097106114,3448870.0
1574097106162,3419452.0
1574097106204,3407601.0
1574097106258,3407731.0
1574097106304,3425296.0
1574097106358,3419503.0
1574097106407,3414412.0
1574097106452,3412201.0
1574097106502,3421484.0
1574097106544,3433756.0
1574097106593,3453322.0
1574097106645,3473436.0
1574097106695,3490350.0
1574097106742,3502553.0
1574097106788,3509745.0
1574097106843,3528921.0
1574097106892,3555876.0
1574097106941,3579123.0
1574097106987,3592425.0
1574097107038,3607998.0
1574097107083,3636116.0
1574097107132,3658372.0
1574097107186,3675946.0
1574097107225,3686859.0
1574097107277,3682878.0
1574097107327,3663644.0
1574097107378,3630405.0
1574097107427,3616581.0
1574097107474,3622773.0
1574097107525,3636557.0
1574097107565,3642877.0
1574097107622,3651521.0
1574097107666,3672234.0
1574097107715,3688439.0
1574097107770,3695270.0
1574097107808,3700943.0
1574097107867,3710545.0
1574097107908,3690359.0
1574097107962,3663713.0
1574097108007,3654521.0
1574097108057,3666234.0
1574097108108,3669944.0
1574097108149,3668045.0
1574097108207,3665794.0
1574097108247,3666864.0
1574097108303,3671655.0
1574097108348,3682027.0
1574097108393,3686588.0
1574097108445,3692019.0
1574097108490,3685248.0
1574097108548,3654491.0
1574097108589,3639308.0
1574097108640,3646238.0
1574097108689,3656281.0
1574097108740,3658932.0
1574097108790,3661592.0
1574097108831,3660172.0
1574097108888,3667015.0
1574097108928,3681397.0
1574097108985,3689809.0
1574097109027,3695811.0
1574097109076,3701501.0
1574097109127,3674416.0
1574097109171,3646248.0
1574097109228,3639537.0
1574097109268,3643958.0
1574097109325,3650009.0
1574097109367,3651309.0
1574097109419,3646628.0
1574097109470,3658772.0
1574097109512,3667665.0
1574097109568,3677017.0
1574097109608,3690199.0
1574097109658,3701032.0
1574097109711,3679036.0
1574097109753,3655921.0
1574097109806,3661852.0
1574097109851,3681198.0
1574097109900,3698541.0
1574097109948,3722028.0
1574097109998,3741452.0
1574097110046,3767519.0
1574097110095,3795165.0
1574097110148,3829883.0
1574097110192,3853669.0
1574097110244,3866902.0
1574097110289,3847568.0
1574097110339,3816580.0
1574097110388,3821742.0
1574097110436,3845217.0
1574097110491,3867264.0
1574097110532,3934908.0
1574097110582,3985361.0
1574097110630,4039655.0
1574097110679,4086166.0
1574097110728,4081324.0
1574097110776,4090977.0
1574097110829,4103450.0
1574097110873,4091698.0
1574097110923,4049938.0
1574097110970,4033603.0
1574097111020,4067281.0
1574097111068,4143441.0
1574097111116,4196683.0
1574097111168,4305519.0
1574097111214,4400302.0
1574097111262,4467919.0
1574097111311,4503228.0
1574097111360,4502788.0
1574097111407,4504679.0
1574097111457,4501028.0
1574097111508,4503438.0
1574097111554,4501237.0
1574097111603,4489845.0
1574097111651,4495817.0
1574097111701,4500827.0
1574097111748,4506500.0
1574097111798,4508858.0
1574097111849,4511260.0
1574097111894,4513611.0
1574097111945,4514572.0
1574097111991,4520171.0
1574097112042,4519113.0
1574097112089,4510480.0
1574097112136,4485083.0
1574097112188,4486623.0
1574097112235,4473150.0
1574097112285,4400562.0
1574097112332,4326834.0
1574097112383,4236192.0
1574097112430,4193103.0
1574097112479,4146182.0
1574097112531,4140359.0
1574097112574,4163134.0
1574097112624,4090217.0
1574097112672,4032914.0
1574097112724,3992994.0
1574097112771,3966407.0
1574097112820,3946101.0
1574097112870,3946512.0
1574097112916,3904902.0
1574097112966,3898081.0
1574097113013,3899201.0
1574097113063,3900042.0
1574097113111,3900942.0
1574097113160,3848758.0
1574097113209,3806088.0
1574097113256,3793314.0
1574097113306,3783952.0
1574097113353,3766698.0
1574097113403,3743492.0
1574097113452,3737640.0
1574097113500,3756755.0
1574097113551,3757787.0
1574097113597,3736931.0
1574097113647,3706624.0
1574097113694,3648199.0
1574097113743,3603738.0
1574097113790,3573430.0
1574097113844,3585034.0
1574097113890,3595867.0
1574097113938,3603388.0
1574097113987,3584753.0
1574097114035,3580294.0
1574097114086,3579672.0
1574097114130,3596407.0
1574097114183,3588114.0
1574097114232,3543903.0
1574097114279,3499753.0
1574097114328,3479909.0
1574097114376,3480478.0
1574097114426,3491750.0
1574097114473,3489190.0
1574097114523,3487339.0
1574097114572,3493812.0
1574097114619,3500342.0
1574097114672,3513106.0
1574097114720,3511655.0
1574097114772,3475197.0
1574097114813,3441389.0
1574097114867,3433348.0
1574097114912,3442728.0
1574097114962,3459584.0
1574097115009,3461894.0
1574097115058,3468436.0
1574097115105,3478117.0
1574097115154,3489160.0
1574097115210,3509755.0
1574097115253,3493902.0
1574097115307,3464295.0
1574097115348,3454872.0
1574097115397,3463854.0
1574097115454,3481618.0
1574097115493,3493782.0
1574097115552,3504954.0
1574097115591,3517448.0
1574097115649,3527009.0
1574097115696,3544474.0
1574097115743,3548436.0
1574097115794,3524729.0
1574097115834,3508165.0
1574097115892,3519038.0
1574097115935,3536512.0
1574097115987,3553326.0
1574097116036,3562378.0
1574097116079,3574211.0
1574097116134,3585814.0
1574097116176,3607119.0
1574097116233,3626195.0
1574097116274,3624344.0
1574097116328,3612180.0
1574097116376,3612710.0
1574097116426,3625874.0
1574097116468,3644229.0
1574097116520,3658341.0
1574097116572,3668425.0
1574097116614,3682078.0
1574097116667,3692700.0
1574097116717,3721526.0
1574097116766,3740021.0
1574097116815,3733910.0
1574097116857,3718956.0
1574097116913,3719986.0
1574097116954,3734501.0
1574097117003,3747764.0
1574097117057,3760327.0
1574097117108,3775250.0
1574097117155,3786573.0
1574097117199,3802396.0
1574097117253,3822581.0
1574097117295,3838295.0
1574097117351,3832104.0
1574097117397,3819091.0
1574097117448,3823101.0
1574097117496,3842167.0
1574097117538,3848118.0
1574097117587,3852060.0
1574097117636,3851198.0
1574097117688,3880815.0
1574097117737,4021741.0
1574097117788,4124466.0
1574097117836,4119395.0
1574097117880,4086206.0
1574097117934,4028651.0
1574097117976,4003815.0
1574097118032,4002726.0
1574097118080,4042396.0
1574097118129,4076464.0
1574097118177,4085865.0
1574097118220,4171977.0
1574097118274,4213148.0
1574097118315,4281685.0
1574097118373,4306901.0
1574097118417,4332716.0
1574097118470,4362583.0
1574097118508,4373105.0
1574097118558,4357912.0
1574097118606,4375657.0
1574097118659,4354742.0
1574097118706,4394711.0
1574097118759,4421158.0
1574097118803,4414876.0
1574097118857,4482423.0
1574097118901,4553150.0
1574097118955,4596270.0
1574097118998,4598162.0
1574097119053,4580947.0
1574097119097,4584608.0
1574097119151,4628618.0
1574097119191,4721251.0
1574097119246,4865676.0
1574097119295,4914078.0
1574097119337,4906717.0
1574097119394,4820414.0
1574097119439,4804051.0
1574097119490,4811203.0
1574097119539,4830138.0
1574097119582,4839460.0
1574097119627,4793118.0
1574097119677,4797521.0
1574097119734,4780495.0
1574097119783,4744807.0
1574097119832,4705168.0
1574097119879,4646072.0
1574097119920,4610655.0
1574097119970,4554201.0
1574097120026,4530054.0
1574097120066,4442022.0
1574097120121,4419707.0
1574097120169,4464258.0
1574097120210,4467248.0
1574097120263,4435041.0
1574097120317,4389961.0
1574097120359,4320843.0
1574097120405,4287865.0
1574097120459,4267991.0
1574097120503,4303209.0
1574097120550,4314882.0
1574097120601,4273162.0
1574097120658,4241814.0
1574097120699,4223880.0
1574097120748,4224731.0
1574097120800,4216909.0
1574097120852,4177068.0
1574097120900,4115433.0
1574097120946,4066531.0
1574097120997,4031073.0
1574097121039,3995654.0
1574097121088,3964117.0
1574097121141,3920046.0
1574097121191,3885838.0
1574097121240,3865583.0
1574097121283,3857789.0
1574097121337,3844817.0
1574097121379,3829164.0
1574097121434,3815111.0
1574097121482,3804048.0
1574097121533,3798446.0
1574097121576,3803138.0
1574097121621,3794425.0
1574097121677,3757056.0
1574097121719,3718546.0
1574097121775,3697172.0
1574097121824,3680956.0
1574097121866,3661051.0
1574097121921,3633997.0
1574097121968,3609100.0
1574097122018,3593266.0
1574097122060,3583654.0
1574097122113,3553405.0
1574097122163,3507774.0
1574097122211,3475208.0
1574097122261,3457452.0
1574097122309,3458332.0
1574097122358,3445979.0
1574097122402,3430426.0
1574097122455,3416553.0
1574097122502,3413262.0
1574097122554,3413361.0
1574097122599,3384604.0
1574097122650,3338483.0
1574097122699,3308036.0
1574097122742,3299963.0
1574097122796,3301896.0
1574097122843,3292253.0
1574097122894,3282360.0
1574097122936,3275308.0
1574097122988,3285140.0
1574097123041,3289742.0
1574097123085,3277960.0
1574097123138,3238440.0
1574097123183,3209293.0
1574097123234,3205170.0
1574097123283,3164627.0
1574097123326,3164972.0
1574097123372,3164619.0
1574097123424,3165813.0
1574097123469,3172910.0
1574097123528,3184002.0
1574097123575,3191009.0
1574097123626,3160513.0
1574097123671,3132609.0
1574097123722,3127316.0
1574097123763,3135392.0
1574097123813,3141932.0
1574097123864,3141979.0
1574097123917,3144021.0
1574097123967,3154194.0
1574097124008,3166279.0
1574097124063,3181379.0
1574097124106,3186588.0
1574097124161,3158225.0
1574097124205,3135760.0
1574097124257,3134819.0
1574097124305,3141680.0
1574097124356,3148450.0
1574097124405,3148182.0
1574097124447,3152841.0
1574097124501,3164405.0
1574097124544,3177921.0
1574097124592,3192913.0
1574097124644,3213214.0
1574097124694,3211156.0
1574097124746,3181523.0
1574097124790,3173652.0
1574097124842,3176842.0
1574097124884,3185745.0
1574097124932,3192476.0
1574097124988,3191239.0
1574097125027,3191781.0
1574097125078,3198244.0
1574097125127,3211217.0
1574097125183,3226315.0
1574097125228,3235854.0
1574097125278,3230713.0
1574097125329,3204035.0
1574097125370,3181431.0
1574097125428,3179841.0
1574097125467,3188805.0
1574097125524,3198618.0
1574097125567,3203262.0
1574097125612,3202176.0
1574097125671,3204378.0
1574097125712,3212930.0
1574097125769,3216042.0
1574097125808,3227324.0
1574097125864,3247128.0
1574097125907,3260092.0
1574097125962,3275873.0
1574097126010,3270664.0
1574097126056,3256399.0
1574097126106,3259597.0
1574097126149,3267781.0
1574097126198,3281464.0
1574097126247,3287239.0
1574097126302,3290215.0
1574097126351,3297458.0
1574097126395,3311930.0
1574097126446,3325866.0
1574097126489,3335671.0
1574097126538,3339536.0
1574097126588,3337691.0
1574097126642,3336055.0
1574097126689,3319870.0
1574097126732,3288608.0
1574097126785,3272866.0
1574097126831,3275292.0
1574097126887,3286649.0
1574097126927,3295264.0
1574097126983,3307454.0
1574097127026,3321797.0
1574097127080,3326738.0
1574097127128,3334954.0
1574097127171,3342067.0
1574097127228,3342342.0
1574097127267,3344353.0
1574097127322,3367576.0
1574097127373,3395549.0
1574097127420,3387272.0
1574097127469,3380961.0
1574097127516,3387623.0
1574097127568,3398233.0
1574097127610,3432348.0
1574097127664,3484222.0
1574097127707,3560734.0
1574097127761,3625979.0
1574097127804,3696028.0
1574097127856,3752647.0
1574097127906,3810793.0
1574097127950,3855715.0
1574097128006,3885224.0
1574097128074,3890533.0
1574097128122,3868596.0
1574097128151,3777934.0
1574097128196,3726112.0
1574097128246,3672309.0
1574097128294,3749250.0
1574097128337,3782590.0
1574097128388,3820783.0
1574097128442,3819964.0
1574097128490,3785636.0
1574097128543,3784015.0
1574097128582,3854644.0
1574097128631,3899436.0
1574097128679,3942784.0
1574097128728,4006375.0
1574097128778,4005520.0
1574097128829,4009665.0
1574097128875,3997931.0
1574097128926,4007050.0
1574097128981,4018224.0
1574097129025,4032154.0
1574097129069,4036512.0
1574097129118,4045080.0
1574097129173,4046961.0
1574097129221,4056706.0
1574097129271,4061188.0
1574097129317,4060377.0
1574097129366,4059154.0
1574097129410,4060623.0
1574097129465,4071163.0
1574097129514,4072057.0
1574097129556,4077687.0
1574097129612,4037997.0
1574097129652,4001533.0
1574097129705,3995859.0
1574097129750,3993098.0
1574097129806,3997220.0
1574097129852,4004028.0
1574097129902,4016327.0
1574097129949,4031794.0
1574097129993,4043871.0
1574097130045,4049546.0
1574097130090,4053577.0
1574097130142,4059682.0
1574097130189,4066159.0
1574097130243,4084931.0
1574097130289,4114868.0
1574097130333,4133670.0
1574097130385,4148012.0
1574097130433,4124476.0
1574097130488,4112826.0
1574097130533,4121041.0
1574097130579,4117820.0
1574097130626,4113759.0
1574097130681,4113186.0
1574097130727,4119962.0
1574097130776,4141541.0
1574097130826,4164043.0
1574097130874,4181262.0
1574097130927,4199411.0
1574097130976,4212400.0
1574097131019,4217740.0
1574097131070,4224225.0
1574097131116,4226198.0
1574097131165,4215535.0
1574097131210,4174699.0
1574097131266,4149380.0
1574097131314,4140094.0
1574097131362,4141287.0
1574097131410,4119145.0
1574097131458,4091609.0
1574097131506,4062197.0
1574097131554,4049968.0
1574097131603,4046931.0
1574097131656,4050862.0
1574097131704,4054779.0
1574097131745,4052591.0
1574097131798,4067553.0
1574097131846,4074506.0
1574097131891,4076149.0
1574097131948,4078352.0
1574097131992,4091883.0
1574097132055,4095203.0
1574097132086,4072409.0
1574097132134,4040482.0
1574097132187,4000058.0
1574097132233,3922230.0
1574097132288,3855577.0
1574097132334,3836692.0
1574097132384,3845573.0
1574097132433,3869874.0
1574097132473,3908494.0
1574097132528,3940258.0
1574097132575,3940549.0
1574097132627,3926704.0
1574097132674,3926016.0
1574097132726,3899093.0
1574097132774,3880941.0
1574097132819,3946156.0
1574097132871,4261995.0
1574097132912,4756406.0
1574097132964,5162227.0
1574097133014,5471979.0
1574097133064,5873125.0
1574097133114,5890572.0
1574097133164,5891171.0
1574097133206,5817132.0
1574097133258,5687588.0
1574097133310,5598419.0
1574097133354,5588492.0
1574097133408,5598441.0
1574097133455,5593388.0
1574097133504,5536343.0
1574097133553,5496519.0
1574097133594,5475636.0
1574097133648,5507057.0
1574097133694,5548397.0
1574097133743,5583459.0
1574097133795,5602931.0
1574097133845,5602637.0
1574097133894,5593569.0
1574097133936,5577864.0
1574097133992,5502738.0
1574097134036,5413684.0
1574097134082,5342868.0
1574097134139,5267460.0
1574097134187,5218805.0
1574097134235,5237000.0
1574097134284,5309297.0
1574097134332,5337191.0
1574097134373,5345694.0
1574097134430,5346598.0
1574097134479,5330486.0
1574097134519,5281538.0
1574097134570,5183766.0
1574097134619,5145502.0
1574097134668,5146292.0
1574097134717,5159172.0
1574097134766,5149165.0
1574097134817,5159840.0
1574097134865,5178032.0
1574097134916,5270412.0
1574097134962,5284579.0
1574097135014,5314712.0
1574097135057,5348780.0
1574097135111,5390720.0
1574097135156,5395208.0
1574097135203,5395581.0
1574097135257,5425251.0
1574097135303,5409330.0
1574097135354,5432567.0
1574097135394,5445625.0
1574097135452,5468038.0
1574097135496,5471498.0
1574097135559,5488481.0
1574097135590,5500330.0
1574097135647,5515855.0
1574097135694,5516466.0
1574097135736,5508675.0
1574097135793,5428756.0
1574097135838,5351121.0
1574097135888,5297538.0
1574097135937,5265765.0
1574097135984,5236864.0
1574097136034,5206887.0
1574097136080,5196814.0
1574097136126,5195479.0
1574097136179,5207952.0
1574097136227,5234025.0
1574097136278,5256651.0
1574097136320,5274414.0
1574097136375,5246496.0
1574097136416,5203858.0
1574097136466,5204175.0
1574097136516,5226810.0
1574097136568,5269235.0
1574097136624,5301686.0
1574097136666,5338400.0
1574097136716,5366930.0
1574097136756,5391748.0
1574097136813,5409714.0
1574097136857,5415810.0
1574097136911,5414306.0
1574097136958,5396282.0
1574097137002,5335903.0
1574097137056,5307272.0
1574097137108,5313186.0
1574097137155,5320049.0
1574097137196,5320173.0
1574097137253,5302320.0
1574097137298,5288163.0
1574097137346,5283234.0
1574097137398,5276483.0
1574097137440,5272322.0
1574097137496,5274087.0
1574097137545,5253416.0
1574097137586,5197470.0
1574097137639,5169495.0
1574097137688,5173985.0
1574097137738,5198872.0
1574097137784,5223486.0
1574097137836,5229988.0
1574097137879,5243580.0
1574097137934,5262937.0
1574097137981,5276777.0
1574097138031,5277377.0
1574097138075,5272061.0
1574097138127,5258414.0
1574097138176,5201245.0
1574097138219,5193455.0
1574097138274,5210077.0
1574097138321,5247989.0
1574097138371,5256017.0
1574097138412,5253485.0
1574097138467,5244348.0
1574097138508,5245931.0
1574097138560,5254875.0
1574097138611,5263368.0
1574097138662,5267754.0
1574097138711,5217857.0
1574097138759,5189757.0
1574097138806,5202681.0
1574097138857,5222018.0
1574097138898,5242563.0
1574097138945,5253892.0
1574097138999,5262654.0
1574097139046,5290877.0
1574097139093,5312270.0
1574097139145,5333743.0
1574097139191,5349766.0
1574097139238,5313277.0
1574097139295,5279457.0
1574097139339,5284262.0
1574097139393,5306932.0
1574097139441,5325635.0
1574097139485,5330204.0
1574097139537,5329716.0
1574097139585,5335066.0
1574097139637,5344485.0
1574097139682,5348894.0
1574097139733,5352468.0
1574097139781,5308222.0
1574097139821,5248735.0
1574097139878,5216918.0
1574097139920,5219868.0
1574097139975,5227761.0
1574097140023,5224787.0
1574097140068,5221044.0
1574097140116,5220356.0
1574097140165,5226607.0
1574097140212,5230057.0
1574097140262,5238853.0
1574097140308,5244802.0
1574097140363,5207521.0
1574097140413,5163694.0
1574097140462,5151313.0
1574097140509,5175816.0
1574097140559,5218580.0
1574097140614,5235722.0
1574097140656,5247843.0
1574097140702,5259105.0
1574097140752,5269575.0
1574097140795,5274380.0
1574097140845,5280859.0
1574097140900,5310100.0
1574097140942,5300161.0
1574097140996,5282895.0
1574097141048,5292314.0
1574097141087,5321203.0
1574097141136,5356493.0
1574097141186,5374652.0
1574097141241,5375906.0
1574097141283,5375658.0
1574097141329,5353055.0
1574097141384,5345320.0
1574097141433,5350895.0
1574097141483,5328869.0
1574097141524,5272921.0
1574097141580,5256606.0
1574097141628,5274335.0
1574097141679,5354558.0
1574097141726,5445910.0
1574097141774,5538119.0
1574097141825,5586614.0
1574097141865,5602874.0
1574097141913,5633765.0
1574097141963,5619880.0
1574097142019,5559037.0
1574097142065,5496531.0
1574097142110,5370162.0
1574097142165,5273679.0
1574097142207,5213547.0
1574097142263,5176177.0
1574097142304,5136694.0
1574097142360,5108075.0
1574097142405,5098069.0
1574097142455,5100997.0
1574097142507,5090866.0
1574097142558,5077953.0
1574097142598,5062032.0
1574097142648,5028258.0
1574097142696,4933550.0
1574097142743,4839283.0
1574097142792,4778823.0
1574097142839,4733492.0
1574097142892,4696801.0
1574097142937,4662213.0
1574097142990,4649222.0
1574097143042,4645276.0
1574097143086,4645276.0
1574097143129,4646339.0
1574097143186,4663186.0
1574097143236,4650849.0
1574097143285,4634985.0
1574097143327,4637553.0
1574097143383,4648645.0
1574097143429,4660912.0
1574097143473,4682646.0
1574097143534,4712880.0
1574097143576,4735483.0
1574097143631,4733618.0
1574097143668,4736524.0
1574097143723,4728021.0
1574097143767,4676358.0
1574097143819,4532431.0
1574097143869,4432339.0
1574097143911,4373802.0
1574097143968,4339521.0
1574097144007,4360506.0
1574097144062,4445525.0
1574097144115,4599086.0
1574097144161,4722322.0
1574097144210,4765844.0
1574097144254,4779343.0
1574097144306,4797334.0
1574097144355,4775974.0
1574097144406,4751563.0
1574097144448,4758223.0
1574097144503,4820445.0
1574097144557,4880666.0
1574097144591,4870660.0
1574097144646,4834714.0
1574097144689,4785688.0
1574097144736,4749460.0
1574097144789,4731605.0
1574097144834,4710235.0
1574097144888,4672253.0
1574097144933,4631775.0
1574097144985,4695887.0
1574097145034,4884433.0
1574097145079,4965063.0
1574097145125,4958945.0
1574097145177,4933607.0
1574097145227,4935653.0
1574097145274,4930826.0
1574097145322,4916545.0
1574097145369,4911366.0
1574097145445,4831695.0
1574097145483,4814644.0
1574097145590,4785733.0
1574097145596,4752331.0
1574097145622,4741906.0
1574097145679,4734047.0
1574097145709,4714384.0
1574097145758,4698849.0
1574097145808,4750431.0
1574097145856,4871881.0
1574097145906,4928745.0
1574097145953,4927398.0
1574097146002,4909681.0
1574097146048,4883368.0
1574097146100,4856708.0
1574097146147,4832601.0
1574097146197,4728348.0
1574097146247,4718082.0
1574097146291,4662168.0
1574097146343,4655349.0
1574097146390,4679389.0
1574097146440,4704060.0
1574097146487,4770320.0
1574097146543,4786082.0
1574097146588,4801178.0
1574097146634,4754015.0
1574097146684,4956639.0
1574097146730,5030588.0
1574097146781,5045083.0
1574097146829,5026755.0
1574097146878,5014938.0
1574097146927,5025647.0
1574097146974,5027852.0
1574097147024,5020367.0
1574097147073,4923418.0
1574097147122,4846543.0
1574097147169,4854028.0
1574097147219,4840549.0
1574097147267,4848814.0
1574097147313,4873396.0
1574097147365,4865865.0
1574097147413,4851856.0
1574097147462,4783776.0
1574097147509,4819833.0
1574097147563,4918952.0
1574097147608,4980191.0
1574097147662,4999210.0
1574097147711,4972775.0
1574097147753,4942529.0
1574097147802,4929231.0
1574097147854,4898090.0
1574097147906,4879175.0
1574097147949,4895095.0
1574097147997,4899911.0
1574097148048,4928971.0
1574097148101,4967755.0
1574097148147,4977489.0
1574097148195,4948520.0
1574097148241,4966601.0
1574097148289,5135483.0
1574097148336,5177411.0
1574097148388,5183550.0
1574097148440,5182748.0
1574097148483,5178800.0
1574097148536,5163536.0
1574097148579,5153926.0
1574097148630,5134998.0
1574097148685,5022888.0
1574097148735,4983245.0
1574097148776,4985449.0
1574097148827,5022571.0
1574097148878,5037880.0
1574097148929,5056446.0
1574097148971,5065967.0
1574097149026,5024211.0
1574097149073,5101777.0
1574097149115,5109410.0
1574097149167,5151280.0
1574097149214,5221406.0
1574097149265,5233708.0
1574097149312,5216770.0
1574097149360,5217641.0
1574097149408,5228418.0
1574097149463,5244507.0
1574097149513,5196665.0
1574097149555,5185292.0
1574097149611,5204026.0
1574097149657,5237441.0
1574097149706,5260212.0
1574097149748,5272289.0
1574097149803,5253077.0
1574097149848,5216556.0
1574097149898,5252918.0
1574097149949,5263536.0
1574097149998,5278145.0
1574097150047,5299143.0
1574097150089,5309273.0
1574097150143,5314578.0
1574097150191,5320728.0
1574097150238,5313005.0
1574097150285,5270739.0
1574097150333,5162248.0
1574097150382,5150884.0
1574097150431,5163796.0
1574097150487,5178258.0
1574097150533,5192618.0
1574097150578,5216227.0
1574097150624,5213696.0
1574097150672,5174629.0
1574097150729,5164769.0
1574097150772,5226211.0
1574097150825,5267663.0
1574097150871,5265347.0
1574097150924,5268421.0
1574097150967,5270909.0
1574097151021,5285245.0
1574097151070,5268839.0
1574097151111,5194168.0
1574097151166,5173396.0
1574097151217,5172323.0
1574097151264,5183934.0
1574097151312,5211174.0
1574097151356,5224470.0
1574097151403,5223011.0
1574097151459,5154661.0
1574097151507,5119914.0
1574097151555,5136229.0
1574097151603,5166409.0
1574097151647,5175444.0
1574097151702,5201505.0
1574097151751,5222989.0
1574097151794,5246486.0
1574097151845,5233720.0
1574097151894,5250885.0
1574097151942,5294994.0
1574097151988,5280577.0
1574097152048,5271824.0
1574097152087,5292574.0
1574097152136,5318851.0
1574097152187,5376709.0
1574097152238,5400760.0
1574097152282,5465415.0
1574097152337,5570141.0
1574097152379,5641012.0
1574097152427,5643140.0
1574097152480,5592935.0
1574097152532,5553158.0
1574097152578,5534466.0
1574097152622,5579062.0
1574097152674,5597480.0
1574097152725,5604289.0
1574097152772,5613074.0
1574097152817,5574912.0
1574097152869,5548375.0
1574097152912,5531402.0
1574097152969,5485066.0
1574097153020,5421023.0
1574097153067,5357771.0
1574097153114,5250635.0
1574097153158,5231018.0
1574097153209,5258008.0
1574097153260,5270694.0
1574097153309,5292958.0
1574097153360,5312304.0
1574097153401,5334058.0
1574097153447,5311445.0
1574097153504,5254865.0
1574097153555,5104761.0
1574097153598,5071124.0
1574097153647,5054502.0
1574097153697,5068139.0
1574097153747,5104197.0
1574097153795,5127694.0
1574097153846,5147278.0
1574097153892,5151721.0
1574097153935,5210359.0
1574097153990,5266092.0
1574097154039,5312587.0
1574097154083,5321768.0
1574097154136,5327817.0
1574097154180,5346734.0
1574097154231,5347242.0
1574097154283,5316104.0
1574097154326,5225205.0
1574097154377,5152999.0
1574097154423,5121123.0
1574097154481,5092788.0
1574097154526,5090356.0
1574097154576,5078428.0
1574097154618,5075805.0
1574097154669,5068818.0
1574097154717,5022266.0
1574097154770,5066430.0
1574097154822,5190899.0
1574097154867,5254095.0
1574097154913,5298419.0
1574097154958,5315143.0
1574097155010,5303586.0
1574097155058,5259239.0
1574097155105,5241884.0
1574097155161,5180350.0
1574097155201,5037259.0
1574097155248,5005984.0
1574097155301,4990098.0
1574097155348,5026427.0
1574097155395,5083018.0
1574097155445,5104603.0
1574097155498,5058730.0
1574097155544,4966509.0
1574097155592,5040379.0
1574097155642,5150782.0
1574097155689,5230577.0
1574097155737,5287497.0
1574097155787,5322843.0
1574097155838,5343546.0
1574097155884,5356255.0
1574097155933,5340832.0
1574097155981,5264091.0
1574097156029,5092608.0
1574097156079,5014972.0
1574097156128,5003235.0
1574097156179,4996983.0
1574097156225,5025987.0
1574097156273,5030960.0
1574097156322,5028077.0
1574097156370,5032838.0
1574097156420,5085529.0
1574097156467,5148385.0
1574097156518,5249030.0
1574097156569,5269359.0
1574097156614,5244688.0
1574097156663,5238164.0
1574097156711,5226483.0
1574097156759,5197391.0
1574097156808,5165413.0
1574097156858,5108742.0
1574097156906,5070299.0
1574097156954,5035924.0
1574097157004,4974142.0
1574097157051,4921337.0
1574097157104,4897300.0
1574097157149,4890561.0
1574097157200,4861354.0
1574097157246,4783414.0
1574097157294,4762632.0
1574097157344,4794575.0
1574097157392,4826449.0
1574097157442,4837304.0
1574097157489,4824098.0
1574097157543,4773215.0
1574097157587,4765549.0
1574097157634,4754966.0
1574097157683,4736219.0
1574097157731,4734976.0
1574097157781,4746565.0
1574097157828,4745547.0
1574097157882,4750136.0
1574097157933,4723057.0
1574097157983,4672786.0
1574097158023,4575036.0
1574097158081,4543297.0
1574097158128,4592709.0
1574097158206,4642742.0
1574097158224,4680576.0
1574097158272,4709715.0
1574097158326,4741871.0
1574097158366,4752410.0
1574097158414,4746473.0
1574097158464,4681571.0
1574097158512,4621350.0
1574097158562,4627579.0
1574097158616,4629117.0
1574097158664,4640493.0
1574097158711,4653043.0
1574097158760,4664068.0
1574097158809,4657442.0
1574097158858,4595411.0
1574097158903,4521632.0
1574097158955,4530056.0
1574097159003,4554752.0
1574097159056,4585675.0
1574097159103,4618829.0
1574097159145,4639723.0
1574097159199,4665482.0
1574097159242,4671181.0
1574097159295,4632962.0
1574097159347,4642470.0
1574097159392,4621925.0
1574097159442,4594925.0
1574097159490,4590232.0
1574097159540,4603495.0
1574097159585,4620885.0
1574097159637,4619156.0
1574097159690,4577263.0
1574097159737,4567755.0
1574097159788,4630091.0
1574097159840,4671575.0
1574097159885,4703721.0
1574097159924,4739939.0
1574097159974,4769111.0
1574097160024,4825691.0
1574097160069,4846258.0
1574097160125,4944891.0
1574097160168,5019461.0
1574097160216,5047547.0
1574097160266,5102240.0
1574097160313,5127072.0
1574097160368,5137802.0
1574097160414,5151823.0
1574097160472,5175625.0
1574097160524,5187722.0
1574097160568,5218060.0
1574097160615,5219065.0
1574097160667,5202399.0
1574097160704,5188423.0
1574097160755,5180350.0
1574097160805,5154864.0
1574097160852,5115290.0
1574097160902,5070354.0
1574097160948,5024855.0
1574097161005,5035845.0
1574097161046,5023396.0
1574097161094,4993149.0
1574097161149,4999413.0
1574097161194,5012575.0
1574097161244,4992099.0
1574097161295,4879559.0
1574097161337,4956934.0
1574097161387,5022841.0
1574097161440,5055916.0
1574097161489,5085358.0
1574097161539,5108041.0
1574097161584,5138379.0
1574097161631,5135756.0
1574097161678,5104446.0
1574097161728,5040979.0
1574097161775,4957305.0
1574097161830,4894325.0
1574097161877,4860596.0
1574097161927,4858040.0
1574097161980,4886704.0
1574097162028,4900532.0
1574097162067,4894258.0
1574097162117,4791419.0
1574097162171,4715266.0
1574097162218,4791159.0
1574097162269,4830181.0
1574097162310,4838456.0
1574097162367,4861738.0
1574097162408,4879762.0
1574097162463,4878791.0
1574097162515,4862927.0
1574097162559,4804490.0
1574097162609,4786909.0
1574097162650,4791159.0
1574097162708,4782803.0
1574097162755,4773621.0
1574097162797,4776177.0
1574097162845,4775013.0
1574097162901,4732192.0
1574097162953,4731798.0
1574097162996,4720388.0
1574097163045,4760563.0
1574097163089,4819179.0
1574097163147,4879683.0
1574097163186,4890764.0
1574097163235,4867720.0
1574097163290,4830915.0
1574097163330,4798273.0
1574097163385,4758641.0
1574097163433,4752930.0
1574097163485,4778575.0
1574097163527,4800963.0
1574097163579,4827365.0
1574097163633,4831719.0
1574097163679,4792007.0
1574097163726,4709953.0
1574097163777,4638673.0
1574097163827,4644969.0
1574097163867,4703642.0
1574097163916,4736851.0
1574097163974,4760494.0
1574097164023,4782589.0
1574097164069,4803145.0
1574097164117,4784150.0
1574097164165,4676551.0
1574097164207,4636456.0
1574097164264,4651099.0
1574097164311,4661252.0
1574097164362,4682985.0
1574097164402,4699493.0
1574097164451,4708605.0
1574097164507,4676177.0
1574097164547,4637293.0
1574097164604,4626450.0
1574097164649,4643409.0
1574097164700,4656390.0
1574097164751,4662089.0
1574097164800,4676167.0
1574097164842,4685450.0
1574097164889,4699322.0
1574097164948,4702998.0
1574097164989,4705871.0
1574097165038,4708085.0
1574097165086,4706322.0
1574097165140,4659872.0
1574097165187,4624243.0
1574097165229,4616827.0
1574097165278,4620909.0
1574097165334,4590006.0
1574097165376,4555700.0
1574097165427,4571485.0
1574097165481,4625749.0
1574097165526,4644337.0
1574097165575,4651731.0
1574097165628,4624991.0
1574097165669,4598351.0
1574097165724,4593568.0
1574097165767,4582985.0
1574097165814,4592833.0
1574097165865,4630011.0
1574097165910,4629412.0
1574097165966,4632374.0
1574097166010,4655463.0
1574097166059,4660427.0
1574097166114,4640583.0
1574097166161,4598871.0
1574097166209,4515549.0
1574097166257,4515898.0
1574097166305,4561070.0
1574097166357,4600669.0
1574097166406,4638876.0
1574097166449,4687045.0
1574097166500,4713378.0
1574097166552,4709306.0
1574097166593,4622819.0
1574097166645,4534499.0
1574097166689,4546881.0
1574097166747,4576414.0
1574097166791,4609647.0
1574097166842,4665606.0
1574097166889,4695241.0
1574097166934,4697831.0
1574097166988,4643466.0
1574097167029,4684149.0
1574097167081,4756311.0
1574097167130,4783934.0
1574097167184,4804435.0
1574097167232,4843207.0
1574097167279,4870310.0
1574097167326,4874380.0
1574097167371,4892019.0
1574097167426,4826585.0
1574097167471,4863898.0
1574097167524,4922650.0
1574097167575,4913275.0
1574097167620,4906357.0
1574097167671,4928099.0
1574097167710,4950125.0
1574097167766,4973249.0
1574097167814,5105487.0
1574097167866,5158641.0
1574097167912,5247175.0
1574097167954,5298295.0
1574097168012,5301642.0
1574097168056,5299606.0
1574097168102,5279660.0
1574097168153,5310157.0
1574097168206,5332396.0
1574097168253,5329456.0
1574097168300,5270706.0
1574097168351,5268398.0
1574097168393,5273488.0
1574097168455,5317674.0
1574097168493,5363876.0
1574097168546,5377964.0
1574097168588,5347051.0
1574097168641,5306945.0
1574097168693,5478530.0
1574097168732,5474517.0
1574097168788,5510381.0
1574097168834,5569235.0
1574097168887,5610959.0
1574097168934,5621463.0
1574097168982,5607600.0
1574097169028,5496011.0
1574097169075,5359624.0
1574097169131,5318952.0
1574097169174,5326563.0
1574097169227,5369122.0
1574097169275,5413412.0
1574097169322,5457974.0
1574097169364,5473509.0
1574097169411,5389035.0
1574097169463,5479107.0
1574097169518,5586005.0
1574097169567,5607499.0
1574097169615,5609646.0
1574097169665,5610518.0
1574097169713,5604955.0
1574097169752,5603563.0
1574097169811,5604276.0
1574097169854,5540494.0
1574097169906,5519993.0
1574097169956,5523193.0
1574097170012,5480949.0
1574097170047,5453531.0
1574097170098,5440075.0
1574097170152,5450103.0
1574097170194,5496734.0
1574097170243,5553440.0
1574097170295,5431933.0
1574097170341,5506527.0
1574097170395,5611546.0
1574097170440,5641114.0
1574097170489,5638865.0
1574097170535,5657341.0
1574097170582,5689159.0
1574097170633,5742155.0
1574097170679,5713751.0
1574097170735,5732951.0
1574097170778,5899629.0
1574097170833,5919587.0
1574097170874,5904672.0
1574097170931,5900806.0
1574097170984,5905747.0
1574097171026,5920162.0
1574097171068,5826358.0
1574097171126,5849618.0
1574097171172,6013401.0
1574097171218,6083031.0
1574097171265,6102885.0
1574097171318,6084693.0
1574097171364,6077015.0
1574097171416,6072559.0
1574097171458,6037723.0
1574097171514,5959432.0
1574097171556,5960982.0
1574097171605,6002151.0
1574097171657,5969405.0
1574097171708,5927931.0
1574097171756,5920942.0
1574097171799,5964769.0
1574097171847,6015538.0
1574097171897,5931424.0
1574097171952,5936932.0
1574097171999,6008901.0
1574097172046,5985722.0
1574097172090,5922312.0
1574097172147,5893762.0
1574097172194,5873340.0
1574097172236,5880917.0
1574097172290,5835948.0
1574097172339,5776121.0
1574097172388,5744406.0
1574097172438,5692867.0
1574097172481,5623058.0
1574097172536,5586671.0
1574097172579,5568241.0
1574097172634,5582340.0
1574097172681,5511446.0
1574097172732,5424877.0
1574097172780,5488355.0
1574097172824,5507206.0
1574097172877,5487701.0
1574097172917,5472786.0
1574097172974,5461999.0
1574097173023,5481945.0
1574097173072,5557477.0
1574097173111,5545096.0
1574097173161,5575127.0
1574097173208,5584863.0
1574097173258,5567699.0
1574097173306,5596972.0
1574097173355,5598961.0
1574097173409,5574641.0
1574097173458,5632148.0
1574097173509,5600952.0
1574097173557,5578825.0
1574097173601,5705453.0
1574097173648,5745377.0
1574097173698,5711388.0
1574097173753,5693964.0
1574097173800,5692901.0
1574097173850,5666387.0
1574097173898,5611298.0
1574097173947,5539837.0
1574097173989,5422346.0
1574097174038,5373013.0
1574097174087,5335596.0
1574097174140,5357454.0
1574097174191,5416431.0
1574097174239,5413378.0
1574097174283,5387780.0
1574097174329,5293659.0
1574097174378,5220796.0
1574097174434,5185076.0
1574097174484,5198770.0
1574097174528,5204638.0
1574097174577,5218297.0
1574097174629,5234161.0
1574097174681,5249515.0
1574097174720,5236490.0
1574097174775,5162305.0
1574097174822,5068659.0
1574097174872,4989509.0
1574097174922,4945637.0
1574097174970,4957058.0
1574097175020,4972785.0
1574097175062,4988322.0
1574097175112,4979027.0
1574097175162,4913694.0
1574097175213,4873520.0
1574097175262,4857216.0
1574097175309,4824663.0
1574097175358,4795660.0
1574097175400,4783097.0
1574097175457,4794607.0
1574097175501,4809104.0
1574097175553,4811095.0
1574097175595,4774639.0
1574097175645,4749064.0
1574097175692,4747875.0
1574097175740,4705485.0
1574097175797,4676776.0
1574097175842,4662621.0
1574097175887,4666703.0
1574097175946,4654908.0
1574097175984,4613355.0
1574097176041,4593794.0
1574097176083,4610586.0
1574097176130,4633211.0
1574097176181,4664001.0
1574097176235,4683832.0
1574097176284,4665831.0
1574097176326,4662621.0
1574097176381,4613514.0
1574097176423,4591351.0
1574097176475,4595287.0
1574097176522,4605169.0
1574097176575,4632057.0
1574097176617,4681085.0
1574097176666,4696417.0
1574097176714,4696055.0
1574097176763,4631887.0
1574097176819,4633402.0
1574097176864,4670173.0
1574097176913,4708709.0
1574097176956,4729797.0
1574097177013,4762926.0
1574097177060,4811784.0
1574097177109,4842166.0
1574097177159,4817131.0
1574097177203,4714475.0
1574097177252,4682544.0
1574097177305,4687959.0
1574097177353,4696531.0
1574097177402,4741148.0
1574097177448,4784635.0
1574097177496,4814904.0
1574097177543,4861444.0
1574097177589,4779796.0
1574097177646,4694247.0
1574097177686,4717527.0
1574097177743,4739712.0
1574097177789,4774211.0
1574097177840,4806481.0
1574097177884,4832916.0
1574097177938,4861852.0
1574097177984,4818478.0
1574097178026,4755362.0
1574097178075,4756301.0
1574097178127,4745762.0
1574097178171,4734466.0
1574097178225,4756945.0
1574097178269,4788130.0
1574097178322,4807035.0
1574097178365,4756085.0
1574097178421,4693703.0
1574097178467,4736184.0
1574097178522,4753913.0
1574097178566,4778823.0
1574097178617,4771395.0
1574097178662,4811784.0
1574097178709,4821339.0
1574097178758,4839385.0
1574097178804,4840346.0
1574097178852,4805349.0
1574097178908,4785664.0
1574097178948,4788616.0
1574097179010,4788311.0
1574097179054,4795501.0
1574097179102,4789237.0
1574097179147,4794812.0
1574097179201,4827127.0
1574097179249,4776427.0
1574097179295,4761795.0
1574097179342,4805294.0
1574097179394,4831853.0
1574097179455,4867913.0
1574097179487,4898838.0
1574097179539,4887608.0
1574097179584,4876743.0
1574097179630,4876720.0
1574097179688,4833854.0
1574097179728,4817052.0
1574097179785,4810743.0
1574097179826,4823261.0
1574097179881,4851970.0
1574097179925,4862429.0
1574097179977,4847945.0
1574097180026,4793602.0
1574097180069,4746971.0
1574097180118,4738706.0
1574097180168,4761207.0
1574097180223,4788559.0
1574097180267,4824086.0
1574097180318,4863422.0
1574097180365,4884262.0
1574097180410,4905701.0
1574097180466,4854186.0
1574097180512,4790493.0
1574097180563,4764170.0
1574097180607,4759206.0
1574097180658,4798124.0
1574097180704,4849787.0
1574097180754,4889780.0
1574097180807,4937565.0
1574097180846,4950511.0
1574097180903,5080734.0
1574097180947,5219157.0
1574097180996,5248046.0
1574097181047,5252467.0
1574097181091,5258256.0
1574097181147,5296599.0
1574097181188,5307950.0
1574097181244,5312599.0
1574097181288,5292663.0
1574097181334,5201359.0
1574097181389,5159736.0
1574097181442,5109636.0
1574097181485,5090629.0
1574097181528,5090086.0
1574097181581,5103258.0
1574097181626,5113774.0
1574097181673,5124551.0
1574097181730,5102071.0
1574097181778,5084761.0
1574097181824,5055847.0
1574097181868,5028553.0
1574097181926,5020580.0
1574097181973,5032498.0
1574097182024,5052025.0
1574097182067,5044540.0
1574097182112,4991760.0
1574097182165,4946316.0
1574097182213,4966465.0
1574097182265,4948419.0
1574097182306,4912507.0
1574097182362,4921882.0
1574097182405,4928111.0
1574097182458,4952151.0
1574097182507,4917753.0
1574097182554,4878360.0
1574097182602,4905689.0
1574097182646,4932748.0
1574097182705,4948916.0
1574097182753,4973283.0
1574097182793,4991284.0
1574097182846,4994891.0
1574097182895,5000035.0
1574097182944,4952953.0
1574097182987,4935846.0
1574097183046,4942596.0
1574097183089,4939148.0
1574097183133,4957102.0
1574097183184,4959455.0
1574097183229,4956164.0
1574097183280,4964453.0
1574097183327,4945208.0
1574097183379,4922130.0
1574097183429,4924797.0
1574097183475,4935155.0
1574097183531,4957305.0
1574097183575,4980057.0
1574097183626,4993399.0
1574097183667,4977479.0
1574097183719,4966509.0
1574097183771,4906707.0
1574097183816,4879479.0
1574097183866,4900193.0
1574097183917,4914712.0
1574097183966,4956322.0
1574097184012,4999356.0
1574097184067,5012496.0
1574097184111,5028417.0
1574097184162,4930249.0
1574097184209,4905191.0
1574097184252,4887269.0
1574097184304,4910890.0
1574097184354,4927693.0
1574097184398,4956572.0
1574097184455,4973340.0
1574097184501,4987066.0
1574097184550,4951450.0
1574097184593,4888569.0
1574097184645,4870298.0
1574097184689,4902625.0
1574097184748,4925184.0
1574097184794,4963886.0
1574097184844,4994643.0
1574097184893,4997672.0
1574097184941,4997424.0
1574097184987,4918546.0
1574097185029,4881798.0
1574097185082,4871383.0
1574097185133,4883697.0
1574097185185,4910833.0
1574097185224,4931888.0
1574097185276,4949957.0
1574097185324,4966432.0
1574097185369,4959364.0
1574097185423,4899640.0
1574097185482,4866464.0
1574097185528,4871044.0
1574097185573,4878270.0
1574097185614,4920785.0
1574097185668,4952795.0
1574097185711,4973090.0
1574097185766,4954806.0
1574097185814,4868433.0
1574097185859,4849968.0
1574097185909,4861037.0
1574097185954,4884037.0
1574097186011,4909194.0
1574097186051,4942506.0
1574097186107,4966341.0
1574097186153,4991522.0
1574097186206,4974640.0
1574097186254,4939881.0
1574097186300,4926799.0
1574097186350,4910415.0
1574097186391,4914497.0
1574097186447,4946135.0
1574097186493,4975297.0
1574097186547,4984376.0
1574097186588,4964429.0
1574097186641,4925295.0
1574097186693,4904163.0
1574097186732,4917166.0
1574097186788,4933538.0
1574097186834,4946677.0
1574097186887,4954016.0
1574097186933,4959126.0
1574097186978,4973429.0
1574097187027,4965627.0
1574097187073,4935088.0
1574097187129,4931888.0
1574097187175,4955859.0
1574097187227,4971745.0
1574097187274,4977920.0
1574097187321,4979638.0
1574097187372,4970502.0
1574097187413,4925578.0
1574097187468,4898791.0
1574097187515,4892121.0
1574097187566,4916126.0
1574097187615,4943071.0
1574097187662,4966036.0
1574097187706,4968015.0
1574097187753,4952716.0
1574097187812,4941397.0
1574097187853,4900646.0
1574097187906,4889543.0
1574097187956,4926744.0
1574097188005,4937010.0
1574097188048,4960483.0
1574097188102,4993603.0
1574097188145,4980451.0
1574097188194,4954863.0
1574097188243,4896542.0
1574097188297,4858630.0
1574097188341,4856638.0
1574097188393,4878506.0
1574097188452,4907385.0
1574097188491,4927185.0
1574097188534,4944733.0
1574097188584,4953813.0
1574097188641,4906085.0
1574097188685,4845027.0
1574097188726,4839090.0
1574097188781,4868465.0
1574097188824,4878813.0
1574097188877,4901991.0
1574097188925,4920897.0
1574097188977,4930429.0
1574097189024,4928812.0
1574097189069,4920027.0
1574097189127,4938739.0
1574097189173,4965288.0
1574097189214,5007012.0
1574097189271,5056130.0
1574097189317,5071961.0
1574097189367,5091285.0
1574097189416,5120863.0
1574097189459,5122763.0
1574097189516,5139917.0
1574097189555,5148385.0
1574097189613,5178099.0
1574097189657,5195660.0
1574097189707,5224448.0
1574097189757,5200851.0
1574097189806,5165911.0
1574097189845,5584264.0
1574097189895,6481064.0
1574097189942,7181754.0
1574097189997,6754391.0
1574097190040,6286750.0
1574097190090,6108968.0
1574097190139,6042392.0
1574097190193,5954696.0
1574097190235,5805734.0
1574097190291,5714635.0
1574097190338,5685981.0
1574097190387,5626597.0
1574097190435,5521938.0
1574097190484,5445400.0
1574097190536,5382928.0
1574097190576,5328700.0
1574097190629,5303643.0
1574097190679,5327581.0
1574097190733,5375433.0
1574097190780,5375443.0
1574097190825,5365120.0
1574097190884,5352626.0
1574097190916,5337971.0
1574097190973,5328621.0
1574097191020,5344552.0
1574097191071,5384399.0
1574097191118,5449222.0
1574097191164,5447627.0
1574097191215,5458279.0
1574097191258,5456674.0
1574097191314,5464588.0
1574097191359,5464194.0
1574097191409,5419020.0
1574097191459,5367777.0
1574097191507,5339973.0
1574097191556,5312644.0
1574097191607,5258538.0
1574097191647,5276596.0
1574097191702,5299935.0
1574097191752,5299663.0
1574097191800,5325421.0
1574097191847,5285495.0
1574097191898,5213582.0
1574097191939,5189306.0
1574097191995,5170389.0
1574097192040,5167538.0
1574097192086,5173747.0
1574097192140,5185507.0
1574097192188,5185733.0
1574097192238,5161886.0
1574097192280,5093784.0
1574097192328,5027500.0
1574097192380,5010980.0
1574097192424,4997243.0
1574097192481,4988661.0
1574097192529,5001484.0
1574097192575,5015889.0
1574097192626,5044246.0
1574097192674,5025410.0
1574097192722,4977196.0
1574097192773,4945129.0
1574097192822,4916035.0
1574097192864,4898893.0
1574097192912,4923170.0
1574097192962,4937461.0
1574097193016,4954004.0
1574097193062,4925035.0
1574097193113,4860869.0
1574097193154,4804467.0
1574097193208,4806141.0
1574097193258,4814724.0
1574097193299,4817517.0
1574097193356,4830305.0
1574097193401,4836931.0
1574097193446,4839078.0
1574097193501,4856131.0
1574097193549,4814067.0
1574097193592,4800918.0
1574097193640,4785529.0
1574097193697,4723644.0
1574097193742,4710042.0
1574097193791,4710562.0
1574097193835,4724221.0
1574097193884,4725873.0
1574097193931,4685586.0
1574097193981,4642257.0
1574097194031,4617843.0
1574097194079,4651290.0
1574097194128,4680417.0
1574097194177,4691069.0
1574097194229,4692573.0
1574097194280,4692630.0
1574097194322,4703144.0
1574097194377,4652489.0
1574097194423,4591941.0
1574097194474,4565130.0
1574097194517,4562202.0
1574097194570,4596508.0
1574097194622,4614554.0
1574097194661,4605192.0
1574097194716,4612089.0
1574097194763,4558403.0
1574097194814,4505701.0
1574097194864,4517562.0
1574097194905,4561806.0
1574097194961,4608109.0
1574097195007,4651969.0
1574097195051,4698170.0
1574097195106,4706820.0
1574097195149,4722255.0
1574097195204,4706243.0
1574097195251,4653383.0
1574097195301,4621429.0
1574097195349,4610539.0
1574097195399,4587361.0
1574097195443,4587948.0
1574097195494,4598554.0
1574097195544,4561716.0
1574097195587,4503891.0
1574097195642,4452240.0
1574097195684,4434828.0
1574097195740,4439700.0
1574097195784,4465934.0
1574097195834,4509127.0
1574097195886,4558222.0
1574097195931,4581300.0
1574097195984,4589328.0
1574097196024,4548012.0
1574097196076,4478925.0
1574097196127,4455395.0
1574097196176,4466362.0
1574097196226,4488230.0
1574097196269,4518523.0
1574097196324,4548510.0
1574097196364,4569744.0
1574097196420,4523465.0
1574097196465,4412507.0
1574097196516,4361886.0
1574097196567,4414260.0
1574097196614,4456153.0
1574097196656,4483447.0
1574097196705,4506197.0
1574097196760,4529152.0
1574097196808,4583527.0
1574097196856,4599572.0
1574097196904,4584216.0
1574097196947,4569981.0
1574097197005,4571767.0
1574097197045,4577048.0
1574097197094,4607431.0
1574097197148,4640469.0
1574097197189,4667753.0
1574097197246,4639374.0
1574097197288,4580406.0
1574097197337,4536252.0
1574097197385,4541600.0
1574097197435,4556966.0
1574097197489,4580498.0
1574097197536,4598814.0
1574097197582,4616657.0
1574097197628,4648238.0
1574097197683,4649764.0
1574097197725,4621915.0
1574097197781,4577714.0
1574097197827,4521689.0
1574097197875,4498702.0
1574097197925,4519304.0
1574097197969,4553474.0
1574097198026,4583210.0
1574097198066,4556243.0
1574097198122,4544042.0
1574097198170,4554638.0
1574097198219,4565662.0
1574097198265,4560946.0
1574097198309,4544574.0
1574097198366,4538932.0
1574097198407,4592256.0
1574097198462,4617687.0
1574097198505,4625556.0
1574097198560,4617142.0
1574097198607,4610992.0
1574097198650,4611287.0
1574097198710,4601404.0
1574097198748,4578291.0
1574097198803,4549605.0
1574097198844,4532228.0
1574097198901,4537372.0
1574097198951,4552252.0
1574097198995,4572932.0
1574097199044,4579378.0
1574097199089,4590142.0
1574097199146,4594133.0
1574097199185,4591589.0
1574097199241,4572944.0
1574097199288,4524188.0
1574097199332,4505496.0
1574097199381,4505847.0
1574097199434,4521971.0
1574097199486,4569236.0
1574097199525,4603168.0
1574097199579,4630123.0
1574097199629,4608585.0
1574097199679,4559341.0
1574097199726,4503495.0
1574097199774,4484703.0
1574097199827,4507396.0
1574097199868,4553744.0
1574097199914,4619213.0
1574097199971,4696293.0
1574097200020,4772333.0
1574097200065,4808210.0
1574097200114,4766894.0
1574097200160,4720784.0
1574097200206,4706864.0
1574097200264,4714847.0
1574097200313,4782012.0
1574097200360,4850555.0
1574097200407,4920208.0
1574097200450,4990210.0
1574097200504,5132216.0
1574097200549,5185302.0
1574097200603,5139340.0
1574097200653,5096801.0
1574097200700,5085269.0
1574097200747,5071813.0
1574097200795,5069066.0
1574097200845,5125126.0
1574097200887,5163005.0
1574097200937,5123860.0
1574097200993,5020570.0
1574097201042,4935608.0
1574097201085,4890707.0
1574097201137,4890459.0
1574097201184,4909635.0
1574097201230,4908042.0
1574097201285,4910100.0
1574097201330,4851799.0
1574097201381,4786874.0
1574097201429,4733527.0
1574097201479,4731956.0
1574097201522,4755803.0
1574097201569,4778156.0
1574097201626,4804581.0
1574097201668,4850714.0
1574097201713,4869993.0
1574097201769,4827952.0
1574097201812,4799345.0
1574097201861,4727545.0
1574097201909,4703483.0
1574097201966,4713130.0
1574097202013,4735845.0
1574097202056,4753982.0
1574097202112,4808504.0
1574097202153,4865911.0
1574097202208,4902534.0
1574097202252,4905498.0
1574097202307,4859546.0
1574097202354,4819518.0
1574097202403,4810246.0
1574097202450,4815266.0
1574097202499,4872740.0
1574097202548,4914419.0
1574097202590,4890357.0
1574097202647,4873260.0
1574097202693,4847164.0
1574097202743,4835709.0
1574097202792,4825522.0
1574097202834,4836083.0
1574097202889,4905914.0
1574097202929,4942031.0
1574097202984,4945377.0
1574097203031,4949652.0
1574097203081,4922368.0
1574097203133,4910405.0
1574097203174,4904537.0
1574097203226,4911071.0
1574097203273,4938333.0
1574097203328,4997774.0
1574097203373,4987733.0
1574097203425,4980723.0
1574097203473,4950363.0
1574097203519,4940550.0
1574097203568,4953439.0
1574097203611,4948124.0
1574097203664,4946801.0
1574097203716,4935980.0
1574097203765,4932408.0
1574097203814,4933697.0
1574097203860,4941181.0
1574097203911,4943093.0
1574097203951,4967619.0
1574097204009,4998204.0
1574097204054,5045863.0
1574097204097,5066839.0
1574097204146,5061457.0
1574097204194,5045004.0
1574097204246,5021531.0
1574097204293,5030690.0
1574097204343,5047820.0
1574097204391,5070151.0
1574097204446,5118772.0
1574097204494,5134795.0
1574097204541,5099708.0
1574097204585,5090198.0
1574097204632,5073995.0
1574097204690,5060008.0
1574097204734,5056119.0
1574097204781,5057249.0
1574097204834,5061660.0
1574097204877,5078101.0
1574097204933,5035302.0
1574097204973,4952636.0
1574097205030,4862236.0
1574097205074,4829886.0
1574097205126,4864713.0
1574097205168,4894417.0
1574097205224,4920163.0
1574097205266,4967415.0
1574097205313,5039282.0
1574097205371,5055079.0
1574097205413,5010484.0
1574097205467,4996587.0
1574097205515,5023939.0
1574097205563,5025284.0
1574097205613,5033561.0
1574097205656,5067109.0
1574097205702,5076551.0
1574097205753,5049459.0
1574097205799,4994009.0
1574097205847,4942222.0
1574097205897,4929659.0
1574097205954,4945310.0
1574097205994,4971113.0
1574097206053,4984669.0
1574097206092,4965573.0
1574097206147,4944812.0
1574097206195,4936240.0
1574097206244,4932284.0
1574097206294,4919133.0
1574097206337,4892188.0
1574097206390,4885506.0
1574097206434,4916228.0
1574097206488,4938378.0
1574097206535,4894303.0
1574097206583,4857713.0
1574097206635,4834387.0
1574097206682,4827353.0
1574097206733,4827930.0
1574097206774,4841216.0
1574097206831,4862902.0
1574097206875,4869349.0
1574097206926,4892448.0
1574097206976,4905045.0
1574097207025,4915153.0
1574097207074,4928755.0
1574097207116,4934048.0
1574097207172,4908369.0
1574097207216,4934680.0
1574097207263,4977070.0
1574097207317,4951936.0
1574097207360,4920728.0
1574097207414,4888242.0
1574097207464,4884975.0
1574097207515,4911851.0
1574097207557,4888785.0
1574097207611,4870806.0
1574097207657,4828066.0
1574097207709,4823702.0
1574097207756,4803756.0
1574097207797,4810109.0
1574097207853,4823090.0
1574097207895,4841488.0
1574097207951,4852004.0
1574097207999,4845423.0
1574097208046,4836591.0
1574097208089,4820953.0
1574097208140,4777829.0
1574097208193,4750374.0
1574097208236,4732883.0
1574097208292,4766520.0
1574097208337,4793002.0
1574097208387,4792212.0
1574097208437,4760868.0
1574097208478,4698498.0
1574097208534,4669291.0
1574097208577,4686760.0
1574097208632,4711931.0
1574097208677,4736885.0
1574097208723,4746191.0
1574097208778,4780316.0
1574097208824,4842459.0
1574097208874,4808177.0
1574097208916,4757024.0
1574097208972,4712519.0
1574097209019,4696214.0
1574097209070,4722423.0
1574097209114,4764655.0
1574097209159,4791645.0
1574097209206,4791226.0
1574097209261,4720977.0
1574097209305,4703540.0
1574097209359,4699639.0
1574097209403,4692754.0
1574097209453,4705361.0
1574097209504,4709262.0
1574097209550,4734522.0
1574097209599,4770106.0
1574097209647,4790176.0
1574097209699,4784150.0
1574097209751,4745660.0
1574097209800,4702468.0
1574097209848,4703518.0
1574097209897,4730745.0
1574097209937,4770421.0
1574097209993,4799437.0
1574097210040,4748056.0
1574097210086,4714926.0
1574097210133,4722074.0
1574097210188,4731221.0
1574097210237,4737078.0
1574097210286,4738683.0
1574097210335,4739860.0
1574097210380,4788581.0
1574097210424,4816940.0
1574097210482,4745728.0
1574097210527,4752264.0
1574097210579,4747853.0
1574097210618,4796405.0
1574097210668,4795818.0
1574097210723,4784952.0
1574097210773,4810370.0
1574097210821,4798577.0
1574097210868,4777037.0
1574097210919,4801188.0
1574097210961,4811479.0
1574097211016,4823972.0
1574097211063,4837191.0
1574097211113,4824606.0
1574097211163,4835043.0
1574097211208,4846179.0
1574097211261,4811038.0
1574097211306,4796338.0
1574097211357,4773351.0
1574097211399,4770411.0
1574097211454,4803789.0
1574097211502,4829490.0
1574097211550,4812101.0
1574097211594,4778642.0
1574097211648,4752026.0
1574097211697,4709331.0
1574097211750,4714044.0
1574097211795,4734218.0
1574097211842,4759285.0
1574097211892,4768296.0
1574097211940,4779954.0
1574097211982,4802387.0
1574097212037,4762926.0
1574097212082,4726314.0
1574097212136,4710777.0
1574097212182,4703055.0
1574097212231,4725827.0
1574097212274,4762010.0
1574097212327,4792133.0
1574097212376,4792834.0
1574097212422,4753834.0
1574097212474,4697740.0
1574097212523,4680905.0
1574097212572,4694822.0
1574097212622,4727365.0
1574097212663,4744913.0
1574097212726,4752286.0
1574097212764,4781708.0
1574097212809,4808888.0
1574097212864,4797141.0
1574097212911,4749188.0
1574097212963,4695761.0
1574097213004,4706515.0
1574097213059,4733029.0
1574097213106,4764667.0
1574097213156,4794055.0
1574097213201,4777128.0
1574097213252,4750069.0
1574097213303,4782476.0
1574097213351,4789881.0
1574097213401,4791543.0
1574097213442,4800556.0
1574097213497,4800896.0
1574097213544,4841205.0
1574097213588,4868341.0
1574097213645,4855779.0
1574097213685,4840187.0
1574097213742,4814815.0
1574097213783,4786602.0
1574097213831,4769688.0
1574097213883,4738344.0
1574097213928,4696949.0
1574097213984,4691996.0
1574097214025,4678857.0
1574097214076,4672186.0
1574097214127,4685539.0
1574097214177,4698859.0
1574097214227,4718805.0
1574097214267,4706017.0
1574097214323,4742099.0
1574097214364,4841782.0
1574097214414,4857317.0
1574097214465,4854231.0
1574097214514,4834149.0
1574097214567,4811694.0
1574097214610,4807600.0
1574097214667,4819078.0
1574097214706,4823058.0
1574097214764,4761433.0
1574097214806,4695174.0
1574097214861,4696801.0
1574097214908,4754818.0
1574097214952,4787756.0
1574097215000,4800725.0
1574097215050,4803699.0
1574097215103,4812631.0
1574097215147,4820276.0
1574097215203,4798793.0
1574097215246,4742777.0
1574097215299,4720648.0
1574097215350,4719032.0
1574097215393,4736004.0
1574097215447,4746428.0
1574097215486,4758448.0
1574097215535,4779910.0
1574097215583,4723894.0
1574097215639,4688910.0
1574097215689,4734646.0
1574097215729,4800658.0
1574097215784,4820908.0
1574097215827,4818251.0
1574097215883,4833505.0
1574097215926,4855180.0
1574097215979,4896711.0
1574097216027,4857396.0
1574097216070,4830159.0
1574097216126,4796440.0
1574097216167,4764271.0
1574097216225,4783595.0
1574097216264,4807442.0
1574097216321,4824730.0
1574097216373,4824968.0
1574097216416,4784081.0
1574097216464,4755011.0
1574097216514,4756764.0
1574097216565,4772333.0
1574097216610,4804593.0
1574097216662,4832804.0
1574097216711,4851234.0
1574097216759,4898001.0
1574097216804,4923012.0
1574097216853,4899923.0
1574097216906,4874934.0
1574097216945,4823680.0
1574097217003,4834060.0
1574097217049,4865119.0
1574097217093,4902206.0
1574097217149,4965199.0
1574097217190,5001563.0
1574097217248,5025657.0
1574097217294,5062621.0
1574097217336,5049843.0
1574097217387,5031990.0
1574097217436,5027116.0
1574097217490,5019958.0
1574097217533,5047854.0
1574097217583,5076110.0
1574097217627,5039780.0
1574097217676,5053677.0
1574097217730,5036241.0
1574097217781,5018715.0
1574097217828,5005984.0
1574097217877,5012565.0
1574097217924,5033346.0
1574097217967,5061942.0
1574097218026,5056107.0
1574097218071,5127342.0
1574097218121,5148759.0
1574097218172,5136863.0
1574097218219,5124504.0
1574097218264,5108142.0
1574097218309,5104774.0
1574097218365,5121271.0
1574097218408,5147966.0
1574097218463,5109816.0
1574097218513,5108087.0
1574097218561,5098329.0
1574097218606,5091850.0
1574097218654,5091545.0
1574097218705,5077274.0
1574097218747,5064498.0
1574097218803,5142550.0
1574097218848,5249074.0
1574097218900,5331006.0
1574097218948,5344304.0
1574097218995,5327546.0
1574097219045,5313570.0
1574097219086,5305079.0
1574097219137,5290006.0
1574097219190,5291883.0
1574097219232,5310811.0
1574097219283,5264961.0
1574097219331,5251618.0
1574097219383,5214045.0
1574097219427,5196722.0
1574097219484,5197118.0
1574097219534,5195231.0
1574097219580,5194743.0
1574097219623,5216725.0
1574097219670,5247288.0
1574097219723,5240742.0
1574097219772,5235754.0
1574097219818,5217280.0
1574097219870,5213106.0
1574097219921,5203315.0
1574097219970,5214961.0
1574097220016,5230159.0
1574097220064,5227422.0
1574097220108,5191556.0
1574097220166,5176303.0
1574097220209,5146168.0
1574097220254,5138887.0
1574097220309,5149368.0
1574097220352,5171518.0
1574097220404,5208482.0
1574097220449,5225579.0
1574097220506,5165232.0
1574097220550,5171677.0
1574097220596,5156289.0
1574097220650,5147028.0
1574097220698,5149188.0
1574097220747,5149878.0
1574097220788,5167382.0
1574097220847,5202761.0
1574097220889,5173725.0
1574097220936,5110292.0
1574097220991,5052196.0
1574097221036,5003314.0
1574097221083,5009477.0
1574097221129,5025895.0
1574097221182,5039678.0
1574097221231,5051914.0
1574097221275,5035971.0
1574097221332,5006876.0
1574097221378,4961920.0
1574097221423,4914883.0
1574097221472,4889768.0
1574097221520,4880497.0
1574097221573,4884715.0
1574097221624,4916736.0
1574097221672,4956052.0
1574097221712,4936931.0
1574097221761,4901416.0
1574097221810,4831085.0
1574097221860,4782691.0
1574097221911,4789745.0
1574097221957,4809795.0
1574097222009,4849560.0
1574097222059,4881627.0
1574097222111,4871769.0
1574097222150,4865865.0
1574097222200,4876844.0
1574097222253,4866781.0
1574097222305,4863108.0
1574097222353,4854637.0
1574097222398,4862937.0
1574097222452,4910449.0
1574097222493,4934397.0
1574097222549,4896406.0
1574097222592,4849334.0
1574097222647,4797062.0
1574097222694,4761173.0
1574097222735,4746825.0
1574097222791,4761524.0
1574097222831,4799855.0
1574097222886,4805000.0
1574097222933,4788784.0
1574097222985,4771677.0
1574097223034,4777738.0
1574097223080,4803529.0
1574097223132,4828631.0
1574097223172,4814758.0
1574097223228,4821361.0
1574097223276,4846451.0
1574097223325,4847650.0
1574097223366,4828755.0
1574097223422,4798996.0
1574097223465,4777049.0
1574097223514,4798305.0
1574097223571,4792165.0
1574097223620,4789520.0
1574097223667,4819043.0
1574097223715,4822412.0
1574097223760,4825929.0
1574097223812,4822357.0
1574097223855,4838672.0
1574097223911,4859987.0
1574097223957,4863739.0
1574097224006,4839011.0
1574097224056,4822718.0
1574097224103,4836388.0
1574097224153,4810211.0
1574097224196,4792866.0
1574097224251,4750500.0
1574097224296,4772073.0
1574097224344,4812180.0
1574097224396,4842867.0
1574097224443,4840899.0
1574097224493,4785269.0
1574097224534,4748769.0
1574097224583,4731389.0
1574097224633,4735392.0
1574097224681,4740605.0
1574097224727,4757284.0
1574097224777,4767595.0
1574097224825,4795444.0
1574097224874,4846711.0
1574097224923,4859058.0
1574097224974,4835573.0
1574097225020,4824289.0
1574097225068,4803801.0
1574097225119,4834793.0
1574097225174,4862461.0
1574097225217,4889689.0
1574097225270,4916215.0
1574097225319,4917122.0
1574097225370,4910234.0
1574097225417,4911229.0
1574097225468,4905667.0
1574097225514,4919291.0
1574097225555,4935970.0
1574097225612,4937213.0
1574097225657,4942608.0
1574097225710,4983143.0
1574097225750,4966239.0
1574097225801,4926382.0
1574097225856,4880497.0
1574097225896,4847774.0
1574097225953,4863809.0
1574097225996,4894224.0
1574097226051,4922808.0
1574097226092,4954626.0
1574097226146,4933189.0
1574097226196,4915990.0
1574097226239,4880497.0
1574097226287,4880396.0
1574097226337,4890979.0
1574097226391,4889429.0
1574097226439,4895502.0
1574097226485,4934749.0
1574097226535,4977466.0
1574097226580,4953325.0
1574097226633,4920196.0
1574097226677,4853213.0
1574097226732,4817958.0
1574097226781,4813978.0
1574097226822,4826132.0
1574097226871,4830724.0
1574097226918,4709591.0
1574097226975,4630259.0
1574097227017,4623872.0
1574097227070,4654151.0
1574097227119,4686275.0
1574097227167,4689519.0
1574097227210,4679151.0
1574097227259,4697469.0
1574097227314,4756583.0
1574097227358,4781344.0
1574097227405,4779310.0
1574097227460,4765584.0
1574097227508,4733675.0
1574097227557,4710584.0
1574097227605,4696033.0
1574097227654,4725703.0
1574097227697,4801064.0
1574097227753,4872366.0
1574097227801,4910551.0
1574097227848,4956978.0
1574097227899,4980689.0
1574097227946,4997491.0
1574097227994,4988706.0
1574097228037,4971056.0
1574097228086,4976585.0
1574097228139,5016815.0
1574097228182,5061987.0
1574097228239,5063491.0
1574097228281,5047988.0
1574097228336,5011659.0
1574097228378,4987485.0
1574097228424,4950511.0
1574097228485,4923757.0
1574097228529,4936557.0
1574097228577,4966420.0
1574097228626,4948691.0
1574097228677,4927410.0
1574097228718,4920842.0
1574097228774,4912304.0
1574097228822,4912235.0
1574097228871,4908255.0
1574097228920,4902274.0
1574097228963,4938752.0
1574097229016,4956730.0
1574097229067,4936185.0
1574097229114,4928099.0
1574097229163,4885087.0
1574097229205,4850625.0
1574097229262,4846384.0
1574097229311,4826573.0
1574097229359,4820796.0
1574097229400,4817493.0
1574097229456,4796440.0
1574097229501,4787395.0
1574097229546,4777839.0
1574097229596,4766612.0
1574097229650,4767290.0
1574097229699,4763140.0
1574097229742,4765616.0
1574097229788,4786050.0
1574097229838,4722763.0
1574097229888,4711015.0
1574097229934,4701244.0
1574097229984,4678054.0
1574097230035,4662066.0
1574097230083,4677432.0
1574097230131,4685066.0
1574097230183,4712167.0
1574097230234,4689802.0
1574097230284,4640446.0
1574097230327,4626765.0
1574097230381,4629751.0
1574097230422,4633053.0
1574097230471,4635743.0
1574097230522,4649595.0
1574097230566,4655305.0
1574097230618,4694530.0
1574097230665,4678428.0
1574097230715,4641816.0
1574097230764,4603891.0
1574097230813,4576833.0
1574097230862,4587824.0
1574097230909,4616510.0
1574097230965,4642799.0
1574097231010,4681209.0
1574097231062,4688660.0
1574097231109,4667674.0
1574097231159,4640335.0
1574097231202,4617008.0
1574097231254,4618861.0
1574097231306,4679852.0
1574097231352,4715085.0
1574097231402,4734589.0
1574097231443,4774595.0
1574097231499,4752060.0
1574097231543,4708291.0
1574097231589,4647820.0
1574097231646,4597571.0
1574097231691,4586071.0
1574097231737,4591995.0
1574097231783,4603597.0
1574097231840,4634465.0
1574097231887,4653190.0
1574097231928,4626923.0
1574097231985,4599324.0
1574097232026,4588253.0
1574097232079,4570581.0
1574097232128,4577783.0
1574097232180,4575611.0
1574097232231,4597130.0
1574097232269,4643602.0
1574097232329,4686852.0
1574097232367,4676484.0
1574097232423,4645591.0
1574097232466,4584862.0
1574097232521,4552456.0
1574097232566,4557429.0
1574097232617,4566895.0
1574097232665,4600476.0
1574097232709,4634183.0
1574097232767,4619247.0
1574097232808,4598249.0
1574097232862,4603666.0
1574097232908,4593997.0
1574097232956,4583990.0
1574097233007,4586445.0
1574097233050,4596587.0
1574097233104,4657928.0
1574097233149,4695592.0
1574097233201,4671926.0
1574097233246,4662507.0
1574097233292,4616600.0
1574097233345,4575047.0
1574097233397,4576991.0
1574097233446,4604548.0
1574097233486,4645999.0
1574097233538,4698170.0
1574097233584,4700432.0
1574097233632,4740152.0
1574097233687,4742144.0
1574097233731,4735449.0
1574097233781,4702884.0
1574097233825,4668850.0
1574097233876,4655622.0
1574097233925,4705259.0
1574097233978,4733787.0
1574097234027,4722661.0
1574097234075,4699164.0
1574097234124,4680576.0
1574097234171,4674663.0
1574097234217,4654017.0
1574097234264,4640367.0
1574097234313,4674413.0
1574097234373,4695107.0
1574097234418,4686490.0
1574097234464,4689566.0
1574097234512,4692427.0
1574097234564,4690639.0
1574097234605,4696192.0
1574097234661,4659579.0
1574097234711,4656672.0
1574097234756,4672367.0
1574097234805,4662259.0
1574097234848,4664350.0
1574097234905,4638616.0
1574097234944,4621848.0
1574097234994,4631062.0
1574097235048,4641036.0
1574097235092,4628236.0
1574097235144,4623995.0
1574097235186,4608833.0
1574097235237,4610507.0
1574097235284,4603438.0
1574097235333,4588852.0
1574097235386,4583143.0
1574097235430,4589677.0
1574097235485,4609613.0
1574097235527,4659590.0
1574097235579,4666861.0
1574097235625,4654728.0
1574097235676,4633573.0
1574097235727,4593432.0
1574097235780,4580282.0
1574097235823,4607872.0
1574097235873,4636489.0
1574097235918,4652298.0
1574097235965,4611456.0
1574097236022,4549256.0
1574097236070,4577330.0
1574097236119,4607780.0
1574097236168,4639949.0
1574097236214,4755588.0
1574097236267,4792504.0
1574097236308,4836388.0
1574097236363,4909206.0
1574097236411,4886637.0
1574097236461,4847559.0
1574097236508,4814441.0
1574097236554,4762904.0
1574097236600,4766047.0
1574097236655,4775556.0
1574097236704,4791816.0
1574097236752,4806538.0
1574097236800,4793851.0
1574097236848,4744722.0
1574097236897,4739169.0
1574097236944,4719280.0
1574097236989,4716499.0
1574097237045,4734240.0
1574097237089,4751731.0
1574097237134,4798327.0
1574097237188,4852579.0
1574097237235,4843648.0
1574097237284,4820807.0
1574097237329,4745287.0
1574097237385,4688174.0
1574097237427,4688276.0
1574097237472,4701653.0
1574097237522,4725522.0
1574097237570,4739679.0
1574097237622,4711704.0
1574097237667,4686976.0
1574097237720,4696903.0
1574097237771,4687721.0
1574097237821,4660573.0
1574097237868,4647649.0
1574097237918,4645558.0
1574097237967,4711625.0
1574097238009,4740786.0
1574097238063,4706706.0
1574097238112,4688558.0
1574097238163,4659409.0
1574097238205,4642777.0
1574097238260,4628835.0
1574097238308,4640493.0
1574097238355,4697016.0
1574097238399,4745049.0
1574097238450,4761230.0
1574097238502,4752908.0
1574097238552,4750193.0
1574097238593,4744903.0
1574097238649,4763491.0
1574097238688,4740583.0
1574097238745,4734195.0
1574097238794,4779615.0
1574097238843,4787043.0
1574097238892,4768388.0
1574097238936,4738186.0
1574097238989,4716375.0
1574097239031,4742302.0
1574097239081,4755328.0
1574097239132,4713480.0
1574097239184,4654953.0
1574097239226,4630950.0
1574097239279,4593895.0
1574097239330,4584374.0
1574097239371,4583730.0
1574097239424,4600726.0
1574097239472,4615448.0
1574097239524,4610212.0
1574097239573,4601392.0
1574097239613,4606967.0
1574097239671,4587948.0
1574097239711,4563785.0
1574097239765,4541431.0
1574097239816,4536049.0
1574097239866,4576347.0
1574097239913,4615696.0
1574097239955,4658381.0
1574097240016,4671225.0
1574097240052,4606707.0
1574097240107,4546462.0
1574097240155,4542256.0
1574097240204,4555034.0
1574097240252,4576211.0
1574097240296,4598826.0
1574097240352,4597605.0
1574097240391,4649799.0
1574097240442,4679716.0
1574097240494,4625410.0
1574097240546,4552592.0
1574097240585,4501268.0
1574097240637,4475534.0
1574097240685,4519824.0
1574097240733,4540990.0
1574097240784,4579118.0
1574097240832,4608991.0
1574097240881,4626878.0
1574097240928,4629796.0
1574097240975,4592087.0
1574097241031,4552196.0
1574097241072,4540344.0
1574097241129,4541565.0
1574097241174,4544879.0
1574097241221,4629004.0
1574097241274,4687790.0
1574097241324,4692065.0
1574097241372,4637145.0
1574097241414,4570886.0
1574097241470,4532803.0
1574097241515,4534895.0
1574097241565,4550680.0
1574097241614,4607735.0
1574097241662,4676855.0
1574097241712,4633618.0
1574097241756,4709284.0
1574097241811,4710936.0
1574097241855,4679434.0
1574097241906,4669234.0
1574097241954,4643795.0
1574097241998,4650138.0
1574097242052,4696553.0
1574097242097,4755055.0
1574097242150,4771271.0
1574097242197,4752004.0
1574097242247,4713264.0
1574097242296,4664080.0
1574097242339,4635324.0
1574097242393,4622118.0
1574097242434,4652082.0
1574097242485,4695988.0
1574097242536,4691961.0
1574097242582,4719687.0
1574097242635,4764157.0
1574097242684,4769292.0
1574097242733,4779209.0
1574097242775,4753936.0
1574097242831,4766466.0
1574097242876,4845129.0
1574097242921,4913310.0
1574097242977,4998113.0
1574097243021,5023193.0
1574097243074,5017291.0
1574097243116,5010393.0
1574097243172,4995490.0
1574097243216,4971180.0
1574097243270,5051765.0
1574097243317,5188841.0
1574097243367,5338412.0
1574097243413,5454717.0
1574097243456,5515335.0
1574097243512,5543862.0
1574097243555,5558381.0
1574097243603,5543421.0
1574097243648,5518795.0
1574097243699,5539860.0
1574097243747,5639645.0
1574097243799,5730893.0
1574097243847,5758890.0
1574097243898,5733595.0
1574097243950,5670684.0
1574097243998,5629886.0
1574097244043,5622786.0
1574097244088,5631357.0
1574097244141,5686365.0
1574097244190,5720208.0
1574097244235,5740436.0
1574097244291,5751631.0
1574097244338,5744067.0
1574097244386,5730464.0
1574097244434,5715606.0
1574097244478,5709285.0
1574097244533,5703688.0
1574097244577,5755589.0
1574097244622,5770095.0
1574097244680,5726472.0
1574097244726,5683437.0
1574097244776,5611920.0
1574097244817,5560179.0
1574097244874,5536727.0
1574097244918,5525036.0
1574097244962,5523837.0
1574097245011,5481719.0
1574097245060,5445140.0
1574097245107,5436367.0
1574097245159,5416013.0
1574097245211,5400850.0
1574097245258,5394031.0
1574097245304,5383314.0
1574097245360,5424379.0
1574097245407,5426958.0
1574097245457,5359173.0
1574097245506,5317959.0
1574097245554,5255848.0
1574097245597,5217913.0
1574097245653,5223318.0
1574097245699,5242246.0
1574097245750,5339316.0
1574097245799,5472583.0
1574097245845,5523013.0
1574097245896,5542257.0
1574097245937,5493636.0
1574097245993,5459523.0
1574097246040,5433969.0
1574097246084,5413558.0
1574097246138,5422175.0
1574097246181,5483154.0
1574097246229,5476969.0
1574097246278,5424256.0
1574097246333,5327343.0
1574097246380,5219031.0
1574097246430,5184365.0
1574097246479,5192653.0
1574097246521,5206198.0
1574097246574,5237587.0
1574097246618,5227818.0
1574097246674,5179672.0
1574097246721,5135439.0
1574097246764,5092551.0
1574097246820,5077105.0
1574097246868,5070128.0
1574097246917,5062790.0
1574097246960,5106188.0
1574097247014,5061942.0
1574097247061,4982556.0
1574097247111,4946169.0
1574097247161,4908550.0
1574097247201,4853790.0
1574097247257,4791905.0
1574097247303,4757069.0
1574097247351,4770354.0
1574097247405,4788876.0
1574097247450,4772480.0
1574097247492,4783685.0
1574097247544,4781277.0
1574097247591,4791363.0
1574097247641,4801720.0
1574097247695,4788197.0
1574097247742,4812529.0
1574097247791,4854694.0
1574097247842,4750216.0
1574097247884,4728484.0
1574097247939,4693987.0
1574097247981,4662938.0
1574097248036,4698656.0
1574097248079,4698802.0
1574097248131,4654965.0
1574097248183,4537248.0
1574097248223,4519608.0
1574097248280,4478224.0
1574097248320,4456480.0
1574097248378,4470095.0
1574097248422,4509251.0
1574097248468,4541431.0
1574097248523,4557486.0
1574097248564,4566341.0
1574097248620,4592902.0
1574097248664,4592607.0
1574097248709,4558234.0
1574097248762,4518625.0
1574097248809,4481322.0
1574097248859,4485959.0
1574097248906,4506526.0
1574097248953,4495908.0
1574097249003,4450860.0
1574097249059,4490311.0
1574097249108,4546056.0
1574097249153,4537360.0
1574097249206,4525409.0
1574097249245,4539509.0
1574097249302,4582261.0
1574097249350,4594878.0
1574097249399,4621179.0
1574097249444,4655632.0
1574097249488,4637665.0
1574097249536,4588706.0
1574097249584,4548859.0
1574097249633,4559398.0
1574097249682,4610846.0
1574097249731,4645514.0
1574097249785,4691545.0
1574097249829,4728779.0
1574097249882,4738220.0
1574097249928,4714916.0
1574097249984,4669291.0
1574097250024,4653212.0
1574097250074,4668793.0
1574097250122,4701190.0
1574097250174,4717086.0
1574097250223,4768296.0
1574097250267,4817924.0
1574097250324,4776212.0
1574097250366,4699335.0
1574097250420,4641328.0
1574097250467,4642505.0
1574097250516,4673351.0
1574097250568,4696147.0
1574097250612,4713955.0
1574097250664,4758538.0
1574097250706,4752150.0
1574097250763,4690740.0
1574097250807,4647176.0
1574097250856,4634116.0
1574097250903,4641509.0
1574097250949,4661613.0
1574097251005,4682386.0
1574097251046,4731548.0
1574097251096,4756073.0
1574097251148,4726540.0
1574097251196,4627262.0
1574097251247,4549605.0
1574097251289,4551686.0
1574097251338,4592595.0
1574097251385,4638965.0
1574097251443,4687384.0
1574097251488,4737202.0
1574097251536,4772356.0
1574097251585,4786716.0
1574097251632,4798543.0
1574097251678,4805057.0
1574097251726,4828259.0
1574097251785,4853315.0
1574097251823,4895977.0
1574097251871,4943648.0
1574097251927,4944258.0
1574097251974,4923113.0
1574097252023,4890640.0
1574097252067,4862632.0
1574097252123,4875024.0
1574097252164,4890380.0
1574097252220,4912168.0
1574097252271,4946824.0
1574097252310,4974571.0
1574097252365,4984218.0
1574097252414,4964419.0
1574097252464,4973035.0
1574097252507,4980419.0
1574097252552,4967968.0
1574097252610,4948882.0
1574097252657,4959591.0
1574097252704,5007544.0
1574097252748,4976156.0
1574097252804,4943262.0
1574097252845,4904084.0
1574097252901,4880678.0
1574097252948,4878711.0
1574097252998,4843524.0
1574097253044,4825646.0
1574097253089,4865084.0
1574097253146,4893104.0
1574097253185,4867980.0
1574097253243,4861964.0
1574097253283,4873114.0
1574097253331,4893456.0
1574097253381,4887688.0
1574097253434,4853010.0
1574097253487,4873035.0
1574097253526,4903846.0
1574097253577,4903529.0
1574097253631,4889270.0
1574097253681,4845738.0
1574097253727,4837993.0
1574097253768,4851472.0
1574097253823,4844472.0
1574097253867,4819902.0
1574097253923,4812111.0
1574097253973,4804286.0
1574097254020,4799085.0
1574097254067,4803021.0
1574097254114,4816611.0
1574097254164,4835789.0
1574097254211,4844879.0
1574097254260,4859103.0
1574097254314,4847707.0
1574097254359,4783516.0
1574097254403,4774448.0
1574097254454,4766443.0
1574097254503,4748316.0
1574097254549,4764858.0
1574097254604,4778733.0
1574097254653,4791397.0
1574097254700,4807249.0
1574097254743,4729071.0
1574097254790,4647310.0
1574097254841,4651461.0
1574097254888,4673011.0
1574097254937,4719032.0
1574097254988,4757938.0
1574097255042,4760608.0
1574097255085,4810394.0
1574097255137,4838875.0
1574097255187,4772130.0
1574097255234,4711184.0
1574097255283,4623825.0
1574097255329,4616974.0
1574097255384,4660404.0
1574097255432,4686976.0
1574097255476,4688117.0
1574097255530,4676461.0
1574097255575,4663899.0
1574097255623,4600431.0
1574097255671,4541476.0
1574097255723,4535212.0
1574097255769,4525647.0
1574097255820,4561558.0
1574097255867,4585100.0
1574097255914,4660043.0
1574097255962,4697140.0
1574097256012,4716407.0
1574097256064,4678406.0
1574097256111,4589112.0
1574097256160,4554546.0
1574097256210,4573305.0
1574097256252,4606039.0
1574097256304,4641487.0
1574097256352,4655225.0
1574097256406,4643139.0
1574097256452,4619891.0
1574097256502,4629571.0
1574097256551,4618217.0
1574097256593,4609172.0
1574097256647,4610777.0
1574097256688,4615300.0
1574097256746,4671746.0
1574097256791,4718466.0
1574097256842,4681571.0
1574097256891,4662678.0
1574097256935,4616962.0
1574097256989,4559715.0
1574097257030,4542652.0
1574097257081,4549843.0
1574097257132,4583844.0
1574097257175,4619349.0
1574097257230,4631401.0
1574097257278,4620208.0
1574097257330,4636105.0
1574097257370,4660969.0
1574097257423,4645276.0
1574097257472,4628484.0
1574097257524,4631990.0
1574097257572,4698463.0
1574097257612,4763129.0
1574097257670,4746621.0
1574097257712,4753314.0
1574097257765,4727456.0
1574097257813,4723080.0
1574097257864,4714463.0
1574097257912,4710946.0
1574097257953,4749752.0
1574097258001,4791318.0
1574097258051,4817832.0
1574097258105,4840561.0
1574097258154,4857317.0
1574097258204,4864893.0
1574097258248,4874707.0
1574097258299,4859229.0
1574097258347,4868636.0
1574097258391,4942110.0
1574097258440,5001709.0
1574097258494,5058596.0
1574097258545,5043523.0
1574097258587,4998408.0
1574097258642,4950410.0
1574097258687,4932136.0
1574097258731,4913288.0
1574097258788,4901471.0
1574097258834,4962373.0
1574097258886,4971678.0
1574097258933,4986229.0
1574097258980,5010190.0
1574097259031,5020253.0
