time,value,value2,value3
1577366235974,7605519.0,5964690.0,0.0
1577366236019,7606755.0,5962475.0,0.0
1577366236063,7610650.0,5962022.0,0.0
1577366236115,7604688.0,5960246.0,0.0
1577366236160,7594686.0,5951518.0,0.0
1577366236215,7601564.0,5954208.0,0.0
1577366236264,7600590.0,5948464.0,0.0
1577366236312,7598845.0,5947278.0,0.0
1577366236360,7596549.0,5944846.0,0.0
1577366236410,7585731.0,5940187.0,0.0
1577366236458,7582273.0,5937611.0,0.0
1577366236507,7590355.0,5939815.0,0.0
1577366236559,7592769.0,5938039.0,0.0
1577366236601,7589135.0,5932296.0,0.0
1577366236658,7588668.0,5935766.0,0.0
1577366236706,7594119.0,5930634.0,0.0
1577366236751,7595893.0,5930894.0,0.0
1577366236801,7597769.0,5934569.0,0.0
1577366236849,7594425.0,5927513.0,0.0
1577366236899,7561759.0,5922436.0,0.0
1577366236941,7557297.0,5918886.0,0.0
1577366236997,7552222.0,5924608.0,0.0
1577366237042,7559055.0,5923521.0,0.0
1577366237090,7555523.0,5920954.0,0.0
1577366237142,7547047.0,5916568.0,0.0
1577366237191,7545477.0,5911604.0,0.0
1577366237233,7544576.0,5914487.0,0.0
1577366237285,7550014.0,5911478.0,0.0
1577366237337,7544824.0,5911027.0,0.0
1577366237383,7506384.0,5901177.0,0.0
1577366237433,7482514.0,5898126.0,0.0
1577366237479,7483415.0,5897593.0,0.0
1577366237527,7491092.0,5896135.0,0.0
1577366237580,7490045.0,5892721.0,0.0
1577366237626,7484666.0,5888922.0,0.0
1577366237681,7476380.0,5889633.0,0.0
1577366237723,7474970.0,5886445.0,0.0
1577366237779,7473008.0,5885031.0,0.0
1577366237825,7465432.0,5878631.0,0.0
1577366237876,7416484.0,5867708.0,0.0
1577366237921,7352359.0,5864362.0,0.0
1577366237966,7367855.0,5911694.0,0.0
1577366238012,7494319.0,5989735.0,0.0
1577366238064,7478285.0,6024551.0,0.0
1577366238114,7506050.0,6081470.0,0.0
1577366238161,7455446.0,6074154.0,0.0
1577366238222,7309050.0,5938470.0,0.0
1577366238315,7166014.0,5868409.0,0.0
1577366238315,7040509.0,5777342.0,0.0
1577366238407,6963678.0,5754571.0,0.0
1577366238407,6929630.0,5744463.0,0.0
1577366238452,6976950.0,5793615.0,0.0
1577366238501,7094313.0,5844971.0,0.0
1577366238550,7143379.0,5856934.0,0.0
1577366238606,7243470.0,5919169.0,0.0
1577366238648,7306767.0,5983947.0,0.0
1577366238697,7426601.0,6004707.0,0.0
1577366238746,7487284.0,6054119.0,0.0
1577366238794,7492370.0,6086005.0,0.0
1577366238845,7530691.0,6106053.0,0.0
1577366238893,7548645.0,6114261.0,0.0
1577366238944,7538353.0,6103192.0,0.0
1577366238990,7587868.0,6140956.0,0.0
1577366239038,7435760.0,6070276.0,0.0
1577366239088,7363377.0,6033844.0,0.0
1577366239136,7362301.0,6064893.0,0.0
1577366239185,7331265.0,6049980.0,0.0
1577366239233,7533701.0,6112101.0,0.0
1577366239286,7532975.0,6120118.0,0.0
1577366239332,7573869.0,6125500.0,0.0
1577366239385,7631832.0,6120899.0,0.0
1577366239431,7730194.0,6127717.0,0.0
1577366239479,7784521.0,6115764.0,0.0
1577366239528,7832118.0,6084817.0,0.0
1577366239583,7881197.0,6131380.0,0.0
1577366239623,7970779.0,6171643.0,0.0
1577366239680,8041519.0,6221464.0,0.0
1577366239735,8082748.0,6239804.0,0.0
1577366239778,8070319.0,6241058.0,0.0
1577366239826,8065099.0,6238819.0,0.0
1577366239874,8054209.0,6231188.0,0.0
1577366239924,8055126.0,6236310.0,0.0
1577366239967,8064969.0,6242304.0,0.0
1577366240024,8056317.0,6244020.0,0.0
1577366240065,8035631.0,6237779.0,0.0
1577366240117,8038363.0,6240991.0,0.0
1577366240167,8046142.0,6251406.0,0.0
1577366240215,8062017.0,6269915.0,0.0
1577366240265,8089566.0,6277308.0,0.0
1577366240311,8113363.0,6290415.0,0.0
1577366240359,8136116.0,6310450.0,0.0
1577366240405,8147688.0,6333403.0,0.0
1577366240461,8153968.0,6360756.0,0.0
1577366240505,8170365.0,6390414.0,0.0
1577366240558,8162327.0,6390211.0,0.0
1577366240600,8186895.0,6407216.0,0.0
1577366240653,8191344.0,6427546.0,0.0
1577366240704,8188102.0,6431120.0,0.0
1577366240746,8174960.0,6431945.0,0.0
1577366240803,8170934.0,6441376.0,0.0
1577366240849,8142571.0,6439486.0,0.0
1577366240893,8130575.0,6434897.0,0.0
1577366240949,8141596.0,6435902.0,0.0
1577366240996,8132380.0,6437260.0,0.0
1577366241046,8142017.0,6443942.0,0.0
1577366241091,8147644.0,6455476.0,0.0
1577366241143,8156598.0,6458528.0,0.0
1577366241186,8170540.0,6472492.0,0.0
1577366241234,8192057.0,6498330.0,0.0
1577366241289,8204559.0,6512123.0,0.0
1577366241337,8211492.0,6529084.0,0.0
1577366241388,8180832.0,6534048.0,0.0
1577366241432,8100861.0,6499234.0,0.0
1577366241484,8024568.0,6460993.0,0.0
1577366241527,7942619.0,6409636.0,0.0
1577366241582,7984966.0,6416997.0,0.0
1577366241626,8020221.0,6426280.0,0.0
1577366241680,8008066.0,6440234.0,0.0
1577366241729,7969034.0,6436467.0,0.0
1577366241777,7842802.0,6392212.0,0.0
1577366241827,7829065.0,6369836.0,0.0
1577366241872,7776438.0,6366941.0,0.0
1577366241925,7656197.0,6307262.0,0.0
1577366241966,7537264.0,6264758.0,0.0
1577366242022,7407558.0,6212689.0,0.0
1577366242070,7231171.0,6090798.0,0.0
1577366242117,7124973.0,5988504.0,0.0
1577366242168,7069659.0,5916001.0,0.0
1577366242211,7018281.0,5868682.0,0.0
1577366242265,6921359.0,5832771.0,0.0
1577366242308,6878356.0,5790279.0,0.0
1577366242363,6853046.0,5735665.0,0.0
1577366242409,6828230.0,5710474.0,0.0
1577366242458,6762984.0,5661218.0,0.0
1577366242510,6689569.0,5603360.0,0.0
1577366242551,6626985.0,5553576.0,0.0
1577366242600,6573703.0,5509185.0,0.0
1577366242648,6528070.0,5482589.0,0.0
1577366242705,6491885.0,5453281.0,0.0
1577366242750,6410997.0,5401494.0,0.0
1577366242800,6324106.0,5336626.0,0.0
1577366242852,6276756.0,5300386.0,0.0
1577366242893,6224974.0,5268376.0,0.0
1577366242948,6163087.0,5233641.0,0.0
1577366242990,6087011.0,5174607.0,0.0
1577366243046,6005715.0,5113650.0,0.0
1577366243089,5932648.0,5058222.0,0.0
1577366243142,5878394.0,5019394.0,0.0
1577366243190,5770075.0,4949788.0,0.0
1577366243235,5650371.0,4855338.0,0.0
1577366243290,5565063.0,4780383.0,0.0
1577366243331,5503190.0,4723565.0,0.0
1577366243379,5444675.0,4672536.0,0.0
1577366243429,5392078.0,4631040.0,0.0
1577366243475,5317138.0,4564226.0,0.0
1577366243530,5280459.0,4527036.0,0.0
1577366243576,5253258.0,4500713.0,0.0
1577366243623,5196705.0,4447321.0,0.0
1577366243672,5087864.0,4347377.0,0.0
1577366243723,5009475.0,4267877.0,0.0
1577366243773,4961342.0,4209590.0,0.0
1577366243820,4928574.0,4161863.0,0.0
1577366243872,4887068.0,4116634.0,0.0
1577366243918,4837697.0,4061907.0,0.0
1577366243972,4808390.0,4013931.0,0.0
1577366244017,4781249.0,3979355.0,0.0
1577366244069,4762655.0,3949153.0,0.0
1577366244118,4714273.0,3901482.0,0.0
1577366244167,4635334.0,3823045.0,0.0
1577366244210,4582838.0,3765095.0,0.0
1577366244264,4336422.0,3735936.0,0.0
1577366244310,4216196.0,3714824.0,0.0
1577366244359,4198820.0,3690130.0,0.0
1577366244412,4175443.0,3663591.0,0.0
1577366244452,4164857.0,3645297.0,0.0
1577366244509,4154416.0,3631581.0,0.0
1577366244553,4152529.0,3546526.0,0.0
1577366244599,4086164.0,3492425.0,0.0
1577366244655,4024933.0,3433910.0,0.0
1577366244697,4004033.0,3405915.0,0.0
1577366244752,4004043.0,3398298.0,0.0
1577366244793,3992868.0,3388525.0,0.0
1577366244850,3977447.0,3371203.0,0.0
1577366244892,3967971.0,3355020.0,0.0
1577366244947,3965051.0,3349843.0,0.0
1577366244993,3970350.0,3349751.0,0.0
1577366245043,3961171.0,3342301.0,0.0
1577366245091,3918549.0,3319214.0,0.0
1577366245134,3897069.0,3306069.0,0.0
1577366245193,3898552.0,3298232.0,0.0
1577366245233,3908705.0,3297420.0,0.0
1577366245288,3892293.0,3269459.0,0.0
1577366245333,3885683.0,3247402.0,0.0
1577366245384,3906663.0,3241472.0,0.0
1577366245434,3927852.0,3220851.0,0.0
1577366245479,3939112.0,3209577.0,0.0
1577366245532,3944362.0,3222916.0,0.0
1577366245576,3904650.0,3185282.0,0.0
1577366245623,3887254.0,3162294.0,0.0
1577366245672,3901895.0,3178871.0,0.0
1577366245728,3921832.0,3193628.0,0.0
1577366245776,3921832.0,3170442.0,0.0
1577366245824,3926312.0,3152841.0,0.0
1577366245870,3932160.0,3157648.0,0.0
1577366245921,3934336.0,3154259.0,0.0
1577366245971,3953001.0,3151876.0,0.0
1577366246013,3944151.0,3129795.0,0.0
1577366246069,3925022.0,3102313.0,0.0
1577366246112,3987283.0,3146632.0,0.0
1577366246163,3989093.0,3142111.0,0.0
1577366246211,4068412.0,3224878.0,0.0
1577366246262,4070550.0,3272746.0,0.0
1577366246312,4096394.0,3286497.0,0.0
1577366246354,4126888.0,3281245.0,0.0
1577366246409,4120137.0,3262947.0,0.0
1577366246452,4104986.0,3252378.0,0.0
1577366246507,4019742.0,3180944.0,0.0
1577366246558,3962991.0,3119837.0,0.0
1577366246598,3951162.0,3099830.0,0.0
1577366246647,3966159.0,3104678.0,0.0
1577366246700,4064012.0,3144157.0,0.0
1577366246746,4078843.0,3186346.0,0.0
1577366246795,4028556.0,3152170.0,0.0
1577366246850,3998831.0,3132548.0,0.0
1577366246891,3999890.0,3132220.0,0.0
1577366246947,3999890.0,3126196.0,0.0
1577366246997,3914975.0,3036005.0,0.0
1577366247042,3877680.0,3003950.0,0.0
1577366247089,3867633.0,2996727.0,0.0
1577366247138,3871333.0,2994730.0,0.0
1577366247192,3880175.0,2996266.0,0.0
1577366247233,3892658.0,3003414.0,0.0
1577366247289,3942397.0,3052019.0,0.0
1577366247339,3991799.0,3097045.0,0.0
1577366247387,4006085.0,3121432.0,0.0
1577366247436,3913752.0,3049864.0,0.0
1577366247481,3836359.0,2996055.0,0.0
1577366247531,3835308.0,2985537.0,0.0
1577366247574,3855372.0,2982877.0,0.0
1577366247624,3841781.0,2955326.0,0.0
1577366247674,3837100.0,2955101.0,0.0
1577366247730,3834028.0,2953171.0,0.0
1577366247779,3846385.0,2964756.0,0.0
1577366247819,3872826.0,3000360.0,0.0
1577366247871,3826236.0,2971676.0,0.0
1577366247923,3750721.0,2914119.0,0.0
1577366247971,3696993.0,2860958.0,0.0
1577366248015,3695453.0,2856921.0,0.0
1577366248071,3722103.0,2887667.0,0.0
1577366248115,3757155.0,2909748.0,0.0
1577366248168,3760237.0,2913885.0,0.0
1577366248215,3747340.0,2891477.0,0.0
1577366248265,3750076.0,2899571.0,0.0
1577366248311,3716238.0,2888834.0,0.0
1577366248361,3637160.0,2838928.0,0.0
1577366248412,3597121.0,2813114.0,0.0
1577366248451,3601993.0,2817477.0,0.0
1577366248509,3625216.0,2836158.0,0.0
1577366248560,3625697.0,2839724.0,0.0
1577366248600,3602291.0,2823139.0,0.0
1577366248651,3603102.0,2826839.0,0.0
1577366248695,3622326.0,2850035.0,0.0
1577366248748,3629194.0,2858449.0,0.0
1577366248796,3544519.0,2790481.0,0.0
1577366248843,3475998.0,2736219.0,0.0
1577366248897,3453045.0,2716202.0,0.0
1577366248941,3454441.0,2719902.0,0.0
1577366248995,3469659.0,2736018.0,0.0
1577366249045,3483048.0,2746453.0,0.0
1577366249089,3499857.0,2763509.0,0.0
1577366249136,3520709.0,2777602.0,0.0
1577366249192,3535869.0,2788878.0,0.0
1577366249236,3468359.0,2737863.0,0.0
1577366249289,3391179.0,2672479.0,0.0
1577366249337,3357958.0,2643108.0,0.0
1577366249387,3334840.0,2613528.0,0.0
1577366249432,3360867.0,2637746.0,0.0
1577366249481,3403093.0,2647352.0,0.0
1577366249531,3429619.0,2667956.0,0.0
1577366249579,3437576.0,2679887.0,0.0
1577366249623,3453488.0,2690456.0,0.0
1577366249680,3446341.0,2689282.0,0.0
1577366249729,3383982.0,2642651.0,0.0
1577366249775,3345753.0,2613422.0,0.0
1577366249825,3347864.0,2610423.0,0.0
1577366249871,3373505.0,2624412.0,0.0
1577366249921,3394039.0,2633902.0,0.0
1577366249972,3423859.0,2651379.0,0.0
1577366250019,3462397.0,2679507.0,0.0
1577366250069,3511627.0,2708514.0,0.0
1577366250115,3531286.0,2723984.0,0.0
1577366250167,3503804.0,2697545.0,0.0
1577366250212,3438837.0,2650725.0,0.0
1577366250264,3430909.0,2649065.0,0.0
1577366250311,3442681.0,2659441.0,0.0
1577366250359,3460855.0,2665823.0,0.0
1577366250411,3489655.0,2688022.0,0.0
1577366250458,3523744.0,2718043.0,0.0
1577366250508,3551975.0,2737668.0,0.0
1577366250555,3563918.0,2739728.0,0.0
1577366250599,3572713.0,2736233.0,0.0
1577366250649,3545888.0,2706098.0,0.0
1577366250695,3491015.0,2658860.0,0.0
1577366250751,3482731.0,2650292.0,0.0
1577366250797,3484397.0,2646292.0,0.0
1577366250849,3478020.0,2642283.0,0.0
1577366250899,3491159.0,2661861.0,0.0
1577366250945,3485072.0,2656294.0,0.0
1577366250994,3477461.0,2640349.0,0.0
1577366251037,3490716.0,2650485.0,0.0
1577366251091,3508486.0,2683773.0,0.0
1577366251139,3444935.0,2645298.0,0.0
1577366251192,3399568.0,2610570.0,0.0
1577366251239,3363352.0,2578801.0,0.0
1577366251289,3364941.0,2577714.0,0.0
1577366251335,3383212.0,2607869.0,0.0
1577366251379,3387229.0,2622352.0,0.0
1577366251431,3384783.0,2617671.0,0.0
1577366251479,3383877.0,2615064.0,0.0
1577366251531,3390793.0,2612429.0,0.0
1577366251582,3357196.0,2596853.0,0.0
1577366251622,3309431.0,2567338.0,0.0
1577366251679,3286682.0,2555416.0,0.0
1577366251719,3285871.0,2552602.0,0.0
1577366251768,3298171.0,2557143.0,0.0
1577366251817,3305752.0,2566625.0,0.0
1577366251867,3323166.0,2576654.0,0.0
1577366251919,3331480.0,2578275.0,0.0
1577366251965,3341149.0,2587184.0,0.0
1577366252020,3363612.0,2607349.0,0.0
1577366252065,3335564.0,2591345.0,0.0
1577366252114,3314421.0,2574327.0,0.0
1577366252157,3328898.0,2580329.0,0.0
1577366252211,3354538.0,2595386.0,0.0
1577366252263,3367956.0,2597786.0,0.0
1577366252311,3394395.0,2621458.0,0.0
1577366252361,3429022.0,2651046.0,0.0
1577366252408,3472231.0,2683353.0,0.0
1577366252458,3507167.0,2704105.0,0.0
1577366252498,3530573.0,2722184.0,0.0
1577366252556,3491900.0,2683454.0,0.0
1577366252599,3461481.0,2653153.0,0.0
1577366252650,3478781.0,2662469.0,0.0
1577366252699,3519120.0,2699485.0,0.0
1577366252749,3548602.0,2727897.0,0.0
1577366252799,3570352.0,2735219.0,0.0
1577366252842,3575304.0,2731885.0,0.0
1577366252899,3602245.0,2750283.0,0.0
1577366252937,3649210.0,2796442.0,0.0
1577366252996,3646860.0,2799382.0,0.0
1577366253039,3610788.0,2767601.0,0.0
1577366253091,3605548.0,2760185.0,0.0
1577366253140,3634338.0,2783591.0,0.0
1577366253187,3689510.0,2826975.0,0.0
1577366253238,3745962.0,2867072.0,0.0
1577366253287,3790193.0,2897666.0,0.0
1577366253336,3824877.0,2925147.0,0.0
1577366253380,3868192.0,2960162.0,0.0
1577366253433,3896068.0,2986808.0,0.0
1577366253482,3882091.0,2981707.0,0.0
1577366253525,3810921.0,2909336.0,0.0
1577366253583,3825976.0,2931947.0,0.0
1577366253627,3973672.0,3031446.0,0.0
1577366253678,4211352.0,3135971.0,0.0
1577366253718,4452603.0,3226626.0,0.0
1577366253776,4679562.0,3306798.0,0.0
1577366253822,4856588.0,3398369.0,0.0
1577366253872,4991128.0,3477888.0,0.0
1577366253921,5056759.0,3531788.0,0.0
1577366253969,5097090.0,3591868.0,0.0
1577366254019,5183920.0,3683224.0,0.0
1577366254059,5252963.0,3759364.0,0.0
1577366254111,5333294.0,3836716.0,0.0
1577366254163,5419692.0,3907518.0,0.0
1577366254212,5484795.0,3968914.0,0.0
1577366254257,5541837.0,4017253.0,0.0
1577366254310,5605514.0,4056348.0,0.0
1577366254359,5641016.0,4124623.0,0.0
1577366254400,5707005.0,4146610.0,0.0
1577366254458,5788462.0,4157549.0,0.0
1577366254499,5852304.0,4181376.0,0.0
1577366254553,5954237.0,4185939.0,0.0
1577366254596,5913773.0,4169949.0,0.0
1577366254653,5893677.0,4162104.0,0.0
1577366254701,5865839.0,4144916.0,0.0
1577366254744,5839149.0,4144195.0,0.0
1577366254798,5851361.0,4168104.0,0.0
1577366254840,5835425.0,4153246.0,0.0
1577366254896,5816433.0,4144790.0,0.0
1577366254942,5743752.0,4133851.0,0.0
1577366254992,5605016.0,4108674.0,0.0
1577366255042,5451689.0,4020522.0,0.0
1577366255085,5366608.0,3955882.0,0.0
1577366255140,5296179.0,3895657.0,0.0
1577366255180,5237237.0,3848610.0,0.0
1577366255237,5178698.0,3800734.0,0.0
1577366255284,5113967.0,3748268.0,0.0
1577366255335,5041377.0,3690014.0,0.0
1577366255383,4976691.0,3633596.0,0.0
1577366255429,4914958.0,3585804.0,0.0
1577366255482,4815320.0,3519439.0,0.0
1577366255522,4721577.0,3455353.0,0.0
1577366255583,4668508.0,3413306.0,0.0
1577366255623,4644391.0,3395783.0,0.0
1577366255676,4620378.0,3383927.0,0.0
1577366255724,4602132.0,3379380.0,0.0
1577366255772,4582026.0,3376637.0,0.0
1577366255822,4569044.0,3376294.0,0.0
1577366255865,4558600.0,3383549.0,0.0
1577366255919,4549419.0,3394104.0,0.0
1577366255961,4523798.0,3397032.0,0.0
1577366256019,4466741.0,3365857.0,0.0
1577366256064,4419014.0,3333829.0,0.0
1577366256111,4393152.0,3314104.0,0.0
1577366256164,4364806.0,3289709.0,0.0
1577366256214,4344493.0,3278140.0,0.0
1577366256254,4322869.0,3266438.0,0.0
1577366256304,4315676.0,3264132.0,0.0
1577366256359,4316849.0,3268668.0,0.0
1577366256402,4348366.0,3287302.0,0.0
1577366256458,4316436.0,3260692.0,0.0
1577366256505,4256518.0,3217160.0,0.0
1577366256553,4232551.0,3199618.0,0.0
1577366256596,4256140.0,3219074.0,0.0
1577366256644,4269122.0,3233310.0,0.0
1577366256701,4248371.0,3226061.0,0.0
1577366256742,4224072.0,3219291.0,0.0
1577366256798,4196440.0,3202990.0,0.0
1577366256844,4167372.0,3181598.0,0.0
1577366256897,4126100.0,3154543.0,0.0
1577366256944,4047628.0,3105273.0,0.0
1577366256993,3993203.0,3063856.0,0.0
1577366257041,3974428.0,3046046.0,0.0
1577366257082,3971084.0,3045636.0,0.0
1577366257140,3959227.0,3039177.0,0.0
1577366257186,3941431.0,3027943.0,0.0
1577366257237,3925070.0,3018120.0,0.0
1577366257286,3925196.0,3019377.0,0.0
1577366257332,3929884.0,3026675.0,0.0
1577366257382,3911754.0,3016216.0,0.0
1577366257425,3856053.0,2972633.0,0.0
1577366257480,3827420.0,2949873.0,0.0
1577366257523,3829718.0,2948994.0,0.0
1577366257578,3827375.0,2947139.0,0.0
1577366257627,3825606.0,2948463.0,0.0
1577366257677,3827937.0,2948967.0,0.0
1577366257724,3830868.0,2952667.0,0.0
1577366257770,3842345.0,2959530.0,0.0
1577366257821,3861497.0,2974973.0,0.0
1577366257863,3864256.0,2975587.0,0.0
1577366257920,3820308.0,2936677.0,0.0
1577366257965,3788494.0,2912140.0,0.0
1577366258016,3775706.0,2899649.0,0.0
1577366258066,3782967.0,2904212.0,0.0
1577366258109,3792551.0,2912006.0,0.0
1577366258163,3797398.0,2913322.0,0.0
1577366258204,3800718.0,2916601.0,0.0
1577366258254,3810657.0,2919773.0,0.0
1577366258306,3826237.0,2927634.0,0.0
1577366258358,3820859.0,2927004.0,0.0
1577366258407,3770547.0,2887517.0,0.0
1577366258456,3729771.0,2853432.0,0.0
1577366258504,3725945.0,2850805.0,0.0
1577366258551,3736458.0,2857593.0,0.0
1577366258596,3744914.0,2867006.0,0.0
1577366258644,3742261.0,2866226.0,0.0
1577366258700,3752590.0,2866176.0,0.0
1577366258746,3749613.0,2869178.0,0.0
1577366258796,3765710.0,2876259.0,0.0
1577366258846,3762758.0,2875026.0,0.0
1577366258891,3707963.0,2832946.0,0.0
1577366258942,3666017.0,2802241.0,0.0
1577366258985,3658157.0,2796143.0,0.0
1577366259041,3584763.0,2805640.0,0.0
1577366259088,3589873.0,2808634.0,0.0
1577366259138,3585946.0,2808836.0,0.0
1577366259187,3586753.0,2808206.0,0.0
1577366259234,3594471.0,2811914.0,0.0
1577366259283,3607373.0,2818919.0,0.0
1577366259329,3607222.0,2818692.0,0.0
1577366259375,3556920.0,2776781.0,0.0
1577366259426,3524715.0,2747142.0,0.0
1577366259473,3526643.0,2745933.0,0.0
1577366259522,3547692.0,2759608.0,0.0
1577366259571,3558137.0,2764222.0,0.0
1577366259619,3563958.0,2766486.0,0.0
1577366259669,3563564.0,2764818.0,0.0
1577366259716,3580225.0,2775572.0,0.0
1577366259767,3599595.0,2786041.0,0.0
1577366259814,3608866.0,2791747.0,0.0
1577366259862,3569546.0,2754726.0,0.0
1577366259912,3538423.0,2728701.0,0.0
1577366259960,3546802.0,2733651.0,0.0
1577366260010,3573975.0,2748860.0,0.0
1577366260057,3590377.0,2763761.0,0.0
1577366260109,3599252.0,2769416.0,0.0
1577366260155,3603523.0,2768089.0,0.0
1577366260206,3619033.0,2776311.0,0.0
1577366260252,3637942.0,2790269.0,0.0
1577366260308,3652994.0,2801058.0,0.0
1577366260357,3614604.0,2770976.0,0.0
1577366260405,3579940.0,2739624.0,0.0
1577366260447,3581265.0,2740219.0,0.0
1577366260502,3605737.0,2758718.0,0.0
1577366260548,3625409.0,2775513.0,0.0
1577366260595,3635829.0,2778969.0,0.0
1577366260650,3637757.0,2780690.0,0.0
1577366260696,3645819.0,2789197.0,0.0
1577366260738,3662053.0,2800270.0,0.0
1577366260789,3669386.0,2807753.0,0.0
1577366260836,3626156.0,2773341.0,0.0
1577366260887,3591812.0,2747016.0,0.0
1577366260936,3590351.0,2746144.0,0.0
1577366260989,3610510.0,2758367.0,0.0
1577366261033,3624998.0,2771915.0,0.0
1577366261090,3623387.0,2767620.0,0.0
1577366261132,3616274.0,2763617.0,0.0
1577366261179,3620998.0,2763585.0,0.0
1577366261231,3636851.0,2777341.0,0.0
1577366261278,3627776.0,2770555.0,0.0
1577366261329,3571527.0,2726513.0,0.0
1577366261382,3543432.0,2703601.0,0.0
1577366261430,3552700.0,2710851.0,0.0
1577366261477,3580225.0,2733911.0,0.0
1577366261528,3594554.0,2746201.0,0.0
1577366261569,3590645.0,2744230.0,0.0
1577366261626,3593463.0,2743852.0,0.0
1577366261670,3606022.0,2754909.0,0.0
1577366261720,3622885.0,2770145.0,0.0
1577366261770,3613070.0,2763392.0,0.0
1577366261818,3572540.0,2726428.0,0.0
1577366261870,3551526.0,2713242.0,0.0
1577366261919,3570267.0,2729047.0,0.0
1577366261966,3594857.0,2750506.0,0.0
1577366262009,3604480.0,2760641.0,0.0
1577366262064,3607834.0,2761689.0,0.0
1577366262108,3612381.0,2764676.0,0.0
1577366262160,3623556.0,2773534.0,0.0
1577366262212,3643337.0,2789690.0,0.0
1577366262253,3634194.0,2783953.0,0.0
1577366262307,3600938.0,2755614.0,0.0
1577366262349,3596887.0,2753214.0,0.0
1577366262405,3620778.0,2770011.0,0.0
1577366262449,3647154.0,2791168.0,0.0
1577366262503,3661793.0,2806940.0,0.0
1577366262553,3667876.0,2806152.0,0.0
1577366262592,3674225.0,2811889.0,0.0
1577366262650,3687247.0,2823692.0,0.0
1577366262692,3703631.0,2839011.0,0.0
1577366262747,3676517.0,2818407.0,0.0
1577366262794,3649219.0,2798004.0,0.0
1577366262842,3649444.0,2795664.0,0.0
1577366262894,3671281.0,2811436.0,0.0
1577366262934,3685367.0,2823273.0,0.0
1577366262991,3686003.0,2825177.0,0.0
1577366263033,3683663.0,2827182.0,0.0
1577366263088,3688185.0,2829279.0,0.0
1577366263133,3693931.0,2834188.0,0.0
1577366263183,3661064.0,2811008.0,0.0
1577366263234,3611778.0,2772006.0,0.0
1577366263275,3596576.0,2761118.0,0.0
1577366263333,3612029.0,2774901.0,0.0
1577366263373,3630535.0,2789256.0,0.0
1577366263422,3634360.0,2793677.0,0.0
1577366263472,3629049.0,2790883.0,0.0
1577366263526,3627432.0,2788894.0,0.0
1577366263573,3637304.0,2796763.0,0.0
1577366263616,3622641.0,2788299.0,0.0
1577366263670,3566961.0,2744139.0,0.0
1577366263716,3540620.0,2726462.0,0.0
1577366263771,3551148.0,2734449.0,0.0
1577366263812,3571468.0,2751855.0,0.0
1577366263868,3573934.0,2755027.0,0.0
1577366263912,3564832.0,2749281.0,0.0
1577366263964,3568867.0,2751587.0,0.0
1577366264015,3581886.0,2761681.0,0.0
1577366264059,3593246.0,2770379.0,0.0
1577366264106,3555067.0,2745673.0,0.0
1577366264152,3518793.0,2717285.0,0.0
1577366264210,3520680.0,2720028.0,0.0
1577366264252,3542566.0,2737369.0,0.0
1577366264307,3559218.0,2751772.0,0.0
1577366264355,3560100.0,2753115.0,0.0
1577366264402,3553724.0,2748611.0,0.0
1577366264451,3554891.0,2749651.0,0.0
1577366264494,3563867.0,2757820.0,0.0
1577366264551,3542641.0,2742469.0,0.0
1577366264590,3495998.0,2710489.0,0.0
1577366264648,3482349.0,2697402.0,0.0
1577366264690,3500025.0,2710204.0,0.0
1577366264745,3517332.0,2695023.0,0.0
1577366264794,3518281.0,2695844.0,0.0
1577366264840,3512407.0,2692715.0,0.0
1577366264893,3516452.0,2695383.0,0.0
1577366264932,3523976.0,2702258.0,0.0
1577366264990,3505168.0,2689401.0,0.0
1577366265030,3450589.0,2646517.0,0.0
1577366265089,3426570.0,2628406.0,0.0
1577366265135,3440085.0,2638762.0,0.0
1577366265182,3456922.0,2650827.0,0.0
1577366265230,3455512.0,2651412.0,0.0
1577366265275,3444833.0,2645818.0,0.0
1577366265332,3445002.0,2640217.0,0.0
1577366265372,3457895.0,2650105.0,0.0
1577366265429,3461762.0,2656367.0,0.0
1577366265471,3406386.0,2617445.0,0.0
1577366265526,3365380.0,2586156.0,0.0
1577366265577,3371806.0,2588357.0,0.0
1577366265624,3399220.0,2607189.0,0.0
1577366265671,3404558.0,2613191.0,0.0
1577366265715,3398231.0,2608008.0,0.0
1577366265771,3394405.0,2606108.0,0.0
1577366265812,3404708.0,2610509.0,0.0
1577366265859,3418591.0,2620659.0,0.0
1577366265911,3402745.0,2608556.0,0.0
1577366265958,3351562.0,2570754.0,0.0
1577366266009,3334022.0,2557035.0,0.0
1577366266055,3354693.0,2572566.0,0.0
1577366266105,3376386.0,2587936.0,0.0
1577366266152,3373752.0,2586737.0,0.0
1577366266210,3369986.0,2583377.0,0.0
1577366266253,3373828.0,2585636.0,0.0
1577366266306,3389163.0,2595472.0,0.0
1577366266354,3400354.0,2604688.0,0.0
1577366266401,3356025.0,2571207.0,0.0
1577366266450,3319021.0,2539412.0,0.0
1577366266498,3319247.0,2539298.0,0.0
1577366266551,3346679.0,2561771.0,0.0
1577366266593,3365623.0,2576300.0,0.0
1577366266648,3364347.0,2574506.0,0.0
1577366266698,3366495.0,2572200.0,0.0
1577366266739,3377704.0,2584435.0,0.0
1577366266790,3394893.0,2596480.0,0.0
1577366266837,3393123.0,2594858.0,0.0
1577366266886,3341572.0,2558864.0,0.0
1577366266935,3320372.0,2542880.0,0.0
1577366266983,3339700.0,2557683.0,0.0
1577366267039,3364650.0,2573866.0,0.0
1577366267086,3376134.0,2582048.0,0.0
1577366267132,3372804.0,2579082.0,0.0
1577366267182,3373785.0,2579523.0,0.0
1577366267232,3388155.0,2588984.0,0.0
1577366267282,3402561.0,2600334.0,0.0
1577366267333,3364624.0,2571899.0,0.0
1577366267377,3325614.0,2542512.0,0.0
1577366267428,3322855.0,2542419.0,0.0
1577366267474,3349617.0,2562952.0,0.0
1577366267526,3365816.0,2578501.0,0.0
1577366267571,3359784.0,2573793.0,0.0
1577366267623,3360924.0,2574500.0,0.0
1577366267669,3367870.0,2580768.0,0.0
1577366267714,3383560.0,2592952.0,0.0
1577366267770,3347545.0,2564985.0,0.0
1577366267821,3298669.0,2526142.0,0.0
1577366267867,3294047.0,2522680.0,0.0
1577366267913,3321134.0,2543754.0,0.0
1577366267962,3339223.0,2559183.0,0.0
1577366268009,3343837.0,2560130.0,0.0
1577366268058,3343770.0,2560123.0,0.0
1577366268105,3355087.0,2567145.0,0.0
1577366268158,3373819.0,2581782.0,0.0
1577366268208,3378391.0,2587585.0,0.0
1577366268255,3329003.0,2548853.0,0.0
1577366268305,3301975.0,2527622.0,0.0
1577366268351,3317678.0,2539298.0,0.0
1577366268399,3340271.0,2561324.0,0.0
1577366268453,3352352.0,2570380.0,0.0
1577366268493,3353374.0,2569305.0,0.0
1577366268544,3362822.0,2574921.0,0.0
1577366268592,3382192.0,2590884.0,0.0
1577366268641,3400673.0,2606128.0,0.0
1577366268688,3399767.0,2606228.0,0.0
1577366268742,3358425.0,2571373.0,0.0
1577366268791,3345840.0,2560123.0,0.0
1577366268834,3363332.0,2575914.0,0.0
1577366268892,3391402.0,2596733.0,0.0
1577366268938,3402107.0,2607022.0,0.0
1577366268987,3402971.0,2606315.0,0.0
1577366269035,3412309.0,2616238.0,0.0
1577366269086,3434079.0,2631980.0,0.0
1577366269132,3454405.0,2648559.0,0.0
1577366269178,3448112.0,2641997.0,0.0
1577366269234,3393533.0,2596278.0,0.0
1577366269281,3370581.0,2579175.0,0.0
1577366269330,3385648.0,2593111.0,0.0
1577366269370,3414062.0,2613477.0,0.0
1577366269425,3426503.0,2621346.0,0.0
1577366269475,3428280.0,2625013.0,0.0
1577366269519,3437962.0,2630554.0,0.0
1577366269572,3455504.0,2643925.0,0.0
1577366269616,3472384.0,2656353.0,0.0
1577366269667,3472266.0,2655087.0,0.0
1577366269719,3415604.0,2609722.0,0.0
1577366269769,3388818.0,2587863.0,0.0
1577366269819,3403786.0,2599720.0,0.0
1577366269865,3428156.0,2621738.0,0.0
1577366269916,3436487.0,2628093.0,0.0
1577366269965,3436015.0,2624560.0,0.0
1577366270009,3440562.0,2628453.0,0.0
1577366270062,3457013.0,2641897.0,0.0
1577366270105,3479228.0,2659354.0,0.0
1577366270160,3494690.0,2671504.0,0.0
1577366270209,3465673.0,2646897.0,0.0
1577366270255,3418945.0,2609208.0,0.0
1577366270304,3419824.0,2607309.0,0.0
1577366270353,3441779.0,2628047.0,0.0
1577366270395,3469614.0,2649098.0,0.0
1577366270454,3476427.0,2657168.0,0.0
1577366270500,3481703.0,2657001.0,0.0
1577366270549,3492652.0,2665963.0,0.0
1577366270593,3512248.0,2683580.0,0.0
1577366270647,3537507.0,2704178.0,0.0
1577366270695,3556652.0,2718183.0,0.0
1577366270737,3527316.0,2692156.0,0.0
1577366270794,3487894.0,2659453.0,0.0
1577366270837,3488314.0,2659228.0,0.0
1577366270883,3513246.0,2679446.0,0.0
1577366270931,3533876.0,2698404.0,0.0
1577366270980,3534185.0,2700724.0,0.0
1577366271032,3533826.0,2701671.0,0.0
1577366271081,3544336.0,2707147.0,0.0
1577366271131,3558883.0,2720156.0,0.0
1577366271179,3575377.0,2731359.0,0.0
1577366271234,3579747.0,2734500.0,0.0
1577366271283,3526442.0,2692390.0,0.0
1577366271328,3495017.0,2666463.0,0.0
1577366271379,3502331.0,2674864.0,0.0
1577366271420,3527348.0,2694970.0,0.0
1577366271477,3539714.0,2707772.0,0.0
1577366271517,3537767.0,2709061.0,0.0
1577366271573,3537408.0,2710074.0,0.0
1577366271618,3548011.0,2716288.0,0.0
1577366271666,3564454.0,2729632.0,0.0
1577366271721,3581509.0,2742582.0,0.0
1577366271768,3565108.0,2732411.0,0.0
1577366271812,3510873.0,2687794.0,0.0
1577366271859,3492642.0,2674364.0,0.0
1577366271911,3505269.0,2686982.0,0.0
1577366271956,3526200.0,2705726.0,0.0
1577366272005,3529429.0,2711682.0,0.0
1577366272061,3526343.0,2709193.0,0.0
1577366272103,3533389.0,2713628.0,0.0
1577366272159,3546928.0,2725518.0,0.0
1577366272202,3564773.0,2740540.0,0.0
1577366272257,3583388.0,2756291.0,0.0
1577366272300,3562524.0,2740414.0,0.0
1577366272351,3510428.0,2701019.0,0.0
1577366272401,3497047.0,2692043.0,0.0
1577366272446,3516519.0,2709920.0,0.0
1577366272501,3540888.0,2730172.0,0.0
1577366272546,3547457.0,2737393.0,0.0
1577366272594,3548497.0,2738314.0,0.0
1577366272638,3557398.0,2745656.0,0.0
1577366272686,3572516.0,2761059.0,0.0
1577366272738,3593498.0,2779316.0,0.0
1577366272788,3614429.0,2798508.0,0.0
1577366272836,3617086.0,2801682.0,0.0
1577366272890,3569227.0,2760439.0,0.0
1577366272939,3542574.0,2740622.0,0.0
1577366272980,3552365.0,2748170.0,0.0
1577366273037,3576450.0,2765819.0,0.0
1577366273081,3587651.0,2777431.0,0.0
1577366273126,3589193.0,2780371.0,0.0
1577366273176,3590645.0,2782717.0,0.0
1577366273224,3604327.0,2795434.0,0.0
1577366273274,3616904.0,2804197.0,0.0
1577366273321,3629805.0,2811838.0,0.0
1577366273371,3626684.0,2810778.0,0.0
1577366273422,3572918.0,2768388.0,0.0
1577366273468,3538885.0,2743129.0,0.0
1577366273520,3547440.0,2750177.0,0.0
1577366273567,3574109.0,2771189.0,0.0
1577366273615,3589085.0,2786952.0,0.0
1577366273664,3586157.0,2784453.0,0.0
1577366273711,3582171.0,2779717.0,0.0
1577366273762,3582374.0,2779257.0,0.0
1577366273811,3590436.0,2785019.0,0.0
1577366273858,3606241.0,2801143.0,0.0
1577366273907,3614730.0,2811517.0,0.0
1577366273956,3565830.0,2776429.0,0.0
1577366274008,3530402.0,2744368.0,0.0
1577366274052,3532056.0,2744429.0,0.0
1577366274103,3558824.0,2763694.0,0.0
1577366274150,3574286.0,2772955.0,0.0
1577366274200,3569135.0,2769428.0,0.0
1577366274250,3569312.0,2767668.0,0.0
1577366274300,3579428.0,2774089.0,0.0
1577366274348,3597809.0,2789680.0,0.0
1577366274393,3615510.0,2804817.0,0.0
1577366274442,3632062.0,2820347.0,0.0
1577366274492,3596659.0,2795615.0,0.0
1577366274541,3547987.0,2754551.0,0.0
1577366274589,3541904.0,2747322.0,0.0
1577366274639,3557012.0,2760992.0,0.0
1577366274687,3581005.0,2779836.0,0.0
1577366274735,3585704.0,2784765.0,0.0
1577366274785,3583514.0,2783225.0,0.0
1577366274833,3587466.0,2785920.0,0.0
1577366274883,3596812.0,2794307.0,0.0
1577366274931,3614630.0,2806316.0,0.0
1577366274982,3631920.0,2819354.0,0.0
1577366275031,3636358.0,2826049.0,0.0
1577366275083,3589479.0,2788646.0,0.0
1577366275130,3564060.0,2766561.0,0.0
1577366275177,3570092.0,2771789.0,0.0
1577366275227,3594520.0,2791954.0,0.0
1577366275275,3607306.0,2802582.0,0.0
1577366275325,3606995.0,2803756.0,0.0
1577366275373,3611845.0,2806018.0,0.0
1577366275424,3618748.0,2811278.0,0.0
1577366275470,3621475.0,2810384.0,0.0
1577366275522,3629553.0,2823048.0,0.0
1577366275569,3631642.0,2835852.0,0.0
1577366275617,3593951.0,2813452.0,0.0
1577366275665,3574664.0,2800121.0,0.0
1577366275715,3604370.0,2823749.0,0.0
1577366275763,3658747.0,2866358.0,0.0
1577366275813,3709216.0,2909842.0,0.0
1577366275864,3749753.0,2939656.0,0.0
1577366275911,3775776.0,2959160.0,0.0
1577366275958,3794492.0,2969116.0,0.0
1577366276007,3813217.0,2987515.0,0.0
1577366276055,3838025.0,3008339.0,0.0
1577366276104,3859744.0,3024956.0,0.0
1577366276151,3813493.0,2987822.0,0.0
1577366276202,3750651.0,2928119.0,0.0
1577366276248,3727640.0,2905181.0,0.0
1577366276297,3729107.0,2903314.0,0.0
1577366276347,3729879.0,2905541.0,0.0
1577366276394,3713470.0,2895786.0,0.0
1577366276445,3694470.0,2881895.0,0.0
1577366276492,3684226.0,2876294.0,0.0
1577366276542,3689000.0,2879315.0,0.0
1577366276590,3696012.0,2881322.0,0.0
1577366276649,3701877.0,2884922.0,0.0
1577366276697,3671013.0,2857604.0,0.0
1577366276746,3617389.0,2809159.0,0.0
1577366276792,3599319.0,2788693.0,0.0
1577366276833,3606601.0,2793748.0,0.0
1577366276887,3625467.0,2809945.0,0.0
1577366276935,3632323.0,2811392.0,0.0
1577366276986,3627901.0,2809224.0,0.0
1577366277032,3629722.0,2808230.0,0.0
1577366277086,3641768.0,2816654.0,0.0
1577366277136,3655761.0,2827308.0,0.0
1577366277183,3665265.0,2836057.0,0.0
1577366277230,3658983.0,2832696.0,0.0
1577366277274,3612239.0,2794634.0,0.0
1577366277325,3592163.0,2774802.0,0.0
1577366277378,3599914.0,2780997.0,0.0
1577366277427,3623572.0,2799169.0,0.0
1577366277478,3630535.0,2806123.0,0.0
1577366277527,3631910.0,2805518.0,0.0
1577366277571,3631987.0,2805457.0,0.0
1577366277615,3637632.0,2809337.0,0.0
1577366277664,3645811.0,2817940.0,0.0
1577366277721,3664418.0,2828836.0,0.0
1577366277767,3654369.0,2824687.0,0.0
1577366277817,3607724.0,2785686.0,0.0
1577366277867,3583018.0,2764127.0,0.0
1577366277916,3588037.0,2768467.0,0.0
1577366277963,3609630.0,2786291.0,0.0
1577366278006,3618622.0,2793740.0,0.0
1577366278062,3616936.0,2791808.0,0.0
1577366278103,3616215.0,2788965.0,0.0
1577366278159,3622070.0,2795068.0,0.0
1577366278208,3625888.0,2801690.0,0.0
1577366278256,3636727.0,2809384.0,0.0
1577366278305,3610209.0,2791901.0,0.0
1577366278351,3565460.0,2753178.0,0.0
1577366278403,3550738.0,2743761.0,0.0
1577366278445,3566208.0,2756851.0,0.0
1577366278500,3580393.0,2770608.0,0.0
1577366278547,3580527.0,2769314.0,0.0
1577366278594,3571393.0,2759940.0,0.0
1577366278648,3574731.0,2765360.0,0.0
1577366278690,3585042.0,2770948.0,0.0
1577366278743,3597633.0,2782364.0,0.0
1577366278785,3607842.0,2790981.0,0.0
1577366278843,3574395.0,2767388.0,0.0
1577366278888,3534002.0,2733586.0,0.0
1577366278939,3528691.0,2727651.0,0.0
1577366278988,3544840.0,2739000.0,0.0
1577366279036,3558548.0,2753865.0,0.0
1577366279085,3556384.0,2755165.0,0.0
1577366279133,3555025.0,2752144.0,0.0
1577366279182,3564958.0,2759165.0,0.0
1577366279227,3580913.0,2773215.0,0.0
1577366279274,3600016.0,2786452.0,0.0
1577366279330,3616349.0,2800489.0,0.0
1577366279376,3590292.0,2785885.0,0.0
1577366279427,3549915.0,2750756.0,0.0
1577366279473,3541804.0,2744342.0,0.0
1577366279524,3560435.0,2758239.0,0.0
1577366279568,3582667.0,2777990.0,0.0
1577366279615,3587449.0,2781771.0,0.0
1577366279669,3586525.0,2780978.0,0.0
1577366279717,3593691.0,2784698.0,0.0
1577366279770,3604764.0,2795761.0,0.0
1577366279816,3621451.0,2809638.0,0.0
1577366279866,3634184.0,2818547.0,0.0
1577366279914,3614092.0,2806164.0,0.0
1577366279961,3572492.0,2771970.0,0.0
1577366280016,3559320.0,2763493.0,0.0
1577366280052,3574672.0,2773688.0,0.0
1577366280102,3590192.0,2787866.0,0.0
1577366280152,3583597.0,2783559.0,0.0
1577366280203,3575602.0,2779550.0,0.0
1577366280250,3579956.0,2781125.0,0.0
1577366280299,3589646.0,2791767.0,0.0
1577366280348,3601501.0,2802035.0,0.0
1577366280396,3607692.0,2807736.0,0.0
1577366280447,3562290.0,2769995.0,0.0
1577366280494,3525688.0,2744502.0,0.0
1577366280543,3525410.0,2744476.0,0.0
1577366280589,3544563.0,2758359.0,0.0
1577366280640,3554261.0,2766006.0,0.0
1577366280690,3550762.0,2762847.0,0.0
1577366280737,3540638.0,2753938.0,0.0
1577366280789,3538692.0,2754712.0,0.0
1577366280834,3547097.0,2761585.0,0.0
1577366280884,3561392.0,2776689.0,0.0
1577366280932,3554454.0,2775210.0,0.0
1577366280981,3502224.0,2732986.0,0.0
1577366281033,3464699.0,2701698.0,0.0
1577366281079,3469496.0,2704152.0,0.0
1577366281130,3491939.0,2722643.0,0.0
1577366281176,3507147.0,2737694.0,0.0
1577366281225,3513967.0,2743868.0,0.0
1577366281274,3519211.0,2743742.0,0.0
1577366281329,3531912.0,2752938.0,0.0
1577366281370,3542306.0,2757892.0,0.0
1577366281427,3547491.0,2766614.0,0.0
1577366281470,3540185.0,2765161.0,0.0
1577366281525,3503055.0,2731745.0,0.0
1577366281573,3484044.0,2720308.0,0.0
1577366281612,3497382.0,2730599.0,0.0
1577366281672,3522490.0,2749190.0,0.0
1577366281712,3527558.0,2756098.0,0.0
1577366281767,3520520.0,2748903.0,0.0
1577366281811,3513774.0,2743048.0,0.0
1577366281858,3521158.0,2746361.0,0.0
1577366281916,3543724.0,2765775.0,0.0
1577366281957,3564529.0,2786104.0,0.0
1577366282012,3543933.0,2768087.0,0.0
1577366282053,3506224.0,2734632.0,0.0
1577366282102,3499237.0,2729118.0,0.0
1577366282151,3518289.0,2742562.0,0.0
1577366282198,3535032.0,2759419.0,0.0
1577366282253,3537416.0,2756831.0,0.0
1577366282296,3536418.0,2756746.0,0.0
1577366282352,3546510.0,2763560.0,0.0
1577366282394,3564958.0,2777478.0,0.0
1577366282451,3580696.0,2790473.0,0.0
1577366282492,3574597.0,2785651.0,0.0
1577366282548,3524815.0,2745248.0,0.0
1577366282590,3502669.0,2724857.0,0.0
1577366282646,3511905.0,2731038.0,0.0
1577366282694,3532072.0,2747524.0,0.0
1577366282741,3535276.0,2753105.0,0.0
1577366282791,3539395.0,2754805.0,0.0
1577366282833,3546006.0,2760752.0,0.0
1577366282889,3559663.0,2769601.0,0.0
1577366282932,3576610.0,2779670.0,0.0
1577366282986,3584125.0,2785771.0,0.0
1577366283034,3555596.0,2762999.0,0.0
1577366283082,3520469.0,2730859.0,0.0
1577366283130,3514061.0,2726357.0,0.0
1577366283175,3530646.0,2742460.0,0.0
1577366283231,3549236.0,2757292.0,0.0
1577366283272,3551132.0,2758432.0,0.0
1577366283327,3553515.0,2759885.0,0.0
1577366283373,3563548.0,2766500.0,0.0
1577366283423,3577650.0,2774462.0,0.0
1577366283474,3593228.0,2787305.0,0.0
1577366283521,3607657.0,2795828.0,0.0
1577366283573,3575940.0,2770001.0,0.0
1577366283613,3551349.0,2749344.0,0.0
1577366283669,3558784.0,2753458.0,0.0
1577366283711,3576769.0,2769954.0,0.0
1577366283767,3589613.0,2780797.0,0.0
1577366283812,3586283.0,2779977.0,0.0
1577366283856,3591426.0,2782945.0,0.0
1577366283907,3603447.0,2792746.0,0.0
1577366283955,3621684.0,2805304.0,0.0
1577366284010,3633210.0,2816505.0,0.0
1577366284051,3609421.0,2794642.0,0.0
1577366284101,3567248.0,2759291.0,0.0
1577366284153,3562097.0,2754511.0,0.0
1577366284204,3579329.0,2773048.0,0.0
1577366284250,3595796.0,2787451.0,0.0
1577366284302,3597088.0,2785885.0,0.0
1577366284352,3594605.0,2782864.0,0.0
1577366284394,3596493.0,2784125.0,0.0
1577366284450,3609949.0,2796168.0,0.0
1577366284490,3622909.0,2810971.0,0.0
1577366284546,3616038.0,2805430.0,0.0
1577366284594,3574302.0,2770094.0,0.0
1577366284644,3558304.0,2754157.0,0.0
1577366284689,3566567.0,2759399.0,0.0
1577366284739,3576508.0,2771002.0,0.0
1577366284791,3581015.0,2779430.0,0.0
1577366284831,3583431.0,2781758.0,0.0
1577366284887,3590477.0,2787013.0,0.0
1577366284937,3602649.0,2799089.0,0.0
1577366284984,3614545.0,2808537.0,0.0
1577366285025,3619957.0,2812145.0,0.0
1577366285073,3580326.0,2777951.0,0.0
1577366285132,3545754.0,2750216.0,0.0
1577366285172,3544480.0,2753357.0,0.0
1577366285229,3558899.0,2766935.0,0.0
1577366285278,3572146.0,2776070.0,0.0
1577366285327,3577642.0,2780903.0,0.0
1577366285371,3587951.0,2793386.0,0.0
1577366285421,3597005.0,2798848.0,0.0
1577366285471,3609579.0,2806538.0,0.0
1577366285515,3625872.0,2818352.0,0.0
1577366285572,3616802.0,2812625.0,0.0
1577366285613,3578884.0,2780064.0,0.0
1577366285666,3557223.0,2766961.0,0.0
1577366285714,3562877.0,2775330.0,0.0
1577366285763,3584058.0,2793827.0,0.0
1577366285810,3592171.0,2800235.0,0.0
1577366285860,3587935.0,2796168.0,0.0
1577366285904,3589857.0,2798128.0,0.0
1577366285953,3597641.0,2805237.0,0.0
1577366286010,3607080.0,2810579.0,0.0
1577366286058,3605276.0,2814620.0,0.0
1577366286100,3575074.0,2791586.0,0.0
1577366286152,3564840.0,2785765.0,0.0
1577366286201,3585796.0,2800875.0,0.0
1577366286250,3607448.0,2818241.0,0.0
1577366286299,3619177.0,2829129.0,0.0
1577366286352,3621290.0,2825335.0,0.0
1577366286395,3620534.0,2824348.0,0.0
1577366286448,3624687.0,2829917.0,0.0
1577366286495,3635234.0,2835311.0,0.0
1577366286547,3630486.0,2835630.0,0.0
1577366286594,3598346.0,2810018.0,0.0
1577366286640,3591407.0,2798403.0,0.0
1577366286689,3604394.0,2811851.0,0.0
1577366286734,3627717.0,2833418.0,0.0
1577366286790,3636658.0,2838312.0,0.0
1577366286836,3631197.0,2831737.0,0.0
1577366286886,3627264.0,2830270.0,0.0
1577366286935,3633269.0,2836772.0,0.0
1577366286982,3647725.0,2849060.0,0.0
1577366287031,3621483.0,2829777.0,0.0
1577366287074,3577567.0,2792261.0,0.0
1577366287131,3559521.0,2781064.0,0.0
1577366287182,3569068.0,2790700.0,0.0
1577366287221,3588547.0,2810018.0,0.0
1577366287270,3593480.0,2817186.0,0.0
1577366287317,3594798.0,2815806.0,0.0
1577366287370,3603061.0,2820295.0,0.0
1577366287417,3618555.0,2833737.0,0.0
1577366287466,3629998.0,2841065.0,0.0
1577366287514,3613949.0,2826762.0,0.0
1577366287569,3571232.0,2790160.0,0.0
1577366287617,3558397.0,2782004.0,0.0
1577366287666,3576350.0,2796895.0,0.0
1577366287713,3600847.0,2816987.0,0.0
1577366287762,3602968.0,2823042.0,0.0
1577366287809,3603539.0,2822028.0,0.0
1577366287856,3608228.0,2828009.0,0.0
1577366287904,3622231.0,2841685.0,0.0
1577366287958,3640618.0,2856108.0,0.0
1577366288007,3650720.0,2867132.0,0.0
1577366288056,3615636.0,2838091.0,0.0
1577366288099,3589538.0,2816792.0,0.0
1577366288152,3596434.0,2822422.0,0.0
1577366288195,3619403.0,2842386.0,0.0
1577366288253,3631232.0,2852421.0,0.0
1577366288301,3628714.0,2848780.0,0.0
1577366288350,3625644.0,2850369.0,0.0
1577366288398,3635057.0,2857356.0,0.0
1577366288446,3643924.0,2865865.0,0.0
1577366288494,3658412.0,2876781.0,0.0
1577366288539,3649578.0,2867165.0,0.0
1577366288590,3611483.0,2832083.0,0.0
1577366288637,3602541.0,2824555.0,0.0
1577366288692,3617038.0,2837705.0,0.0
1577366288738,3631843.0,2853388.0,0.0
1577366288786,3631819.0,2855868.0,0.0
1577366288838,3625955.0,2852069.0,0.0
1577366288880,3632347.0,2857230.0,0.0
1577366288936,3648790.0,2873494.0,0.0
1577366288977,3671163.0,2889878.0,0.0
1577366289030,3689703.0,2904588.0,0.0
1577366289079,3658573.0,2880042.0,0.0
1577366289132,3622062.0,2848587.0,0.0
1577366289179,3617800.0,2846740.0,0.0
1577366289226,3636886.0,2860757.0,0.0
1577366289278,3654420.0,2878508.0,0.0
1577366289322,3658613.0,2884668.0,0.0
1577366289375,3656155.0,2883990.0,0.0
1577366289416,3667061.0,2892011.0,0.0
1577366289474,3679544.0,2905788.0,0.0
1577366289520,3700124.0,2921419.0,0.0
1577366289567,3718487.0,2935521.0,0.0
1577366289620,3700224.0,2922985.0,0.0
1577366289665,3661868.0,2891698.0,0.0
1577366289720,3654016.0,2885837.0,0.0
1577366289757,3673220.0,2901300.0,0.0
1577366289811,3695752.0,2919458.0,0.0
1577366289861,3706894.0,2929568.0,0.0
1577366289905,3707715.0,2928780.0,0.0
1577366289961,3714216.0,2937090.0,0.0
1577366290006,3730407.0,2951486.0,0.0
1577366290058,3745424.0,2966682.0,0.0
1577366290100,3767336.0,2981073.0,0.0
1577366290155,3769175.0,2985894.0,0.0
1577366290197,3730777.0,2953366.0,0.0
1577366290251,3709669.0,2940336.0,0.0
1577366290303,3721020.0,2946698.0,0.0
1577366290350,3746850.0,2967129.0,0.0
1577366290399,3759065.0,2981219.0,0.0
1577366290444,3759234.0,2982779.0,0.0
1577366290497,3760826.0,2981467.0,0.0
1577366290537,3769258.0,2987668.0,0.0
1577366290586,3780843.0,2997904.0,0.0
1577366290642,3795374.0,3010033.0,0.0
1577366290687,3802957.0,3016382.0,0.0
1577366290740,3763419.0,2989535.0,0.0
1577366290788,3735107.0,2969157.0,0.0
1577366290838,3739938.0,2975532.0,0.0
1577366290879,3763722.0,2994836.0,0.0
1577366290936,3779283.0,3009034.0,0.0
1577366290984,3778998.0,3009627.0,0.0
1577366291033,3776221.0,3003973.0,0.0
1577366291083,3777991.0,3006740.0,0.0
1577366291131,3788661.0,3016795.0,0.0
1577366291180,3803276.0,3026657.0,0.0
1577366291227,3806908.0,3032106.0,0.0
1577366291278,3763092.0,2998243.0,0.0
1577366291320,3731390.0,2974051.0,0.0
1577366291376,3731640.0,2973744.0,0.0
1577366291420,3746163.0,2986873.0,0.0
1577366291473,3759593.0,2998196.0,0.0
1577366291522,3759124.0,2997804.0,0.0
1577366291570,3756263.0,2996443.0,0.0
1577366291620,3758344.0,2995510.0,0.0
1577366291666,3769183.0,3003964.0,0.0
1577366291717,3780945.0,3016762.0,0.0
1577366291759,3791020.0,3027098.0,0.0
1577366291816,3765341.0,3008999.0,0.0
1577366291862,3729930.0,2979407.0,0.0
1577366291907,3717942.0,2969811.0,0.0
1577366291961,3729854.0,2973417.0,0.0
1577366292007,3741163.0,2988448.0,0.0
1577366292059,3744745.0,2989354.0,0.0
1577366292101,3741582.0,2993290.0,0.0
1577366292157,3746330.0,3001571.0,0.0
1577366292201,3769258.0,3018022.0,0.0
1577366292252,3790433.0,3034613.0,0.0
1577366292299,3808528.0,3045749.0,0.0
1577366292349,3804149.0,3040768.0,0.0
1577366292401,3767933.0,3012146.0,0.0
1577366292444,3749418.0,2998558.0,0.0
1577366292498,3759804.0,3004639.0,0.0
1577366292540,3779384.0,3023010.0,0.0
1577366292594,3786179.0,3027712.0,0.0
1577366292645,3783905.0,3025531.0,0.0
1577366292693,3782891.0,3024164.0,0.0
1577366292741,3792696.0,3030192.0,0.0
1577366292787,3805029.0,3037413.0,0.0
1577366292839,3815810.0,3046261.0,0.0
1577366292880,3793720.0,3032659.0,0.0
1577366292937,3756397.0,3001211.0,0.0
1577366292983,3744544.0,2988334.0,0.0
1577366293032,3756330.0,2993863.0,0.0
1577366293083,3770877.0,3005358.0,0.0
1577366293130,3772009.0,3005653.0,0.0
1577366293179,3765113.0,2999738.0,0.0
1577366293220,3765432.0,2998397.0,0.0
1577366293278,3776690.0,3004151.0,0.0
1577366293321,3787513.0,3013940.0,0.0
1577366293375,3787782.0,3014682.0,0.0
1577366293423,3745357.0,2980827.0,0.0
1577366293473,3702824.0,2943077.0,0.0
1577366293521,3698362.0,2938756.0,0.0
1577366293565,3718050.0,2957013.0,0.0
1577366293621,3729938.0,2967850.0,0.0
1577366293661,3732354.0,2969250.0,0.0
1577366293716,3735222.0,2963336.0,0.0
1577366293764,3741045.0,2967289.0,0.0
1577366293812,3752228.0,2970977.0,0.0
1577366293863,3758939.0,2973505.0,0.0
1577366293910,3759628.0,2973405.0,0.0
1577366293962,3721490.0,2943404.0,0.0
1577366294001,3699092.0,2923225.0,0.0
1577366294059,3706591.0,2923272.0,0.0
1577366294100,3721213.0,2938475.0,0.0
1577366294157,3731407.0,2943004.0,0.0
1577366294204,3725895.0,2936728.0,0.0
1577366294253,3724326.0,2934861.0,0.0
1577366294295,3730937.0,2940877.0,0.0
1577366294345,3744887.0,2948872.0,0.0
1577366294399,3759250.0,2957267.0,0.0
1577366294441,3737195.0,2940623.0,0.0
1577366294497,3702044.0,2907101.0,0.0
1577366294546,3694644.0,2896406.0,0.0
1577366294595,3708135.0,2902727.0,0.0
1577366294636,3723452.0,2916110.0,0.0
1577366294691,3720610.0,2913509.0,0.0
1577366294741,3709570.0,2901233.0,0.0
1577366294782,3715701.0,2903887.0,0.0
1577366294839,3724359.0,2910242.0,0.0
1577366294884,3733680.0,2917325.0,0.0
1577366294936,3699586.0,2887084.0,0.0
1577366294984,3651492.0,2844294.0,0.0
1577366295029,3635216.0,2829982.0,0.0
1577366295082,3647130.0,2839446.0,0.0
1577366295124,3657734.0,2850527.0,0.0
1577366295180,3655929.0,2850054.0,0.0
1577366295224,3652876.0,2845326.0,0.0
1577366295277,3657868.0,2845214.0,0.0
1577366295326,3667305.0,2852616.0,0.0
1577366295376,3672901.0,2858682.0,0.0
1577366295423,3655576.0,2840653.0,0.0
1577366295471,3616743.0,2805697.0,0.0
1577366295521,3601978.0,2796308.0,0.0
1577366295564,3613724.0,2804022.0,0.0
1577366295618,3625728.0,2813565.0,0.0
1577366295670,3618429.0,2809191.0,0.0
1577366295716,3618614.0,2806117.0,0.0
1577366295765,3623086.0,2813051.0,0.0
1577366295810,3638538.0,2824421.0,0.0
1577366295862,3650828.0,2835110.0,0.0
1577366295904,3646114.0,2831209.0,0.0
1577366295960,3607021.0,2796968.0,0.0
1577366296005,3584369.0,2780885.0,0.0
1577366296058,3590696.0,2788725.0,0.0
1577366296100,3605804.0,2800816.0,0.0
1577366296154,3607960.0,2799788.0,0.0
1577366296203,3602314.0,2795040.0,0.0
1577366296251,3603716.0,2798596.0,0.0
1577366296294,3611818.0,2807950.0,0.0
1577366296344,3626810.0,2819088.0,0.0
1577366296398,3632288.0,2825689.0,0.0
1577366296446,3601869.0,2802322.0,0.0
1577366296497,3578632.0,2777916.0,0.0
1577366296545,3575594.0,2780470.0,0.0
1577366296588,3588547.0,2793406.0,0.0
1577366296635,3592407.0,2799689.0,0.0
1577366296684,3586828.0,2792208.0,0.0
1577366296740,3584881.0,2791773.0,0.0
1577366296787,3592391.0,2798596.0,0.0
1577366296837,3603523.0,2808277.0,0.0
1577366296886,3610443.0,2817259.0,0.0
1577366296933,3578723.0,2792913.0,0.0
1577366296983,3543808.0,2763341.0,0.0
1577366297025,3535796.0,2758678.0,0.0
1577366297082,3550486.0,2773983.0,0.0
1577366297128,3554362.0,2774863.0,0.0
1577366297179,3546668.0,2770602.0,0.0
1577366297227,3549161.0,2767947.0,0.0
1577366297275,3556207.0,2775389.0,0.0
1577366297326,3569462.0,2785265.0,0.0
1577366297368,3581921.0,2795621.0,0.0
1577366297422,3576811.0,2792047.0,0.0
1577366297467,3537408.0,2757818.0,0.0
1577366297520,3515093.0,2740380.0,0.0
1577366297571,3519664.0,2742215.0,0.0
1577366297612,3525562.0,2747136.0,0.0
1577366297666,3526611.0,2748842.0,0.0
1577366297709,3531150.0,2754832.0,0.0
1577366297764,3544153.0,2767408.0,0.0
1577366297806,3562248.0,2777177.0,0.0
1577366297863,3569621.0,2785192.0,0.0
1577366297905,3582817.0,2793941.0,0.0
1577366297957,3577843.0,2789599.0,0.0
1577366298008,3559797.0,2777916.0,0.0
1577366298055,3767663.0,2906309.0,0.0
1577366298099,4125226.0,3158670.0,0.0
1577366298145,4379989.0,3384618.0,0.0
1577366298202,4575723.0,3557327.0,0.0
1577366298247,4774588.0,3758482.0,0.0
1577366298293,4917674.0,3832147.0,0.0
1577366298349,4978310.0,3811803.0,0.0
1577366298396,4977883.0,3775941.0,0.0
1577366298446,5079466.0,3849291.0,0.0
1577366298488,5276314.0,3935079.0,0.0
1577366298544,5295863.0,4002929.0,0.0
1577366298587,5288051.0,4040773.0,0.0
1577366298635,5346486.0,4191963.0,0.0
1577366298690,5504898.0,4330945.0,0.0
1577366298736,5772629.0,4446077.0,0.0
1577366298788,5912112.0,4585472.0,0.0
1577366298828,5973227.0,4650109.0,0.0
1577366298885,5946000.0,4626385.0,0.0
1577366298928,5887869.0,4595429.0,0.0
1577366298982,5840268.0,4557377.0,0.0
1577366299030,5923533.0,4626553.0,0.0
1577366299078,6061909.0,4793112.0,0.0
1577366299129,6178338.0,4880467.0,0.0
1577366299170,6215619.0,4940190.0,0.0
1577366299225,6304853.0,5081656.0,0.0
1577366299268,6410587.0,5161941.0,0.0
1577366299323,6509941.0,5315437.0,0.0
1577366299370,6444405.0,5271836.0,0.0
1577366299419,6342664.0,5226800.0,0.0
1577366299470,6287339.0,5201359.0,0.0
1577366299516,6260236.0,5186446.0,0.0
1577366299568,6371791.0,5271192.0,0.0
1577366299611,6450919.0,5334759.0,0.0
1577366299666,6514657.0,5379978.0,0.0
1577366299709,6551586.0,5387802.0,0.0
1577366299761,6497131.0,5344168.0,0.0
1577366299809,6517483.0,5347594.0,0.0
1577366299858,6683914.0,5462304.0,0.0
1577366299903,6667292.0,5428327.0,0.0
1577366299953,6626960.0,5398645.0,0.0
1577366300007,6658720.0,5408347.0,0.0
1577366300049,6685633.0,5424256.0,0.0
1577366300099,6709241.0,5456912.0,0.0
1577366300149,7089764.0,5503971.0,0.0
1577366300201,7122599.0,5529004.0,0.0
1577366300257,7125312.0,5543184.0,0.0
1577366300332,7135628.0,5552942.0,0.0
1577366300348,7121984.0,5546317.0,0.0
1577366300395,7120393.0,5547367.0,0.0
1577366300443,7126257.0,5546428.0,0.0
1577366300495,7120957.0,5530634.0,0.0
1577366300539,7128804.0,5519587.0,0.0
1577366300589,7139259.0,5519530.0,0.0
1577366300634,7153929.0,5533437.0,0.0
1577366300691,7168819.0,5540085.0,0.0
1577366300730,7172984.0,5545660.0,0.0
1577366300787,7166491.0,5543614.0,0.0
1577366300838,7176066.0,5548125.0,0.0
1577366300883,7202985.0,5562055.0,0.0
1577366300933,7225248.0,5584264.0,0.0
1577366300975,7243384.0,5593671.0,0.0
1577366301032,7261179.0,5608380.0,0.0
1577366301071,7264384.0,5607125.0,0.0
1577366301128,7269166.0,5610823.0,0.0
1577366301171,7274193.0,5599154.0,0.0
1577366301221,7261824.0,5576336.0,0.0
1577366301274,7203328.0,5544417.0,0.0
1577366301316,7114065.0,5495446.0,0.0
1577366301368,7022788.0,5424052.0,0.0
1577366301414,6934212.0,5338583.0,0.0
1577366301463,6845016.0,5266816.0,0.0
1577366301512,6777782.0,5222310.0,0.0
1577366301561,6681944.0,5149279.0,0.0
1577366301611,6600969.0,5088583.0,0.0
1577366301658,6521966.0,5018477.0,0.0
1577366301713,6420430.0,4933211.0,0.0
1577366301754,6324017.0,4843737.0,0.0
1577366301805,6198520.0,4744858.0,0.0
1577366301853,6000268.0,4596733.0,0.0
1577366301902,5812578.0,4452421.0,0.0
1577366301952,5676753.0,4349866.0,0.0
1577366302000,5578983.0,4266272.0,0.0
1577366302052,5474843.0,4185427.0,0.0
1577366302097,5359744.0,4092743.0,0.0
1577366302148,5259810.0,4008019.0,0.0
1577366302200,5165218.0,3934114.0,0.0
1577366302259,5080873.0,3868092.0,0.0
1577366302293,5006188.0,3805576.0,0.0
1577366302347,4914939.0,3741565.0,0.0
1577366302393,4780785.0,3645116.0,0.0
1577366302438,4659726.0,3556876.0,0.0
1577366302495,4579421.0,3499062.0,0.0
1577366302540,4517284.0,3388222.0,0.0
1577366302589,4448817.0,3343232.0,0.0
1577366302632,4382870.0,3297420.0,0.0
1577366302689,4322510.0,3263737.0,0.0
1577366302733,4283524.0,3238351.0,0.0
1577366302784,4044853.0,3217588.0,0.0
1577366302836,3966102.0,3196716.0,0.0
1577366302882,3905574.0,3162605.0,0.0
1577366302929,3821901.0,3099300.0,0.0
1577366302979,3768762.0,3063296.0,0.0
1577366303031,3740905.0,3041710.0,0.0
1577366303071,3728211.0,3033707.0,0.0
1577366303129,3707434.0,3020300.0,0.0
1577366303177,3692852.0,3006130.0,0.0
1577366303225,3681881.0,2998580.0,0.0
1577366303270,3682651.0,2999068.0,0.0
1577366303315,3685195.0,3006232.0,0.0
1577366303372,3695018.0,3011567.0,0.0
1577366303418,3674321.0,2998859.0,0.0
1577366303470,3632711.0,2965099.0,0.0
1577366303512,3612907.0,2947240.0,0.0
1577366303567,3614862.0,2949562.0,0.0
1577366303609,3626227.0,2959504.0,0.0
1577366303662,3631063.0,2960544.0,0.0
1577366303710,3620959.0,2957450.0,0.0
1577366303756,3625390.0,2957943.0,0.0
1577366303810,3639635.0,2965721.0,0.0
1577366303855,3647717.0,2974488.0,0.0
1577366303900,3658235.0,2982590.0,0.0
1577366303958,3630533.0,2962265.0,0.0
1577366304006,3601985.0,2934623.0,0.0
1577366304051,3593297.0,2928178.0,0.0
1577366304096,3606058.0,2939387.0,0.0
1577366304152,3615979.0,2948608.0,0.0
1577366304194,3623338.0,2950487.0,0.0
1577366304260,3624021.0,2952894.0,0.0
1577366304296,3634232.0,2959530.0,0.0
1577366304347,3651386.0,2974035.0,0.0
1577366304395,3666297.0,2983572.0,0.0
1577366304443,3647563.0,2969925.0,0.0
1577366304490,3608716.0,2941811.0,0.0
1577366304535,3604209.0,2934085.0,0.0
1577366304583,3615593.0,2943422.0,0.0
1577366304632,3629559.0,2957273.0,0.0
1577366304682,3634127.0,2958163.0,0.0
1577366304732,3636764.0,2959110.0,0.0
1577366304780,3649296.0,2967584.0,0.0
1577366304828,3666923.0,2979931.0,0.0
1577366304881,3690445.0,2995360.0,0.0
1577366304930,3679002.0,2986266.0,0.0
1577366304974,3646126.0,2962450.0,0.0
1577366305030,3638450.0,2955142.0,0.0
1577366305079,3649103.0,2967986.0,0.0
1577366305127,3668108.0,2976668.0,0.0
1577366305174,3672248.0,2982180.0,0.0
1577366305224,3679262.0,2988832.0,0.0
1577366305269,3690030.0,2997373.0,0.0
1577366305318,3705845.0,3009538.0,0.0
1577366305373,3727979.0,3025082.0,0.0
1577366305417,3722624.0,3023034.0,0.0
1577366305468,3693584.0,3001835.0,0.0
1577366305515,3688094.0,2996920.0,0.0
1577366305565,3704854.0,3009068.0,0.0
1577366305609,3723231.0,3023498.0,0.0
1577366305657,3729385.0,3031903.0,0.0
1577366305709,3736775.0,3038203.0,0.0
1577366305756,3755064.0,3048890.0,0.0
1577366305810,3771853.0,3062011.0,0.0
1577366305855,3793729.0,3079814.0,0.0
1577366305900,3788672.0,3077128.0,0.0
1577366305955,3760574.0,3059143.0,0.0
1577366306005,3757626.0,3053320.0,0.0
1577366306050,3773750.0,3065258.0,0.0
1577366306096,3787593.0,3077371.0,0.0
1577366306152,3794748.0,3085720.0,0.0
1577366306197,3801211.0,3091013.0,0.0
1577366306258,3815873.0,3101600.0,0.0
1577366306294,3834260.0,3114654.0,0.0
1577366306344,3856759.0,3129124.0,0.0
1577366306395,3845327.0,3123738.0,0.0
1577366306440,3823520.0,3103394.0,0.0
1577366306489,3819841.0,3099838.0,0.0
1577366306535,3841271.0,3115560.0,0.0
1577366306591,3860236.0,3133051.0,0.0
1577366306642,3864870.0,3137875.0,0.0
1577366306685,3872971.0,3143781.0,0.0
1577366306736,3888912.0,3150736.0,0.0
1577366306777,3904312.0,3165726.0,0.0
1577366306827,3921863.0,3180517.0,0.0
1577366306878,3914859.0,3173938.0,0.0
1577366306932,3901884.0,3163637.0,0.0
1577366306979,3911633.0,3167664.0,0.0
1577366307029,3930607.0,3181826.0,0.0
1577366307077,3964609.0,3218074.0,0.0
1577366307126,4003358.0,3248796.0,0.0
1577366307172,4061401.0,3294197.0,0.0
1577366307215,4124192.0,3348191.0,0.0
1577366307273,4206679.0,3414036.0,0.0
1577366307322,4278938.0,3470478.0,0.0
1577366307371,4320280.0,3507181.0,0.0
1577366307419,4354830.0,3528892.0,0.0
1577366307468,4405022.0,3551987.0,0.0
1577366307514,4451476.0,3581165.0,0.0
1577366307559,4494118.0,3625459.0,0.0
1577366307609,4536699.0,3652205.0,0.0
1577366307654,4557236.0,3674134.0,0.0
1577366307710,4586536.0,3683228.0,0.0
1577366307758,4608371.0,3688537.0,0.0
1577366307807,4617339.0,3689494.0,0.0
1577366307859,4580565.0,3650519.0,0.0
1577366307901,4532760.0,3603547.0,0.0
1577366307957,4501215.0,3576693.0,0.0
1577366307997,4482683.0,3562290.0,0.0
1577366308055,4470066.0,3550587.0,0.0
1577366308095,4454442.0,3540234.0,0.0
1577366308153,4446179.0,3535051.0,0.0
1577366308198,4443617.0,3530930.0,0.0
1577366308249,4444570.0,3538893.0,0.0
1577366308296,4432597.0,3529589.0,0.0
1577366308344,4388561.0,3496041.0,0.0
1577366308396,4355474.0,3468273.0,0.0
1577366308436,4348076.0,3461032.0,0.0
1577366308490,4354492.0,3464657.0,0.0
1577366308539,4350697.0,3464254.0,0.0
1577366308590,4348982.0,3468172.0,0.0
1577366308642,4349358.0,3472215.0,0.0
1577366308687,4346930.0,3477451.0,0.0
1577366308736,4353442.0,3482459.0,0.0
1577366308779,4343328.0,3474497.0,0.0
1577366308835,4323506.0,3464078.0,0.0
1577366308879,4334602.0,3479271.0,0.0
1577366308929,4352922.0,3498808.0,0.0
1577366308979,4361532.0,3509245.0,0.0
1577366309030,4371193.0,3519026.0,0.0
1577366309078,4389717.0,3532064.0,0.0
1577366309127,4407816.0,3546392.0,0.0
1577366309177,4414866.0,3555604.0,0.0
1577366309216,4389717.0,3532499.0,0.0
1577366309272,4354511.0,3497031.0,0.0
1577366309326,4336489.0,3475419.0,0.0
1577366309368,4342105.0,3474263.0,0.0
1577366309421,4347190.0,3476033.0,0.0
1577366309469,4336664.0,3463641.0,0.0
1577366309519,4322041.0,3456434.0,0.0
1577366309559,4339177.0,3497996.0,0.0
1577366309611,4426077.0,3583305.0,0.0
1577366309658,4556080.0,3664611.0,0.0
1577366309706,4706657.0,3708537.0,0.0
1577366309760,4891928.0,3770684.0,0.0
1577366309807,5004968.0,3802656.0,0.0
1577366309854,5082351.0,3824568.0,0.0
1577366309901,5097195.0,3856782.0,0.0
1577366309952,5097764.0,3885498.0,0.0
1577366309998,5132283.0,3933988.0,0.0
1577366310056,5176139.0,3962451.0,0.0
1577366310097,5208974.0,3965153.0,0.0
1577366310151,5199150.0,3972904.0,0.0
1577366310201,5161845.0,3960488.0,0.0
1577366310263,5123817.0,3953225.0,0.0
1577366310298,5092148.0,3953560.0,0.0
1577366310345,5070764.0,3963954.0,0.0
1577366310397,5064716.0,3979977.0,0.0
1577366310439,5054573.0,3999750.0,0.0
1577366310496,5047994.0,4017141.0,0.0
1577366310540,5046983.0,4031955.0,0.0
1577366310591,5058685.0,4052569.0,0.0
1577366310640,5065159.0,4069044.0,0.0
1577366310683,5077739.0,4081326.0,0.0
1577366310738,5083363.0,4094220.0,0.0
1577366310787,5099131.0,4113062.0,0.0
1577366310834,5125705.0,4137626.0,0.0
1577366310882,5147099.0,4164278.0,0.0
1577366310930,5174184.0,4196794.0,0.0
1577366310982,5198244.0,4219176.0,0.0
1577366311029,5208376.0,4240166.0,0.0
1577366311080,5205006.0,4263864.0,0.0
1577366311126,5201393.0,4272457.0,0.0
1577366311176,5194729.0,4288873.0,0.0
1577366311220,5201231.0,4302992.0,0.0
1577366311272,5200199.0,4309694.0,0.0
1577366311328,5180984.0,4310668.0,0.0
1577366311371,5177140.0,4316582.0,0.0
1577366311420,5172624.0,4325703.0,0.0
1577366311463,5166969.0,4339082.0,0.0
1577366311519,5163916.0,4346875.0,0.0
1577366311560,5156490.0,4353771.0,0.0
1577366311611,5158022.0,4361616.0,0.0
1577366311665,5164474.0,4373890.0,0.0
1577366311712,5170494.0,4377908.0,0.0
1577366311763,5153917.0,4381858.0,0.0
1577366311806,5144787.0,4375718.0,0.0
1577366311861,5156124.0,4378697.0,0.0
1577366311902,5179645.0,4387303.0,0.0
1577366311959,5183902.0,4397043.0,0.0
1577366312001,5190355.0,4410197.0,0.0
1577366312057,5208521.0,4417235.0,0.0
1577366312100,5244381.0,4440498.0,0.0
1577366312152,5228430.0,4430986.0,0.0
1577366312202,5178199.0,4409207.0,0.0
1577366312255,5128856.0,4379879.0,0.0
1577366312301,5091011.0,4358018.0,0.0
1577366312341,5026054.0,4315450.0,0.0
1577366312398,4943660.0,4242330.0,0.0
1577366312442,4873435.0,4179537.0,0.0
1577366312495,4827499.0,4148246.0,0.0
1577366312543,4797880.0,4127148.0,0.0
1577366312594,4727673.0,4085940.0,0.0
1577366312641,4724996.0,4106880.0,0.0
1577366312683,4791273.0,4208438.0,0.0
1577366312730,4832873.0,4242432.0,0.0
1577366312782,4768331.0,4173448.0,0.0
1577366312830,4650965.0,4105303.0,0.0
1577366312884,4569083.0,4035933.0,0.0
1577366312934,4566714.0,4035781.0,0.0
1577366312982,4647612.0,4151174.0,0.0
1577366313031,4864900.0,4417572.0,0.0
1577366313084,5060526.0,4654413.0,0.0
1577366313126,5306961.0,4862415.0,0.0
1577366313178,5519490.0,4967009.0,0.0
1577366313224,5599983.0,5072487.0,0.0
1577366313276,5684130.0,5151957.0,0.0
1577366313322,5675123.0,5344666.0,0.0
1577366313371,5764315.0,5407760.0,0.0
1577366313423,5883426.0,5459206.0,0.0
1577366313464,5964544.0,5519823.0,0.0
1577366313520,6040856.0,5559828.0,0.0
1577366313562,6113005.0,5591771.0,0.0
1577366313612,6191408.0,5617371.0,0.0
1577366313666,6254730.0,5652343.0,0.0
1577366313714,6326460.0,5691138.0,0.0
1577366313764,6396702.0,5729706.0,0.0
1577366313814,6463989.0,5774923.0,0.0
1577366313862,6516319.0,5807227.0,0.0
1577366313903,6568773.0,5846215.0,0.0
1577366313959,6621712.0,5881051.0,0.0
1577366314005,6697878.0,5928271.0,0.0
1577366314056,6740900.0,5953948.0,0.0
1577366314099,6788492.0,5992460.0,0.0
1577366314154,7173860.0,6005282.0,0.0
1577366314203,7327052.0,6027026.0,0.0
1577366314258,7350003.0,6038763.0,0.0
1577366314298,7369651.0,6048363.0,0.0
1577366314344,7382942.0,6052093.0,0.0
1577366314398,7415626.0,6079920.0,0.0
1577366314447,7440885.0,6091217.0,0.0
1577366314494,7482956.0,6109342.0,0.0
1577366314544,7498542.0,6126789.0,0.0
1577366314588,7511421.0,6152874.0,0.0
1577366314641,7527106.0,6176971.0,0.0
1577366314684,7533859.0,6191217.0,0.0
1577366314732,7549388.0,6209219.0,0.0
1577366314784,7571829.0,6224404.0,0.0
1577366314828,7597701.0,6233811.0,0.0
1577366314880,7630853.0,6250240.0,0.0
1577366314928,7645299.0,6257680.0,0.0
1577366314977,7680916.0,6278361.0,0.0
1577366315027,7750855.0,6311107.0,0.0
1577366315081,7727477.0,6293353.0,0.0
1577366315126,7662666.0,6239126.0,0.0
1577366315179,7680860.0,6255079.0,0.0
1577366315226,7678425.0,6247775.0,0.0
1577366315273,7654717.0,6249719.0,0.0
1577366315329,7641909.0,6232555.0,0.0
1577366315365,7657838.0,6229560.0,0.0
1577366315421,7645614.0,6219406.0,0.0
1577366315464,7646553.0,6216567.0,0.0
1577366315519,7652439.0,6210043.0,0.0
1577366315568,7678238.0,6224642.0,0.0
1577366315611,7713571.0,6229831.0,0.0
1577366315667,7755742.0,6251302.0,0.0
1577366315713,7770204.0,6256662.0,0.0
1577366315764,7798625.0,6265425.0,0.0
1577366315809,7814341.0,6266465.0,0.0
1577366315862,7773509.0,6247661.0,0.0
1577366315904,7692856.0,6203678.0,0.0
1577366315959,7533875.0,6119586.0,0.0
1577366316009,7409400.0,6025138.0,0.0
1577366316058,7327137.0,5922232.0,0.0
1577366316099,7246970.0,5819292.0,0.0
1577366316148,7252014.0,5818794.0,0.0
1577366316202,7203573.0,5760134.0,0.0
1577366316253,7182046.0,5729922.0,0.0
1577366316299,7054208.0,5614305.0,0.0
1577366316348,6829834.0,5414950.0,0.0
1577366316397,6662146.0,5282771.0,0.0
1577366316446,6546575.0,5165267.0,0.0
1577366316494,6455080.0,5078054.0,0.0
1577366316544,6383247.0,5006266.0,0.0
1577366316586,6283164.0,4927874.0,0.0
1577366316642,6193408.0,4855801.0,0.0
1577366316688,6087936.0,4762609.0,0.0
1577366316739,5970657.0,4666928.0,0.0
1577366316785,5871754.0,4595490.0,0.0
1577366316838,5751708.0,4502320.0,0.0
1577366316886,5645468.0,4415435.0,0.0
1577366316927,5459860.0,4253234.0,0.0
1577366316984,5322475.0,4148317.0,0.0
1577366317027,5225597.0,4060143.0,0.0
1577366317080,5155786.0,3993896.0,0.0
1577366317130,5085406.0,3924085.0,0.0
1577366317176,5029757.0,3873452.0,0.0
1577366317226,4987018.0,3816385.0,0.0
1577366317270,5005509.0,3784330.0,0.0
1577366317319,5137195.0,3839939.0,0.0
1577366317368,5212175.0,3889633.0,0.0
1577366317421,5287472.0,3938706.0,0.0
1577366317469,5360046.0,3965921.0,0.0
1577366317518,5377425.0,3965458.0,0.0
1577366317569,5337364.0,3959387.0,0.0
1577366317613,5256954.0,3907328.0,0.0
1577366317668,5253350.0,3894156.0,0.0
1577366317708,5336665.0,3916160.0,0.0
1577366317764,5396830.0,3942030.0,0.0
1577366317812,5430369.0,3989396.0,0.0
1577366317861,5418472.0,4024448.0,0.0
1577366317903,5472225.0,4074674.0,0.0
1577366317952,5478778.0,4068805.0,0.0
1577366318007,5506547.0,4079898.0,0.0
1577366318048,5533089.0,4082328.0,0.0
1577366318099,5573806.0,4080473.0,0.0
1577366318148,5679349.0,4117652.0,0.0
1577366318202,5998650.0,4273011.0,0.0
1577366318262,6119948.0,4292640.0,0.0
1577366318291,6162577.0,4298361.0,0.0
1577366318349,6148843.0,4286602.0,0.0
1577366318390,6141378.0,4274255.0,0.0
1577366318447,6085086.0,4264576.0,0.0
1577366318488,6047703.0,4273905.0,0.0
1577366318543,6112911.0,4288593.0,0.0
1577366318588,6181268.0,4279139.0,0.0
1577366318640,6224750.0,4321371.0,0.0
1577366318683,6147701.0,4341680.0,0.0
1577366318731,6084945.0,4355226.0,0.0
1577366318788,6048929.0,4340459.0,0.0
1577366318833,6046080.0,4344675.0,0.0
1577366318885,6068305.0,4363513.0,0.0
1577366318933,6060654.0,4358877.0,0.0
1577366318982,6019566.0,4315233.0,0.0
1577366319032,6149783.0,4370738.0,0.0
1577366319072,6223953.0,4385517.0,0.0
1577366319129,6294589.0,4415843.0,0.0
1577366319171,6330163.0,4436648.0,0.0
1577366319224,6296883.0,4438469.0,0.0
1577366319278,6236674.0,4431435.0,0.0
1577366319319,6238640.0,4454523.0,0.0
1577366319373,6310602.0,4499153.0,0.0
1577366319413,6448442.0,4536082.0,0.0
1577366319471,6504788.0,4510122.0,0.0
1577366319513,6563315.0,4565107.0,0.0
1577366319568,6530391.0,4572265.0,0.0
1577366319612,6479500.0,4561942.0,0.0
1577366319668,6434124.0,4554242.0,0.0
1577366319715,6410304.0,4550137.0,0.0
1577366319760,6436730.0,4530927.0,0.0
1577366319811,6465011.0,4559997.0,0.0
1577366319853,6456875.0,4573216.0,0.0
1577366319903,6445222.0,4577850.0,0.0
1577366319952,6527042.0,4618963.0,0.0
1577366320007,6548725.0,4622435.0,0.0
1577366320051,6569157.0,4616114.0,0.0
1577366320098,6558727.0,4600057.0,0.0
1577366320153,6486310.0,4585642.0,0.0
1577366320196,6363102.0,4561558.0,0.0
1577366320259,6292994.0,4479739.0,0.0
1577366320292,6297026.0,4483539.0,0.0
1577366320348,6289973.0,4512914.0,0.0
1577366320392,6334466.0,4574199.0,0.0
1577366320446,6345208.0,4610190.0,0.0
1577366320494,6387650.0,4645298.0,0.0
1577366320539,6462745.0,4687270.0,0.0
1577366320589,6453557.0,4716499.0,0.0
1577366320633,6689914.0,4815752.0,0.0
1577366320683,6707095.0,4941318.0,0.0
1577366320730,6900981.0,5124776.0,0.0
1577366320786,6989742.0,5303157.0,0.0
1577366320835,7033351.0,5423520.0,0.0
1577366320883,7089768.0,5508211.0,0.0
1577366320930,7143096.0,5535620.0,0.0
1577366320975,7173427.0,5570456.0,0.0
1577366321035,7191193.0,5595932.0,0.0
1577366321073,7256629.0,5640504.0,0.0
1577366321128,7314670.0,5670446.0,0.0
1577366321171,7347581.0,5704502.0,0.0
1577366321222,7382400.0,5740493.0,0.0
1577366321272,7385021.0,5780656.0,0.0
1577366321317,7428218.0,5808958.0,0.0
1577366321371,7458721.0,5822809.0,0.0
1577366321412,7497459.0,5843195.0,0.0
1577366321470,7516879.0,5834705.0,0.0
1577366321512,7550814.0,5831324.0,0.0
1577366321567,7589980.0,5870728.0,0.0
1577366321616,7572584.0,5861524.0,0.0
1577366321664,7561728.0,5874222.0,0.0
1577366321709,7591375.0,5910970.0,0.0
1577366321756,7615751.0,5919416.0,0.0
1577366321809,7586887.0,5935721.0,0.0
1577366321856,7571543.0,5955429.0,0.0
1577366321900,7596789.0,5985076.0,0.0
1577366321953,7642421.0,6059635.0,0.0
1577366322003,7653363.0,6096837.0,0.0
1577366322052,7638489.0,6106075.0,0.0
1577366322096,7657282.0,6124290.0,0.0
1577366322152,7682926.0,6130962.0,0.0
1577366322194,7697359.0,6146226.0,0.0
1577366322260,7747351.0,6167393.0,0.0
1577366322298,7719554.0,6135722.0,0.0
1577366322344,7703014.0,6096983.0,0.0
1577366322394,7677998.0,6068150.0,0.0
1577366322441,7603399.0,6022696.0,0.0
1577366322490,7540869.0,5985156.0,0.0
1577366322537,7483240.0,5945876.0,0.0
1577366322591,7442268.0,5909455.0,0.0
1577366322632,7436654.0,5878530.0,0.0
1577366322680,7355916.0,5878371.0,0.0
1577366322739,7270177.0,5884885.0,0.0
1577366322784,7158425.0,5858834.0,0.0
1577366322833,7046786.0,5736084.0,0.0
1577366322879,6999557.0,5643410.0,0.0
1577366322931,6978470.0,5616804.0,0.0
1577366322974,6913077.0,5533336.0,0.0
1577366323026,6882490.0,5502908.0,0.0
1577366323078,6744637.0,5376020.0,0.0
1577366323126,6794572.0,5408201.0,0.0
1577366323172,6712253.0,5336084.0,0.0
1577366323219,6590812.0,5237044.0,0.0
1577366323271,6564669.0,5238615.0,0.0
1577366323316,6535874.0,5219405.0,0.0
1577366323372,6533952.0,5236480.0,0.0
1577366323419,6418908.0,5150037.0,0.0
1577366323466,6354298.0,5129784.0,0.0
1577366323514,6224721.0,5022470.0,0.0
1577366323565,6151605.0,4962271.0,0.0
1577366323609,6107056.0,4914159.0,0.0
1577366323659,6032061.0,4855531.0,0.0
1577366323708,5903352.0,4756866.0,0.0
1577366323754,5789547.0,4663062.0,0.0
1577366323815,5701716.0,4599198.0,0.0
1577366323858,5589949.0,4514023.0,0.0
1577366323899,5563507.0,4483831.0,0.0
1577366323954,5519897.0,4428247.0,0.0
1577366324003,5550727.0,4457984.0,0.0
1577366324050,5592371.0,4506752.0,0.0
1577366324096,5583536.0,4513897.0,0.0
1577366324151,5584706.0,4501154.0,0.0
1577366324198,5666127.0,4538502.0,0.0
1577366324260,5682539.0,4553043.0,0.0
1577366324293,5672609.0,4575126.0,0.0
1577366324345,5633303.0,4543093.0,0.0
1577366324390,5651781.0,4523351.0,0.0
1577366324440,5735211.0,4541612.0,0.0
1577366324489,5800647.0,4542573.0,0.0
1577366324536,5833728.0,4531537.0,0.0
1577366324590,5925793.0,4553268.0,0.0
1577366324640,6062092.0,4605350.0,0.0
1577366324679,6250209.0,4657058.0,0.0
1577366324733,6298705.0,4649504.0,0.0
1577366324781,6259827.0,4629152.0,0.0
1577366324831,6239938.0,4609680.0,0.0
1577366324876,6216814.0,4621791.0,0.0
1577366324932,6225948.0,4623339.0,0.0
1577366324977,6304576.0,4635517.0,0.0
1577366325029,6318126.0,4658742.0,0.0
1577366325076,6286837.0,4665435.0,0.0
1577366325128,6273175.0,4668986.0,0.0
1577366325171,6219279.0,4643342.0,0.0
1577366325216,6214863.0,4647062.0,0.0
1577366325270,6220618.0,4644937.0,0.0
1577366325317,6214947.0,4624164.0,0.0
1577366325368,6204349.0,4605645.0,0.0
1577366325418,6230064.0,4629514.0,0.0
1577366325467,6334978.0,4682136.0,0.0
1577366325514,6415232.0,4711263.0,0.0
1577366325562,6451432.0,4712326.0,0.0
1577366325608,6460139.0,4701143.0,0.0
1577366325658,6444751.0,4697695.0,0.0
1577366325713,6429022.0,4711704.0,0.0
1577366325761,6542786.0,4737180.0,0.0
1577366325810,6605701.0,4759885.0,0.0
1577366325856,6606041.0,4782803.0,0.0
1577366325899,6589473.0,4785676.0,0.0
1577366325955,6542144.0,4757703.0,0.0
1577366325997,6516684.0,4745331.0,0.0
1577366326050,6514191.0,4749730.0,0.0
1577366326097,6499461.0,4733415.0,0.0
1577366326151,6459197.0,4701574.0,0.0
1577366326199,6459269.0,4700511.0,0.0
1577366326248,6543383.0,4743501.0,0.0
1577366326296,6594757.0,4755677.0,0.0
1577366326345,6611883.0,4747276.0,0.0
1577366326392,6616826.0,4742074.0,0.0
1577366326436,6619164.0,4739768.0,0.0
1577366326494,6596167.0,4747615.0,0.0
1577366326537,6674782.0,4772685.0,0.0
1577366326588,6713863.0,4775692.0,0.0
1577366326636,6719703.0,4806775.0,0.0
1577366326679,6689387.0,4816069.0,0.0
1577366326733,6656875.0,4799786.0,0.0
1577366326775,6613150.0,4789656.0,0.0
1577366326837,6609006.0,4793490.0,0.0
1577366326878,6610557.0,4800160.0,0.0
1577366326932,6568857.0,4759657.0,0.0
1577366326979,6563386.0,4765730.0,0.0
1577366327024,6635916.0,4823033.0,0.0
1577366327077,6719418.0,4876517.0,0.0
1577366327126,6899230.0,4942008.0,0.0
1577366327174,6926955.0,4942583.0,0.0
1577366327217,6897164.0,4928768.0,0.0
1577366327270,6869411.0,4924458.0,0.0
1577366327322,6880865.0,4922311.0,0.0
1577366327362,6903047.0,4912451.0,0.0
1577366327417,6949478.0,4954083.0,0.0
1577366327463,6892776.0,4964396.0,0.0
1577366327516,6927667.0,4981278.0,0.0
1577366327557,6859095.0,4943071.0,0.0
1577366327607,6872660.0,4970185.0,0.0
1577366327659,6860677.0,4968513.0,0.0
1577366327719,6814474.0,4934353.0,0.0
1577366327757,6808435.0,4938865.0,0.0
1577366327818,6853068.0,4965313.0,0.0
1577366327855,6927751.0,5000941.0,0.0
1577366327897,6952942.0,5013061.0,0.0
1577366327955,6951731.0,4998826.0,0.0
1577366327998,6938851.0,4988367.0,0.0
1577366328052,6917409.0,4999334.0,0.0
1577366328096,6914787.0,5000771.0,0.0
1577366328146,6978600.0,4996349.0,0.0
1577366328198,6967956.0,5002591.0,0.0
1577366328239,6972602.0,5031820.0,0.0
1577366328296,6937669.0,5034963.0,0.0
1577366328340,6901081.0,5006910.0,0.0
1577366328391,6886208.0,5002252.0,0.0
1577366328440,6881308.0,5009273.0,0.0
1577366328492,6826426.0,4968738.0,0.0
1577366328539,6806924.0,4946757.0,0.0
1577366328584,6819020.0,4949843.0,0.0
1577366328636,6924346.0,5006346.0,0.0
1577366328680,6973386.0,5020637.0,0.0
1577366328735,6990254.0,5027388.0,0.0
1577366328779,6998046.0,5000929.0,0.0
1577366328830,6981647.0,5016612.0,0.0
1577366328881,7010426.0,5040312.0,0.0
1577366328928,7057955.0,5041623.0,0.0
1577366328978,7093358.0,5066091.0,0.0
1577366329018,7077573.0,5086998.0,0.0
1577366329076,7043038.0,5086943.0,0.0
1577366329122,6996295.0,5048035.0,0.0
1577366329172,6974924.0,5045298.0,0.0
1577366329223,6976448.0,5056640.0,0.0
1577366329271,6921740.0,5034183.0,0.0
1577366329319,6911426.0,5034930.0,0.0
1577366329369,6928051.0,5051030.0,0.0
1577366329417,7041927.0,5112382.0,0.0
1577366329460,7091719.0,5114260.0,0.0
1577366329516,7107051.0,5097955.0,0.0
1577366329561,7107420.0,5084942.0,0.0
1577366329607,7114800.0,5117856.0,0.0
1577366329661,7153894.0,5168375.0,0.0
1577366329708,7212648.0,5165685.0,0.0
1577366329758,7228149.0,5175466.0,0.0
1577366329800,7223674.0,5181956.0,0.0
1577366329857,7216980.0,5192856.0,0.0
1577366329901,7154037.0,5182929.0,0.0
1577366329954,7125102.0,5189339.0,0.0
1577366330002,7120627.0,5203982.0,0.0
1577366330050,7093288.0,5168014.0,0.0
1577366330096,7015797.0,5115198.0,0.0
1577366330141,7001111.0,5128338.0,0.0
1577366330197,7101365.0,5187157.0,0.0
1577366330240,7162997.0,5213988.0,0.0
1577366330295,7146001.0,5196485.0,0.0
1577366330344,7146529.0,5187474.0,0.0
1577366330393,7129958.0,5191454.0,0.0
1577366330442,7112878.0,5192799.0,0.0
1577366330485,7156103.0,5185800.0,0.0
1577366330539,7162885.0,5202072.0,0.0
1577366330579,7165962.0,5224844.0,0.0
1577366330637,7137495.0,5221044.0,0.0
1577366330685,7103216.0,5199380.0,0.0
1577366330734,7087887.0,5198498.0,0.0
1577366330782,7079198.0,5198124.0,0.0
1577366330828,7054878.0,5172447.0,0.0
1577366330877,7037568.0,5155994.0,0.0
1577366330921,7023761.0,5147617.0,0.0
1577366330978,7116510.0,5196405.0,0.0
1577366331023,7133035.0,5203395.0,0.0
1577366331076,7142369.0,5199865.0,0.0
1577366331123,7142382.0,5189453.0,0.0
1577366331172,7133278.0,5195333.0,0.0
1577366331221,7116339.0,5199890.0,0.0
1577366331262,7177830.0,5199345.0,0.0
1577366331316,7178214.0,5225272.0,0.0
1577366331361,7172200.0,5247402.0,0.0
1577366331417,7157583.0,5243895.0,0.0
1577366331463,7099883.0,5205339.0,0.0
1577366331514,7073029.0,5198396.0,0.0
1577366331561,7054136.0,5184851.0,0.0
1577366331605,7008092.0,5158087.0,0.0
1577366331659,6969538.0,5119496.0,0.0
1577366331707,6997562.0,5136489.0,0.0
1577366331757,7098844.0,5184828.0,0.0
1577366331804,7144491.0,5192913.0,0.0
1577366331857,7123960.0,5180385.0,0.0
1577366331899,7134888.0,5179660.0,0.0
1577366331947,7109657.0,5180214.0,0.0
1577366332000,7154777.0,5196960.0,0.0
1577366332041,7185991.0,5189871.0,0.0
1577366332092,7218731.0,5253270.0,0.0
1577366332142,7137154.0,5255588.0,0.0
1577366332196,7095994.0,5253847.0,0.0
1577366332245,7044748.0,5215313.0,0.0
1577366332291,7040844.0,5224336.0,0.0
1577366332334,7031797.0,5207511.0,0.0
1577366332388,6987120.0,5162394.0,0.0
1577366332440,6960947.0,5129797.0,0.0
1577366332481,7033935.0,5164566.0,0.0
1577366332536,7076761.0,5177772.0,0.0
1577366332584,7042368.0,5170830.0,0.0
1577366332636,7028820.0,5173079.0,0.0
1577366332688,7034990.0,5178156.0,0.0
1577366332726,7000811.0,5185292.0,0.0
1577366332781,7041157.0,5185846.0,0.0
1577366332823,7034831.0,5169225.0,0.0
1577366332878,7074224.0,5243400.0,0.0
1577366332926,6957258.0,5232589.0,0.0
1577366332977,6897692.0,5225918.0,0.0
1577366333025,6852072.0,5179219.0,0.0
1577366333071,6845703.0,5161480.0,0.0
1577366333122,6822494.0,5130428.0,0.0
1577366333164,6857528.0,5120095.0,0.0
1577366333211,6869340.0,5098227.0,0.0
1577366333263,6968199.0,5131966.0,0.0
1577366333308,6991948.0,5133222.0,0.0
1577366333357,6949849.0,5124821.0,0.0
1577366333407,6918307.0,5120885.0,0.0
1577366333463,6872901.0,5138775.0,0.0
1577366333508,6840320.0,5132249.0,0.0
1577366333561,6936558.0,5111808.0,0.0
1577366333604,6957429.0,5158765.0,0.0
1577366333658,6905384.0,5170852.0,0.0
1577366333703,6881036.0,5198102.0,0.0
1577366333756,6831941.0,5177547.0,0.0
1577366333805,6799700.0,5158280.0,0.0
1577366333852,6769825.0,5131582.0,0.0
1577366333895,6746288.0,5075421.0,0.0
1577366333947,6771448.0,5054490.0,0.0
1577366334000,6859438.0,5091884.0,0.0
1577366334046,6916669.0,5098351.0,0.0
1577366334094,6928335.0,5097061.0,0.0
1577366334147,6936386.0,5095230.0,0.0
1577366334197,6925601.0,5091533.0,0.0
1577366334243,6862958.0,5111761.0,0.0
1577366334289,6832496.0,5085314.0,0.0
1577366334334,6766033.0,5002851.0,0.0
1577366334383,6703761.0,5035869.0,0.0
1577366334438,6705740.0,5084263.0,0.0
1577366334486,6675525.0,5072288.0,0.0
1577366334535,6655805.0,5044144.0,0.0
1577366334581,6696709.0,5054955.0,0.0
1577366334627,6671577.0,5021214.0,0.0
1577366334678,6709616.0,5014395.0,0.0
1577366334725,6745448.0,5007577.0,0.0
1577366334781,6867814.0,5077908.0,0.0
1577366334828,6871846.0,5071225.0,0.0
1577366334878,6873699.0,5065526.0,0.0
1577366334927,6900014.0,5070378.0,0.0
1577366334974,6895098.0,5083515.0,0.0
1577366335025,6916682.0,5088152.0,0.0
1577366335065,6978513.0,5089712.0,0.0
1577366335123,6966901.0,5099347.0,0.0
1577366335166,6953098.0,5111840.0,0.0
1577366335221,6920215.0,5115877.0,0.0
1577366335269,6886051.0,5096486.0,0.0
1577366335318,6892518.0,5104954.0,0.0
1577366335367,6886551.0,5101257.0,0.0
1577366335407,6905200.0,5093816.0,0.0
1577366335465,6932026.0,5072424.0,0.0
1577366335507,7013931.0,5104152.0,0.0
1577366335562,7003773.0,5102049.0,0.0
1577366335607,6999342.0,5116860.0,0.0
1577366335660,7008061.0,5108912.0,0.0
1577366335702,6996920.0,5115345.0,0.0
1577366335754,7007933.0,5117698.0,0.0
1577366335806,7108390.0,5112303.0,0.0
1577366335850,7147484.0,5152286.0,0.0
1577366335897,7095879.0,5164734.0,0.0
1577366335947,7021427.0,5183833.0,0.0
1577366336001,6954222.0,5150894.0,0.0
1577366336048,6958254.0,5158651.0,0.0
1577366336094,6961018.0,5140256.0,0.0
1577366336149,7037340.0,5176415.0,0.0
1577366336195,6957214.0,5109353.0,0.0
1577366336247,7103260.0,5216195.0,0.0
1577366336288,7223319.0,5287598.0,0.0
1577366336338,7249789.0,5287881.0,0.0
1577366336387,7265505.0,5276009.0,0.0
1577366336439,7238420.0,5252490.0,0.0
1577366336489,7204441.0,5251709.0,0.0
1577366336537,7233064.0,5259784.0,0.0
1577366336588,7293642.0,5260958.0,0.0
1577366336628,7334033.0,5295026.0,0.0
1577366336687,7290024.0,5301902.0,0.0
1577366336728,7265461.0,5314486.0,0.0
1577366336782,7168227.0,5270523.0,0.0
1577366336828,7133178.0,5263333.0,0.0
1577366336878,7119244.0,5242969.0,0.0
1577366336931,7145802.0,5225658.0,0.0
1577366336975,7240514.0,5247244.0,0.0
1577366337027,7360261.0,5295932.0,0.0
1577366337068,7374607.0,5316205.0,0.0
1577366337126,7336596.0,5295616.0,0.0
1577366337169,7313018.0,5277354.0,0.0
1577366337221,7225000.0,5246362.0,0.0
1577366337271,7122480.0,5218048.0,0.0
1577366337317,7184184.0,5217359.0,0.0
1577366337368,7210270.0,5256933.0,0.0
1577366337409,7141370.0,5260507.0,0.0
1577366337466,7085393.0,5270276.0,0.0
1577366337513,7010654.0,5228304.0,0.0
1577366337563,7021711.0,5224051.0,0.0
1577366337612,7024261.0,5243274.0,0.0
1577366337655,7001963.0,5239826.0,0.0
1577366337703,6820587.0,5071678.0,0.0
1577366337752,6884613.0,5170627.0,0.0
1577366337807,6896737.0,5175070.0,0.0
1577366337851,6826257.0,5107850.0,0.0
1577366337898,6887690.0,5153304.0,0.0
1577366337953,6897605.0,5142800.0,0.0
1577366337999,6977159.0,5236512.0,0.0
1577366338051,6967088.0,5237599.0,0.0
1577366338095,6930629.0,5188683.0,0.0
1577366338149,6784355.0,5148871.0,0.0
1577366338191,6731857.0,5170976.0,0.0
1577366338246,6678886.0,5159580.0,0.0
1577366338292,6650933.0,5136197.0,0.0
1577366338337,6690526.0,5151620.0,0.0
1577366338393,6705812.0,5138151.0,0.0
1577366338441,6711027.0,5103733.0,0.0
1577366338491,6709388.0,5074854.0,0.0
1577366338531,6795340.0,5129220.0,0.0
1577366338587,6858071.0,5163016.0,0.0
1577366338632,6866534.0,5166793.0,0.0
1577366338686,6867046.0,5147922.0,0.0
1577366338734,6872302.0,5150894.0,0.0
1577366338781,6837967.0,5155892.0,0.0
1577366338829,6928506.0,5177128.0,0.0
1577366338881,6942312.0,5184195.0,0.0
1577366338932,6942597.0,5242880.0,0.0
1577366338971,6918663.0,5273669.0,0.0
1577366339028,6874539.0,5250996.0,0.0
1577366339071,6853811.0,5230362.0,0.0
1577366339126,6868129.0,5230587.0,0.0
1577366339174,6789102.0,5148566.0,0.0
1577366339215,6886008.0,5189859.0,0.0
1577366339270,6913134.0,5187474.0,0.0
1577366339315,6964879.0,5212712.0,0.0
1577366339371,6942525.0,5204333.0,0.0
1577366339411,6959936.0,5217822.0,0.0
1577366339469,7001579.0,5236467.0,0.0
1577366339511,7009075.0,5253959.0,0.0
1577366339565,7025827.0,5251630.0,0.0
1577366339614,7093386.0,5275420.0,0.0
1577366339661,7036997.0,5304819.0,0.0
1577366339708,6867458.0,5272356.0,0.0
1577366339757,6776250.0,5242788.0,0.0
1577366339811,6745361.0,5216499.0,0.0
1577366339853,6761745.0,5214260.0,0.0
1577366339901,6712852.0,5157329.0,0.0
1577366339950,6666961.0,5117685.0,0.0
1577366339998,6669583.0,5111208.0,0.0
1577366340052,6779128.0,5170106.0,0.0
1577366340093,6831257.0,5168398.0,0.0
1577366340144,6808064.0,5150025.0,0.0
1577366340197,6791879.0,5165017.0,0.0
1577366340248,6763770.0,5183110.0,0.0
1577366340290,6818933.0,5190899.0,0.0
1577366340340,6905640.0,5206312.0,0.0
1577366340393,6880138.0,5240470.0,0.0
1577366340444,6811284.0,5239860.0,0.0
1577366340490,6862571.0,5252093.0,0.0
1577366340539,6973086.0,5293104.0,0.0
1577366340591,6958013.0,5300126.0,0.0
1577366340633,6873799.0,5209205.0,0.0
1577366340690,6945077.0,5251088.0,0.0
1577366340732,6896936.0,5180712.0,0.0
1577366340785,6967073.0,5227682.0,0.0
1577366340835,6970293.0,5229186.0,0.0
1577366340883,6921313.0,5204807.0,0.0
1577366340929,6932567.0,5201574.0,0.0
1577366340978,6867914.0,5235405.0,0.0
1577366341032,6832980.0,5238536.0,0.0
1577366341070,6981007.0,5260767.0,0.0
1577366341128,7068526.0,5314803.0,0.0
1577366341177,7039633.0,5318692.0,0.0
1577366341226,7003944.0,5334454.0,0.0
1577366341270,6990566.0,5323091.0,0.0
1577366341318,7037980.0,5318974.0,0.0
1577366341373,7102661.0,5324109.0,0.0
1577366341413,7122877.0,5313922.0,0.0
1577366341468,7070876.0,5259184.0,0.0
1577366341516,7025459.0,5209443.0,0.0
1577366341565,7199641.0,5340346.0,0.0
1577366341610,7169623.0,5313932.0,0.0
1577366341664,7076989.0,5272628.0,0.0
1577366341709,7070707.0,5286999.0,0.0
1577366341759,7026142.0,5294145.0,0.0
1577366341811,6979212.0,5301575.0,0.0
1577366341852,7041088.0,5329842.0,0.0
1577366341901,7089413.0,5370286.0,0.0
1577366341957,7085352.0,5393501.0,0.0
1577366342005,6996679.0,5380419.0,0.0
1577366342053,6949194.0,5354514.0,0.0
1577366342096,6951544.0,5351980.0,0.0
1577366342149,6972259.0,5340198.0,0.0
1577366342198,6937397.0,5317562.0,0.0
1577366342250,6975052.0,5344146.0,0.0
1577366342293,6815201.0,5220321.0,0.0
1577366342340,6852600.0,5308178.0,0.0
1577366342398,6841658.0,5316374.0,0.0
1577366342446,6994129.0,5372379.0,0.0
1577366342493,7136542.0,5435121.0,0.0
1577366342541,7165934.0,5483493.0,0.0
1577366342589,7139148.0,5515776.0,0.0
1577366342634,7152768.0,5540878.0,0.0
1577366342693,7214172.0,5603902.0,0.0
1577366342735,7254648.0,5624888.0,0.0
1577366342787,7205696.0,5601473.0,0.0
1577366342835,7138293.0,5530723.0,0.0
1577366342885,7154949.0,5551325.0,0.0
1577366342933,7146086.0,5529955.0,0.0
1577366342980,7164380.0,5528903.0,0.0
1577366343030,7378498.0,5678553.0,0.0
1577366343073,7514969.0,5769033.0,0.0
1577366343131,7701319.0,5887248.0,0.0
1577366343179,7729144.0,5934545.0,0.0
1577366343227,7706946.0,5870208.0,0.0
1577366343274,7699737.0,5852637.0,0.0
1577366343325,7654090.0,5832080.0,0.0
1577366343371,7651456.0,5827004.0,0.0
1577366343415,7635855.0,5825026.0,0.0
1577366343466,7672468.0,5877705.0,0.0
1577366343521,7594895.0,5875297.0,0.0
1577366343568,7483156.0,5827772.0,0.0
1577366343621,7452267.0,5813672.0,0.0
1577366343665,7470021.0,5803371.0,0.0
1577366343714,7497431.0,5814125.0,0.0
1577366343761,7494497.0,5773080.0,0.0
1577366343809,7553948.0,5793095.0,0.0
1577366343854,7534630.0,5736864.0,0.0
1577366343904,7609326.0,5802739.0,0.0
1577366343957,7657666.0,5826415.0,0.0
1577366344008,7655700.0,5824686.0,0.0
1577366344054,7643420.0,5815381.0,0.0
1577366344099,7617361.0,5816986.0,0.0
1577366344154,7650442.0,5815188.0,0.0
1577366344201,7667909.0,5825422.0,0.0
1577366344254,7672256.0,5834341.0,0.0
1577366344295,7555358.0,5826076.0,0.0
1577366344343,7459476.0,5798328.0,0.0
1577366344396,7431639.0,5783698.0,0.0
1577366344447,7409500.0,5752681.0,0.0
1577366344497,7376033.0,5707261.0,0.0
1577366344543,7385579.0,5699821.0,0.0
1577366344594,7281090.0,5574855.0,0.0
1577366344639,7386903.0,5674798.0,0.0
1577366344689,7416609.0,5709025.0,0.0
1577366344738,7378654.0,5683947.0,0.0
1577366344791,7357854.0,5690731.0,0.0
1577366344837,7338250.0,5707680.0,0.0
1577366344885,7334090.0,5695492.0,0.0
1577366344934,7367086.0,5666137.0,0.0
1577366344982,7314472.0,5689589.0,0.0
1577366345026,7141358.0,5595989.0,0.0
1577366345076,7054108.0,5546666.0,0.0
1577366345131,6913006.0,5429028.0,0.0
1577366345177,6846402.0,5369665.0,0.0
1577366345229,6783431.0,5299019.0,0.0
1577366345277,6810173.0,5288118.0,0.0
1577366345319,6835289.0,5250657.0,0.0
1577366345374,6980922.0,5362113.0,0.0
1577366345417,7021982.0,5377875.0,0.0
1577366345470,6990566.0,5340153.0,0.0
1577366345519,6968327.0,5303417.0,0.0
1577366345571,6915942.0,5349300.0,0.0
1577366345618,6814873.0,5301629.0,0.0
1577366345664,6832752.0,5276529.0,0.0
1577366345717,6779811.0,5283777.0,0.0
1577366345762,6683857.0,5258256.0,0.0
1577366345815,6658713.0,5248396.0,0.0
1577366345857,6644067.0,5233257.0,0.0
1577366345906,6626114.0,5215244.0,0.0
1577366345959,6507110.0,5135811.0,0.0
1577366346009,6465367.0,5101777.0,0.0
1577366346058,6394275.0,5028790.0,0.0
1577366346101,6379898.0,5027037.0,0.0
1577366346156,6458813.0,5060030.0,0.0
1577366346196,6504217.0,5115188.0,0.0
1577366346254,6589217.0,5187689.0,0.0
1577366346297,6688588.0,5230372.0,0.0
1577366346345,6777930.0,5245763.0,0.0
1577366346400,6875978.0,5267799.0,0.0
1577366346443,6960092.0,5292007.0,0.0
1577366346497,7008916.0,5353043.0,0.0
1577366346540,7031641.0,5349934.0,0.0
1577366346593,6998758.0,5317075.0,0.0
1577366346637,7043409.0,5337439.0,0.0
1577366346691,7141742.0,5385043.0,0.0
1577366346742,7195381.0,5451473.0,0.0
1577366346791,7180124.0,5452592.0,0.0
1577366346839,7112906.0,5389385.0,0.0
1577366346884,6964495.0,5270276.0,0.0
1577366346936,6922936.0,5242233.0,0.0
1577366346977,6871746.0,5224076.0,0.0
1577366347035,6887703.0,5240254.0,0.0
1577366347078,6917422.0,5292121.0,0.0
1577366347129,6926840.0,5303734.0,0.0
1577366347180,6909788.0,5312552.0,0.0
1577366347226,6887147.0,5375433.0,0.0
1577366347278,6876648.0,5432996.0,0.0
1577366347319,6863513.0,5451958.0,0.0
1577366347376,6886919.0,5510631.0,0.0
1577366347419,6920657.0,5581175.0,0.0
1577366347474,6964766.0,5663752.0,0.0
1577366347521,6996436.0,5695626.0,0.0
1577366347570,7028505.0,5717290.0,0.0
1577366347618,7056601.0,5767992.0,0.0
1577366347667,7005895.0,5766601.0,0.0
1577366347718,6903831.0,5674506.0,0.0
1577366347762,6865024.0,5638367.0,0.0
1577366347815,6875937.0,5637101.0,0.0
1577366347861,6908090.0,5615266.0,0.0
1577366347907,6995312.0,5641002.0,0.0
1577366347961,7015741.0,5662756.0,0.0
1577366348007,6976634.0,5677456.0,0.0
1577366348060,6930900.0,5653961.0,0.0
1577366348102,7008376.0,5756854.0,0.0
1577366348158,6940262.0,5728361.0,0.0
1577366348198,6981905.0,5730135.0,0.0
1577366348254,7010726.0,5757127.0,0.0
1577366348297,7032281.0,5754548.0,0.0
1577366348344,7076974.0,5775059.0,0.0
1577366348391,7050375.0,5752976.0,0.0
1577366348440,6966804.0,5695118.0,0.0
1577366348489,6921341.0,5658109.0,0.0
1577366348539,6919431.0,5679038.0,0.0
1577366348594,6953838.0,5715675.0,0.0
1577366348642,7003489.0,5742618.0,0.0
1577366348693,7024232.0,5809444.0,0.0
1577366348735,7046914.0,5823386.0,0.0
1577366348787,7018219.0,5786162.0,0.0
1577366348839,6934748.0,5710677.0,0.0
1577366348881,6869596.0,5619112.0,0.0
1577366348938,6887490.0,5612564.0,0.0
1577366348979,6917893.0,5611231.0,0.0
1577366349035,6949178.0,5609614.0,0.0
1577366349082,7049448.0,5649109.0,0.0
1577366349130,7146513.0,5609116.0,0.0
1577366349181,7208445.0,5604051.0,0.0
1577366349224,7194626.0,5605792.0,0.0
1577366349279,7128706.0,5596621.0,0.0
1577366349320,7077273.0,5563278.0,0.0
1577366349376,6981463.0,5491646.0,0.0
1577366349423,6909117.0,5497831.0,0.0
1577366349474,6856005.0,5466827.0,0.0
1577366349522,6805870.0,5413558.0,0.0
1577366349570,6751518.0,5359465.0,0.0
1577366349617,6631416.0,5273092.0,0.0
1577366349664,6477747.0,5129853.0,0.0
1577366349710,6471649.0,5105078.0,0.0
1577366349760,6486266.0,5132804.0,0.0
1577366349816,6514946.0,5134443.0,0.0
1577366349863,6554667.0,5153859.0,0.0
1577366349908,6588590.0,5167744.0,0.0
1577366349962,6609745.0,5213604.0,0.0
1577366350011,6600627.0,5211308.0,0.0
1577366350060,6703377.0,5236230.0,0.0
1577366350101,6742056.0,5263038.0,0.0
1577366350159,6711311.0,5264069.0,0.0
1577366350201,6683901.0,5266273.0,0.0
1577366350256,6658385.0,5242201.0,0.0
1577366350304,6697192.0,5242313.0,0.0
1577366350347,6678714.0,5207566.0,0.0
1577366350401,6687562.0,5181346.0,0.0
1577366350443,6661235.0,5135439.0,0.0
1577366350499,6827225.0,5234139.0,0.0
1577366350542,6869739.0,5225262.0,0.0
1577366350595,6858142.0,5213344.0,0.0
1577366350644,6869452.0,5197933.0,0.0
1577366350695,6888317.0,5216103.0,0.0
1577366350736,6871662.0,5227828.0,0.0
1577366350790,6961546.0,5242099.0,0.0
1577366350841,7013990.0,5266102.0,0.0
1577366350881,7017008.0,5299640.0,0.0
1577366350938,6974382.0,5307509.0,0.0
1577366350982,6951600.0,5290233.0,0.0
1577366351037,6963256.0,5289701.0,0.0
1577366351085,6975792.0,5285800.0,0.0
1577366351136,6959408.0,5254107.0,0.0
1577366351182,6941614.0,5226833.0,0.0
1577366351226,6988003.0,5251202.0,0.0
1577366351279,7057628.0,5268173.0,0.0
1577366351322,7044748.0,5238198.0,0.0
1577366351378,7035386.0,5218320.0,0.0
1577366351424,7039833.0,5220423.0,0.0
1577366351475,7028121.0,5247504.0,0.0
1577366351524,7081461.0,5262982.0,0.0
1577366351565,7101793.0,5235868.0,0.0
1577366351620,7087718.0,5295796.0,0.0
1577366351662,6983756.0,5254345.0,0.0
1577366351718,6901980.0,5200420.0,0.0
1577366351764,6869452.0,5185913.0,0.0
1577366351816,6881349.0,5202761.0,0.0
1577366351866,6854095.0,5191984.0,0.0
1577366351906,6831628.0,5171350.0,0.0
1577366351960,6818449.0,5169529.0,0.0
1577366352010,6957757.0,5258506.0,0.0
1577366352062,7022051.0,5275442.0,0.0
1577366352106,7023505.0,5256378.0,0.0
1577366352159,7013847.0,5237666.0,0.0
1577366352205,6997419.0,5252750.0,0.0
1577366352255,7057684.0,5270627.0,0.0
1577366352303,7092006.0,5251212.0,0.0
1577366352347,7120842.0,5321914.0,0.0
1577366352401,7059166.0,5291940.0,0.0
1577366352444,6981934.0,5276155.0,0.0
1577366352499,6892917.0,5222491.0,0.0
1577366352545,6906368.0,5237701.0,0.0
1577366352594,6908674.0,5235189.0,0.0
1577366352645,6920714.0,5231593.0,0.0
1577366352695,6869539.0,5144880.0,0.0
1577366352736,6997762.0,5244755.0,0.0
1577366352785,7040189.0,5252059.0,0.0
1577366352840,7046458.0,5242709.0,0.0
1577366352883,7074967.0,5256515.0,0.0
1577366352939,7069696.0,5257703.0,0.0
1577366352986,7045987.0,5269768.0,0.0
1577366353037,7097461.0,5252004.0,0.0
1577366353085,7078771.0,5216363.0,0.0
1577366353132,7119088.0,5298194.0,0.0
1577366353182,7015941.0,5265731.0,0.0
1577366353227,6967644.0,5260009.0,0.0
1577366353280,6967843.0,5253904.0,0.0
1577366353326,6957957.0,5234872.0,0.0
1577366353377,6978741.0,5237339.0,0.0
1577366353427,6946457.0,5195400.0,0.0
1577366353473,6957286.0,5179174.0,0.0
1577366353516,7086832.0,5240324.0,0.0
1577366353570,7144307.0,5262644.0,0.0
1577366353622,7110768.0,5214825.0,0.0
1577366353665,7116011.0,5199154.0,0.0
1577366353713,7090496.0,5228789.0,0.0
1577366353768,7056972.0,5231571.0,0.0
1577366353808,7091535.0,5226359.0,0.0
1577366353866,7128591.0,5292755.0,0.0
1577366353909,7109414.0,5285766.0,0.0
1577366353963,7100881.0,5298848.0,0.0
1577366354007,7068385.0,5285743.0,0.0
1577366354062,7049052.0,5268636.0,0.0
1577366354106,7050219.0,5267709.0,0.0
1577366354156,7061076.0,5263412.0,0.0
1577366354206,7036828.0,5227083.0,0.0
1577366354249,6975280.0,5157103.0,0.0
1577366354304,7079539.0,5236400.0,0.0
1577366354345,7065036.0,5213309.0,0.0
1577366354402,7073569.0,5204752.0,0.0
1577366354446,7076049.0,5228371.0,0.0
1577366354499,7107008.0,5309590.0,0.0
1577366354548,7116823.0,5291737.0,0.0
1577366354591,7171773.0,5316081.0,0.0
1577366354646,7151644.0,5322526.0,0.0
1577366354688,7145973.0,5350001.0,0.0
1577366354736,7084482.0,5313458.0,0.0
1577366354787,7044520.0,5304084.0,0.0
1577366354840,6966632.0,5244257.0,0.0
1577366354888,6930344.0,5193896.0,0.0
1577366354937,6987632.0,5219699.0,0.0
1577366354988,6855833.0,5103258.0,0.0
1577366355029,6939335.0,5164068.0,0.0
1577366355084,6922309.0,5147741.0,0.0
1577366355126,6949765.0,5174097.0,0.0
1577366355182,6925117.0,5177161.0,0.0
1577366355227,6857856.0,5169485.0,0.0
1577366355278,6833850.0,5156368.0,0.0
1577366355328,6981562.0,5180779.0,0.0
1577366355377,7041712.0,5232702.0,0.0
1577366355425,7020572.0,5231967.0,0.0
1577366355467,6989283.0,5224606.0,0.0
1577366355523,6953794.0,5185257.0,0.0
1577366355569,6935116.0,5186366.0,0.0
1577366355619,6934704.0,5192380.0,0.0
1577366355670,6931171.0,5173883.0,0.0
1577366355713,6931143.0,5167278.0,0.0
1577366355770,7003845.0,5208267.0,0.0
1577366355814,7080509.0,5224165.0,0.0
1577366355866,7103987.0,5217676.0,0.0
1577366355915,7117749.0,5206052.0,0.0
1577366355964,7104314.0,5203236.0,0.0
1577366356009,7069296.0,5215618.0,0.0
1577366356060,7143964.0,5249064.0,0.0
1577366356104,7198131.0,5255157.0,0.0
1577366356153,7244546.0,5322412.0,0.0
1577366356208,7185464.0,5303552.0,0.0
1577366356249,7178270.0,5292200.0,0.0
1577366356306,7173212.0,5281922.0,0.0
1577366356350,7186291.0,5287870.0,0.0
1577366356404,7192944.0,5289327.0,0.0
1577366356451,7178513.0,5264837.0,0.0
1577366356495,7138677.0,5239170.0,0.0
1577366356552,7216125.0,5279977.0,0.0
1577366356593,7257968.0,5272695.0,0.0
1577366356648,7264250.0,5262201.0,0.0
1577366356690,7272043.0,5241656.0,0.0
1577366356739,7260633.0,5268557.0,0.0
1577366356792,7173767.0,5265221.0,0.0
1577366356841,7227566.0,5277184.0,0.0
1577366356892,7260147.0,5295073.0,0.0
1577366356934,7260262.0,5334499.0,0.0
1577366356990,7225484.0,5346893.0,0.0
1577366357030,7178298.0,5320344.0,0.0
1577366357087,7188656.0,5342415.0,0.0
1577366357131,7144647.0,5330702.0,0.0
1577366357183,7114301.0,5323702.0,0.0
1577366357235,7133662.0,5308019.0,0.0
1577366357279,7202874.0,5336773.0,0.0
1577366357329,7307233.0,5378846.0,0.0
1577366357377,7330856.0,5360530.0,0.0
1577366357429,7322465.0,5328156.0,0.0
1577366357471,7325954.0,5316374.0,0.0
1577366357527,7308830.0,5336864.0,0.0
1577366357571,7269821.0,5337213.0,0.0
1577366357624,7273881.0,5328869.0,0.0
1577366357674,7323676.0,5385268.0,0.0
1577366357717,7285450.0,5365211.0,0.0
1577366357769,7288755.0,5389261.0,0.0
1577366357814,7228106.0,5354004.0,0.0
1577366357870,7241169.0,5362113.0,0.0
1577366357917,7209144.0,5352964.0,0.0
1577366357967,7195366.0,5338605.0,0.0
1577366358012,7115471.0,5297909.0,0.0
1577366358062,7239347.0,5390358.0,0.0
1577366358111,7340943.0,5444169.0,0.0
1577366358156,7391206.0,5442765.0,0.0
1577366358212,7408074.0,5426868.0,0.0
1577366358253,7411223.0,5418195.0,0.0
1577366358305,7405296.0,5430078.0,0.0
1577366358351,7409400.0,5427965.0,0.0
1577366358406,7380305.0,5417744.0,0.0
1577366358451,7405736.0,5462530.0,0.0
1577366358501,7428247.0,5489011.0,0.0
1577366358548,7416737.0,5455441.0,0.0
1577366358596,7387814.0,5441375.0,0.0
1577366358651,7392245.0,5449187.0,0.0
1577366358693,7374208.0,5435461.0,0.0
1577366358741,7351541.0,5417630.0,0.0
1577366358788,7364464.0,5422921.0,0.0
1577366358845,7430256.0,5458584.0,0.0
1577366358893,7455047.0,5442336.0,0.0
1577366358941,7452439.0,5429355.0,0.0
1577366358988,7445445.0,5406910.0,0.0
1577366359036,7426380.0,5420377.0,0.0
1577366359089,7407590.0,5416996.0,0.0
1577366359130,7422819.0,5424833.0,0.0
1577366359186,7437537.0,5471837.0,0.0
1577366359236,7390407.0,5488457.0,0.0
1577366359283,7378767.0,5496429.0,0.0
1577366359329,7347338.0,5469100.0,0.0
1577366359380,7366159.0,5482430.0,0.0
1577366359431,7346027.0,5471701.0,0.0
1577366359475,7341342.0,5455124.0,0.0
1577366359528,7295564.0,5411535.0,0.0
1577366359573,7406535.0,5481900.0,0.0
1577366359625,7438248.0,5471498.0,0.0
1577366359673,7451584.0,5441103.0,0.0
1577366359722,7449774.0,5431356.0,0.0
1577366359769,7477442.0,5490165.0,0.0
1577366359818,7455360.0,5484013.0,0.0
1577366359870,7488555.0,5472593.0,0.0
1577366359911,7487201.0,5496610.0,0.0
1577366359967,7489594.0,5519099.0,0.0
1577366360017,7469150.0,5531221.0,0.0
1577366360064,7458621.0,5521021.0,0.0
1577366360108,7479836.0,5541386.0,0.0
1577366360155,7463851.0,5528801.0,0.0
1577366360212,7454248.0,5501958.0,0.0
1577366360254,7431255.0,5482760.0,0.0
1577366360308,7530099.0,5538832.0,0.0
1577366360353,7528488.0,5526121.0,0.0
1577366360406,7534474.0,5522978.0,0.0
1577366360454,7520611.0,5488095.0,0.0
1577366360503,7522519.0,5506401.0,0.0
1577366360548,7506493.0,5494767.0,0.0
1577366360596,7571202.0,5500499.0,0.0
1577366360652,7538219.0,5511818.0,0.0
1577366360689,7486901.0,5532476.0,0.0
1577366360748,7399697.0,5522753.0,0.0
1577366360797,7337479.0,5490797.0,0.0
1577366360845,7342394.0,5513333.0,0.0
1577366360893,7333491.0,5505826.0,0.0
1577366360940,7391106.0,5535528.0,0.0
1577366360989,7322449.0,5434309.0,0.0
1577366361034,7366031.0,5480293.0,0.0
1577366361089,7297333.0,5410631.0,0.0
1577366361134,7333946.0,5443840.0,0.0
1577366361186,7356712.0,5485574.0,0.0
1577366361236,7345930.0,5484806.0,0.0
1577366361285,7369336.0,5475840.0,0.0
1577366361330,7345858.0,5436523.0,0.0
1577366361379,7348208.0,5512734.0,0.0
1577366361428,7201036.0,5482475.0,0.0
1577366361474,7109514.0,5428201.0,0.0
1577366361530,7077544.0,5399086.0,0.0
1577366361575,7057955.0,5372728.0,0.0
1577366361626,7057612.0,5364770.0,0.0
1577366361676,7082048.0,5382013.0,0.0
1577366361724,7182986.0,5418829.0,0.0
1577366361773,7238279.0,5423678.0,0.0
1577366361818,7181562.0,5355158.0,0.0
1577366361868,7164252.0,5336502.0,0.0
1577366361914,7212106.0,5404151.0,0.0
1577366361968,7173867.0,5408325.0,0.0
1577366362019,7138836.0,5374256.0,0.0
1577366362057,7152483.0,5375217.0,0.0
1577366362109,7172656.0,5422096.0,0.0
1577366362160,7120099.0,5450059.0,0.0
1577366362206,7024133.0,5410755.0,0.0
1577366362255,6972631.0,5373872.0,0.0
1577366362304,6960762.0,5346960.0,0.0
1577366362353,7016696.0,5366499.0,0.0
1577366362401,6943695.0,5265188.0,0.0
1577366362450,7002777.0,5318489.0,0.0
1577366362498,7107875.0,5395512.0,0.0
1577366362548,7083514.0,5355983.0,0.0
1577366362596,7056458.0,5316985.0,0.0
1577366362646,7062899.0,5355091.0,0.0
1577366362694,6990366.0,5341907.0,0.0
1577366362743,6984826.0,5317122.0,0.0
1577366362791,7015201.0,5337587.0,0.0
1577366362840,6950021.0,5330677.0,0.0
1577366362888,6901209.0,5320242.0,0.0
1577366362937,6833766.0,5286536.0,0.0
1577366362987,6745292.0,5215301.0,0.0
1577366363035,6708321.0,5193081.0,0.0
1577366363085,6679170.0,5131233.0,0.0
1577366363134,6743823.0,5200930.0,0.0
1577366363178,6657786.0,5097006.0,0.0
1577366363228,6750208.0,5166285.0,0.0
1577366363276,6775395.0,5164645.0,0.0
1577366363326,6779939.0,5146248.0,0.0
1577366363383,6756318.0,5200839.0,0.0
1577366363429,6711654.0,5166589.0,0.0
1577366363475,6813319.0,5210733.0,0.0
1577366363527,6811768.0,5180802.0,0.0
1577366363579,6795624.0,5235155.0,0.0
1577366363628,6706526.0,5196509.0,0.0
1577366363676,6673344.0,5154151.0,0.0
1577366363721,6610657.0,5121101.0,0.0
1577366363774,6520217.0,5041340.0,0.0
1577366363814,6513408.0,5030068.0,0.0
1577366363869,6517296.0,5010653.0,0.0
1577366363918,6535306.0,4990955.0,0.0
1577366363965,6617410.0,5032917.0,0.0
1577366364017,6649894.0,5013898.0,0.0
1577366364060,6689615.0,5080068.0,0.0
1577366364109,6666222.0,5070344.0,0.0
1577366364156,6632967.0,5059015.0,0.0
1577366364208,6641231.0,5108427.0,0.0
1577366364260,6595755.0,5089893.0,0.0
1577366364311,6529976.0,5100568.0,0.0
1577366364353,6461818.0,5047775.0,0.0
1577366364405,6406200.0,4971022.0,0.0
1577366364450,6456235.0,4989689.0,0.0
1577366364497,6395002.0,4952342.0,0.0
1577366364554,6351290.0,4902534.0,0.0
1577366364597,6425932.0,4917957.0,0.0
1577366364650,6553697.0,4985766.0,0.0
1577366364698,6599004.0,4988627.0,0.0
1577366364742,6615544.0,4982351.0,0.0
1577366364798,6681308.0,5006175.0,0.0
1577366364844,6670295.0,5053474.0,0.0
1577366364896,6625802.0,5032102.0,0.0
1577366364940,6776878.0,5054140.0,0.0
1577366364991,6772459.0,5064622.0,0.0
1577366365038,6731371.0,5073702.0,0.0
1577366365082,6672931.0,5054096.0,0.0
1577366365130,6678871.0,5056278.0,0.0
1577366365179,6689315.0,5055735.0,0.0
1577366365234,6700072.0,5051030.0,0.0
1577366365278,6729520.0,5079976.0,0.0
1577366365335,6534067.0,4909273.0,0.0
1577366365377,6689300.0,5062450.0,0.0
1577366365431,6723238.0,5044213.0,0.0
1577366365479,6628935.0,4982940.0,0.0
1577366365529,6628779.0,4990549.0,0.0
1577366365578,6640391.0,5033155.0,0.0
1577366365627,6654837.0,5046767.0,0.0
1577366365676,6782361.0,5092798.0,0.0
1577366365717,6733880.0,5109420.0,0.0
1577366365773,6645734.0,5085370.0,0.0
1577366365819,6629962.0,5103518.0,0.0
1577366365870,6581808.0,5069450.0,0.0
1577366365919,6601297.0,5071451.0,0.0
1577366365967,6595243.0,5059862.0,0.0
1577366366017,6610800.0,5057046.0,0.0
1577366366058,6582435.0,5029571.0,0.0
1577366366110,6643612.0,5082995.0,0.0
1577366366159,6660208.0,5093546.0,0.0
1577366366211,6674114.0,5099867.0,0.0
1577366366261,6696808.0,5088977.0,0.0
1577366366308,6692961.0,5100092.0,0.0
1577366366359,6713392.0,5105982.0,0.0
1577366366400,6778928.0,5096078.0,0.0
1577366366457,6777633.0,5129933.0,0.0
1577366366497,6736215.0,5135382.0,0.0
1577366366554,6717952.0,5173294.0,0.0
1577366366596,6677690.0,5152343.0,0.0
1577366366650,6717112.0,5172605.0,0.0
1577366366700,6761233.0,5173079.0,0.0
1577366366743,6744494.0,5139689.0,0.0
1577366366798,6739123.0,5111671.0,0.0
1577366366839,6809646.0,5129593.0,0.0
1577366366898,6908917.0,5181299.0,0.0
1577366366937,6946516.0,5197051.0,0.0
1577366366995,6968243.0,5200442.0,0.0
1577366367040,6972344.0,5187303.0,0.0
1577366367093,6946257.0,5194372.0,0.0
1577366367139,7002606.0,5199561.0,0.0
1577366367185,7020684.0,5166681.0,0.0
1577366367237,6997163.0,5193975.0,0.0
1577366367278,6974581.0,5213582.0,0.0
1577366367336,6929233.0,5200125.0,0.0
1577366367380,6905456.0,5195570.0,0.0
1577366367430,6900910.0,5200093.0,0.0
1577366367481,6887774.0,5186241.0,0.0
1577366367531,6886407.0,5172638.0,0.0
1577366367580,6896194.0,5159873.0,0.0
1577366367627,6992547.0,5202377.0,0.0
1577366367678,6974781.0,5186706.0,0.0
1577366367719,6979141.0,5186230.0,0.0
1577366367775,6984012.0,5181312.0,0.0
1577366367822,6956403.0,5202342.0,0.0
1577366367872,6966318.0,5198577.0,0.0
1577366367920,6992148.0,5200826.0,0.0
1577366367962,6815229.0,5111060.0,0.0
1577366368018,6847626.0,5228032.0,0.0
1577366368059,6967787.0,5273520.0,0.0
1577366368110,7141882.0,5343750.0,0.0
1577366368168,7217891.0,5354333.0,0.0
1577366368215,7236513.0,5365719.0,0.0
1577366368262,7185267.0,5334286.0,0.0
1577366368305,7077501.0,5242652.0,0.0
1577366368356,7069025.0,5230553.0,0.0
1577366368401,7083842.0,5267279.0,0.0
1577366368458,7056885.0,5259184.0,0.0
1577366368500,7072742.0,5276178.0,0.0
1577366368555,7068940.0,5291906.0,0.0
1577366368601,7077501.0,5302060.0,0.0
1577366368653,7146086.0,5317912.0,0.0
1577366368701,7172700.0,5297198.0,0.0
1577366368743,7106452.0,5301495.0,0.0
1577366368799,7024872.0,5327252.0,0.0
1577366368840,6962101.0,5303655.0,0.0
1577366368898,6916254.0,5269042.0,0.0
1577366368941,6941342.0,5278835.0,0.0
1577366368995,6946401.0,5270209.0,0.0
1577366369042,6917294.0,5230045.0,0.0
1577366369092,6934976.0,5223375.0,0.0
1577366369141,6803816.0,5126200.0,0.0
1577366369181,6959651.0,5277964.0,0.0
1577366369239,6919746.0,5236230.0,0.0
1577366369280,6882987.0,5227207.0,0.0
1577366369335,6919147.0,5273012.0,0.0
1577366369383,6980779.0,5290877.0,0.0
1577366369434,7088143.0,5292936.0,0.0
1577366369483,7150502.0,5316510.0,0.0
1577366369531,7153551.0,5332577.0,0.0
1577366369579,7091978.0,5325657.0,0.0
1577366369623,7025072.0,5302330.0,0.0
1577366369678,6969098.0,5266793.0,0.0
1577366369723,6965178.0,5277230.0,0.0
1577366369773,6963084.0,5281706.0,0.0
1577366369824,6954465.0,5257929.0,0.0
1577366369871,6932410.0,5238830.0,0.0
1577366369921,7016240.0,5289486.0,0.0
1577366369963,7109017.0,5332522.0,0.0
1577366370020,7125358.0,5335314.0,0.0
1577366370062,7170378.0,5341907.0,0.0
1577366370111,7204213.0,5378066.0,0.0
1577366370165,7193287.0,5377796.0,0.0
1577366370213,7270248.0,5391611.0,0.0
1577366370263,7313873.0,5409273.0,0.0
1577366370309,7299028.0,5425781.0,0.0
1577366370357,7239362.0,5402999.0,0.0
1577366370402,7182259.0,5373667.0,0.0
1577366370458,7147212.0,5352196.0,0.0
1577366370505,7152299.0,5358856.0,0.0
1577366370556,7125642.0,5335415.0,0.0
1577366370599,7077844.0,5293669.0,0.0
1577366370653,7094312.0,5314350.0,0.0
1577366370703,7194570.0,5374392.0,0.0
1577366370744,7226810.0,5374108.0,0.0
1577366370800,7342039.0,5436444.0,0.0
1577366370842,7402931.0,5465650.0,0.0
1577366370897,7394155.0,5460947.0,0.0
1577366370944,7386403.0,5443783.0,0.0
1577366370994,7379095.0,5416917.0,0.0
1577366371045,7296634.0,5380882.0,0.0
1577366371090,7322421.0,5416748.0,0.0
1577366371141,7322137.0,5416523.0,0.0
1577366371183,7364648.0,5437350.0,0.0
1577366371240,7363594.0,5446170.0,0.0
1577366371285,7365888.0,5455294.0,0.0
1577366371337,7343820.0,5443726.0,0.0
1577366371386,7316380.0,5398397.0,0.0
1577366371435,7299612.0,5403168.0,0.0
1577366371484,7378511.0,5441556.0,0.0
1577366371529,7435128.0,5456526.0,0.0
1577366371580,7435299.0,5437824.0,0.0
1577366371622,7453250.0,5443884.0,0.0
1577366371679,7447196.0,5447842.0,0.0
1577366371725,7420710.0,5443252.0,0.0
1577366371772,7467955.0,5447436.0,0.0
1577366371826,7419814.0,5425511.0,0.0
1577366371872,7495121.0,5502953.0,0.0
1577366371922,7412677.0,5478371.0,0.0
1577366371967,7415838.0,5481108.0,0.0
1577366372020,7363809.0,5440617.0,0.0
1577366372066,7342822.0,5430475.0,0.0
1577366372113,7335400.0,5415255.0,0.0
1577366372167,7305154.0,5382849.0,0.0
1577366372214,7298001.0,5386841.0,0.0
1577366372263,7336711.0,5411321.0,0.0
1577366372306,7400622.0,5447220.0,0.0
1577366372354,7396034.0,5438978.0,0.0
1577366372404,7379622.0,5424087.0,0.0
1577366372459,7397288.0,5446972.0,0.0
1577366372507,7384296.0,5446418.0,0.0
1577366372566,7421109.0,5439101.0,0.0
1577366372607,7419399.0,5437360.0,0.0
1577366372646,7404597.0,5474019.0,0.0
1577366372710,7370219.0,5483154.0,0.0
1577366372746,7355261.0,5482103.0,0.0
1577366372801,7293073.0,5438549.0,0.0
1577366372847,7326794.0,5459116.0,0.0
1577366372892,7309399.0,5437563.0,0.0
1577366372948,7273840.0,5409523.0,0.0
1577366372994,7206051.0,5355520.0,0.0
1577366373045,7358082.0,5472367.0,0.0
1577366373091,7434544.0,5505544.0,0.0
1577366373144,7442908.0,5505158.0,0.0
1577366373185,7454489.0,5503711.0,0.0
1577366373240,7452467.0,5504548.0,0.0
1577366373287,7430740.0,5508301.0,0.0
1577366373337,7467968.0,5528506.0,0.0
1577366373387,7472783.0,5510089.0,0.0
1577366373433,7506762.0,5555464.0,0.0
1577366373486,7454489.0,5533324.0,0.0
1577366373540,7447068.0,5544677.0,0.0
1577366373584,7387545.0,5513469.0,0.0
1577366373628,7382458.0,5513888.0,0.0
1577366373681,7339888.0,5495322.0,0.0
1577366373728,7233592.0,5410970.0,0.0
1577366373771,7211466.0,5384094.0,0.0
1577366373829,7349148.0,5464147.0,0.0
1577366373873,7396590.0,5474527.0,0.0
1577366373927,7412889.0,5484060.0,0.0
1577366373967,7423703.0,5478202.0,0.0
1577366374022,7421708.0,5491612.0,0.0
1577366374074,7363010.0,5495411.0,0.0
1577366374120,7393228.0,5496962.0,0.0
1577366374169,7376844.0,5498158.0,0.0
1577366374216,7384110.0,5519813.0,0.0
1577366374262,7337251.0,5512734.0,0.0
1577366374311,7304642.0,5515030.0,0.0
1577366374358,7288614.0,5493603.0,0.0
1577366374407,7282800.0,5498237.0,0.0
1577366374464,7181107.0,5422910.0,0.0
1577366374510,7232181.0,5473940.0,0.0
1577366374563,7280806.0,5475273.0,0.0
1577366374608,7344389.0,5496124.0,0.0
1577366374657,7315968.0,5479367.0,0.0
1577366374709,7351769.0,5505928.0,0.0
1577366374751,7343805.0,5502106.0,0.0
1577366374805,7307077.0,5503971.0,0.0
1577366374847,7274181.0,5481435.0,0.0
1577366374896,7284326.0,5445898.0,0.0
1577366374948,7325527.0,5532533.0,0.0
1577366374999,7238620.0,5497717.0,0.0
1577366375051,7312704.0,5576992.0,0.0
1577366375094,7264934.0,5546802.0,0.0
1577366375147,7302773.0,5573656.0,0.0
1577366375189,7265804.0,5562101.0,0.0
1577366375245,7451955.0,5630837.0,0.0
1577366375289,7563934.0,5632091.0,0.0
1577366375341,7827176.0,5775477.0,0.0
1577366375390,7856512.0,5772141.0,0.0
1577366375432,7883381.0,5775601.0,0.0
1577366375489,7859829.0,5760168.0,0.0
1577366375528,7819868.0,5739962.0,0.0
1577366375584,7782184.0,5739396.0,0.0
1577366375630,7756610.0,5760507.0,0.0
1577366375683,7779520.0,5737677.0,0.0
1577366375732,7803927.0,5780780.0,0.0
1577366375773,7660303.0,5714588.0,0.0
1577366375831,7592215.0,5703180.0,0.0
1577366375872,7505466.0,5645332.0,0.0
1577366375930,7494653.0,5634998.0,0.0
1577366375970,7392189.0,5579129.0,0.0
1577366376023,7432578.0,5593693.0,0.0
1577366376078,7393899.0,5504796.0,0.0
1577366376124,7503001.0,5579209.0,0.0
1577366376169,7512488.0,5570480.0,0.0
1577366376213,7527534.0,5576935.0,0.0
1577366376270,7486732.0,5546396.0,0.0
1577366376311,7474421.0,5550443.0,0.0
1577366376360,7411322.0,5577807.0,0.0
1577366376410,7404257.0,5587417.0,0.0
1577366376456,7475504.0,5593445.0,0.0
1577366376517,7513303.0,5607612.0,0.0
1577366376563,7521623.0,5634637.0,0.0
1577366376606,7464747.0,5602637.0,0.0
1577366376651,7418375.0,5566894.0,0.0
1577366376710,7397132.0,5570763.0,0.0
1577366376753,7339745.0,5550986.0,0.0
1577366376806,7349747.0,5537021.0,0.0
1577366376851,7309770.0,5471339.0,0.0
1577366376897,7398799.0,5524459.0,0.0
1577366376949,7434772.0,5539441.0,0.0
1577366376994,7465233.0,5548068.0,0.0
1577366377051,7470789.0,5540945.0,0.0
1577366377092,7507873.0,5552422.0,0.0
1577366377147,7536253.0,5576722.0,0.0
1577366377190,7562695.0,5579536.0,0.0
1577366377245,7577669.0,5567099.0,0.0
1577366377292,7595407.0,5596554.0,0.0
1577366377340,7545472.0,5577445.0,0.0
1577366377389,7527861.0,5564023.0,0.0
1577366377436,7489395.0,5527558.0,0.0
1577366377490,7440399.0,5530634.0,0.0
1577366377543,7378938.0,5500602.0,0.0
1577366377586,7306493.0,5424991.0,0.0
1577366377630,7355502.0,5455463.0,0.0
1577366377685,7438364.0,5511287.0,0.0
1577366377733,7520056.0,5546802.0,0.0
1577366377775,7541283.0,5546666.0,0.0
1577366377828,7554119.0,5543421.0,0.0
1577366377876,7568837.0,5549289.0,0.0
1577366377929,7549388.0,5567855.0,0.0
1577366377968,7586744.0,5569552.0,0.0
1577366378026,7579535.0,5563694.0,0.0
1577366378074,7645015.0,5640143.0,0.0
1577366378124,7630912.0,5634263.0,0.0
1577366378169,7622149.0,5629876.0,0.0
1577366378221,7650969.0,5647526.0,0.0
1577366378261,7661882.0,5646553.0,0.0
1577366378310,7663720.0,5638887.0,0.0
1577366378358,7610268.0,5583630.0,0.0
1577366378410,7675161.0,5624098.0,0.0
1577366378456,7784693.0,5653394.0,0.0
1577366378506,7845642.0,5670196.0,0.0
1577366378561,7834913.0,5653881.0,0.0
1577366378605,7810022.0,5647616.0,0.0
1577366378656,7739486.0,5663266.0,0.0
1577366378710,7703925.0,5668864.0,0.0
1577366378751,7771143.0,5686377.0,0.0
1577366378807,7794265.0,5720356.0,0.0
1577366378857,7775375.0,5730791.0,0.0
1577366378897,7748277.0,5727252.0,0.0
1577366378950,7743091.0,5717699.0,0.0
1577366378999,7735966.0,5716398.0,0.0
1577366379051,7715253.0,5723148.0,0.0
1577366379095,7668835.0,5657136.0,0.0
1577366379147,7684308.0,5657285.0,0.0
1577366379193,7718144.0,5661604.0,0.0
1577366379246,7817873.0,5727660.0,0.0
1577366379291,7864289.0,5755542.0,0.0
1577366379341,7977425.0,5843976.0,0.0
1577366379388,8034542.0,5950557.0,0.0
1577366379439,8015664.0,6055994.0,0.0
1577366379490,8058618.0,6109647.0,0.0
1577366379542,8085959.0,6153417.0,0.0
1577366379586,8129953.0,6179413.0,0.0
1577366379635,8097113.0,6144337.0,0.0
1577366379685,8079575.0,6122335.0,0.0
1577366379733,8006105.0,6041329.0,0.0
1577366379775,7929556.0,6013797.0,0.0
1577366379829,7938759.0,6024120.0,0.0
1577366379876,7899850.0,5979107.0,0.0
1577366379929,7982625.0,6102637.0,0.0
1577366379975,8127188.0,6253972.0,0.0
1577366380026,8258547.0,6332692.0,0.0
1577366380078,8283179.0,6324798.0,0.0
1577366380124,8236989.0,6255904.0,0.0
1577366380168,8203054.0,6232602.0,0.0
1577366380215,8194178.0,6233618.0,0.0
1577366380272,8187581.0,6243547.0,0.0
1577366380313,8168491.0,6244315.0,0.0
1577366380361,8211502.0,6297640.0,0.0
1577366380417,8175188.0,6258393.0,0.0
1577366380465,8136849.0,6207636.0,0.0
1577366380513,8058918.0,6135224.0,0.0
1577366380561,8007457.0,6108619.0,0.0
1577366380606,8095874.0,6193466.0,0.0
1577366380652,8097397.0,6182261.0,0.0
1577366380711,8040552.0,6072606.0,0.0
1577366380759,8225108.0,6238740.0,0.0
1577366380808,8172922.0,6164498.0,0.0
1577366380854,8141437.0,6125612.0,0.0
1577366380897,8061923.0,6083980.0,0.0
1577366380948,8044628.0,6128948.0,0.0
1577366380998,8061795.0,6144666.0,0.0
1577366381051,8093923.0,6154368.0,0.0
1577366381092,8086784.0,6159534.0,0.0
1577366381149,8049927.0,6148012.0,0.0
1577366381199,8019253.0,6115675.0,0.0
1577366381245,7956810.0,6054231.0,0.0
1577366381293,7959088.0,6039667.0,0.0
1577366381343,7961082.0,6026959.0,0.0
1577366381389,7955770.0,6006595.0,0.0
1577366381433,7956026.0,6004717.0,0.0
1577366381490,7989434.0,6023306.0,0.0
1577366381540,8013043.0,6035427.0,0.0
1577366381585,8027873.0,6044789.0,0.0
1577366381628,8028656.0,6039645.0,0.0
1577366381686,8031577.0,6030023.0,0.0
1577366381733,8006945.0,6020469.0,0.0
1577366381776,8015848.0,6022706.0,0.0
1577366381829,7983336.0,5982488.0,0.0
1577366381873,7993794.0,5995773.0,0.0
1577366381930,7950356.0,5969757.0,0.0
1577366381978,8005834.0,6022198.0,0.0
1577366382027,7982269.0,6001834.0,0.0
1577366382073,7974932.0,5990855.0,0.0
1577366382124,7971228.0,5987701.0,0.0
1577366382174,7944714.0,5957816.0,0.0
1577366382215,7914255.0,5924992.0,0.0
1577366382268,7919270.0,5921034.0,0.0
1577366382320,7951723.0,5955114.0,0.0
1577366382363,7973022.0,5974765.0,0.0
1577366382418,7984435.0,5977309.0,0.0
1577366382467,7993039.0,5976880.0,0.0
1577366382514,7983964.0,5973475.0,0.0
1577366382560,7949501.0,5949358.0,0.0
1577366382608,7960115.0,5942834.0,0.0
1577366382654,7863505.0,5872469.0,0.0
1577366382711,7932177.0,5953361.0,0.0
1577366382757,7919582.0,5956786.0,0.0
1577366382810,7870615.0,5959263.0,0.0
1577366382857,7813954.0,5921893.0,0.0
1577366382900,7844444.0,5940912.0,0.0
1577366382956,7844515.0,5920694.0,0.0
1577366382996,7770460.0,5839465.0,0.0
1577366383051,7775191.0,5847864.0,0.0
1577366383095,7923043.0,5965131.0,0.0
1577366383151,7993454.0,6022684.0,0.0
1577366383198,7993098.0,5985032.0,0.0
1577366383241,7976199.0,5970785.0,0.0
1577366383292,7959416.0,5992133.0,0.0
1577366383336,7904865.0,5948058.0,0.0
1577366383388,7976811.0,5975070.0,0.0
1577366383439,7983352.0,5983290.0,0.0
1577366383487,8005035.0,6012564.0,0.0
1577366383536,7931934.0,5981121.0,0.0
1577366383582,7855841.0,5957351.0,0.0
1577366383639,7809753.0,5934037.0,0.0
1577366383685,7821107.0,5931243.0,0.0
1577366383736,7800990.0,5899629.0,0.0
1577366383776,7806090.0,5884377.0,0.0
1577366383834,7848320.0,5918468.0,0.0
1577366383875,7918328.0,5982149.0,0.0
1577366383929,7952494.0,6007986.0,0.0
1577366383976,8000404.0,6033212.0,0.0
1577366384029,8036820.0,6039680.0,0.0
1577366384070,8032960.0,6042449.0,0.0
1577366384123,7996572.0,6010632.0,0.0
1577366384176,8027845.0,6033517.0,0.0
1577366384217,8030423.0,6032036.0,0.0
1577366384274,8001559.0,6028485.0,0.0
1577366384320,7993582.0,6036480.0,0.0
1577366384363,7957365.0,6004412.0,0.0
1577366384419,7941109.0,5978485.0,0.0
1577366384467,7961098.0,5990379.0,0.0
1577366384517,7939287.0,5964239.0,0.0
1577366384558,7982341.0,5995751.0,0.0
1577366384608,8001758.0,5996950.0,0.0
1577366384656,8083279.0,6052524.0,0.0
1577366384710,8092413.0,6063774.0,0.0
1577366384759,8076953.0,6045277.0,0.0
1577366384811,8043317.0,6006607.0,0.0
1577366384858,8023429.0,6015008.0,0.0
1577366384900,7989721.0,5987417.0,0.0
1577366384956,8021091.0,5984737.0,0.0
1577366384997,8038259.0,6002468.0,0.0
1577366385052,7989222.0,5989611.0,0.0
1577366385099,7933032.0,5979627.0,0.0
1577366385151,7862978.0,5943174.0,0.0
1577366385199,7844659.0,5927795.0,0.0
1577366385246,7862295.0,5926111.0,0.0
1577366385297,7850129.0,5897910.0,0.0
1577366385338,7890631.0,5932917.0,0.0
1577366385394,7820083.0,5847582.0,0.0
1577366385437,7919111.0,5938921.0,0.0
1577366385491,7913799.0,5930203.0,0.0
1577366385541,7924981.0,5931198.0,0.0
1577366385590,7940183.0,5935553.0,0.0
1577366385638,7905477.0,5908414.0,0.0
1577366385684,7915934.0,5924358.0,0.0
1577366385737,7905704.0,5895627.0,0.0
1577366385778,7857835.0,5902988.0,0.0
1577366385835,7809338.0,5912429.0,0.0
1577366385881,7759175.0,5910643.0,0.0
1577366385930,7704552.0,5874968.0,0.0
1577366385980,7708044.0,5860744.0,0.0
1577366386029,7732093.0,5872221.0,0.0
1577366386076,7730954.0,5851958.0,0.0
1577366386126,7752622.0,5868422.0,0.0
1577366386175,7738915.0,5837385.0,0.0
1577366386219,7806576.0,5890629.0,0.0
1577366386273,7803043.0,5883223.0,0.0
1577366386322,7838517.0,5899765.0,0.0
1577366386366,7864944.0,5919213.0,0.0
1577366386421,7854446.0,5917348.0,0.0
1577366386462,7844672.0,5900216.0,0.0
1577366386517,7917816.0,5943795.0,0.0
1577366386565,7936422.0,5967563.0,0.0
1577366386609,7863534.0,5947097.0,0.0
1577366386662,7860416.0,5955090.0,0.0
1577366386713,7831336.0,5920422.0,0.0
1577366386761,7830082.0,5908855.0,0.0
1577366386811,7838661.0,5919225.0,0.0
1577366386858,7834214.0,5898973.0,0.0
1577366386900,7825267.0,5884986.0,0.0
1577366386956,7916049.0,5951823.0,0.0
1577366387002,7924042.0,5953383.0,0.0
1577366387049,7928430.0,5945254.0,0.0
1577366387096,7920522.0,5928011.0,0.0
1577366387152,7918528.0,5931741.0,0.0
1577366387201,7887354.0,5924640.0,0.0
1577366387239,7942648.0,5955374.0,0.0
1577366387298,7899822.0,5915550.0,0.0
1577366387340,7952151.0,5974708.0,0.0
1577366387395,7892912.0,5951585.0,0.0
1577366387444,7889692.0,5955758.0,0.0
1577366387486,7864975.0,5930272.0,0.0
1577366387541,7864931.0,5928655.0,0.0
1577366387590,7852536.0,5919382.0,0.0
1577366387629,7810252.0,5885970.0,0.0
1577366387680,7764078.0,5830215.0,0.0
1577366387729,7887398.0,5928417.0,0.0
1577366387786,7888097.0,5914465.0,0.0
1577366387836,7909140.0,5925760.0,0.0
1577366387882,7980047.0,5972254.0,0.0
1577366387929,7998924.0,5999313.0,0.0
1577366387979,7993753.0,6004006.0,0.0
1577366388022,8016576.0,6022062.0,0.0
1577366388076,7977653.0,6002151.0,0.0
1577366388121,7971499.0,6008133.0,0.0
1577366388175,7923530.0,5976630.0,0.0
1577366388224,7906959.0,5966059.0,0.0
1577366388270,7888125.0,5958471.0,0.0
1577366388322,7852764.0,5951077.0,0.0
1577366388362,7786659.0,5938594.0,0.0
1577366388411,7780403.0,5922458.0,0.0
1577366388464,7815096.0,5933754.0,0.0
1577366388510,7871856.0,5972989.0,0.0
1577366388562,7892157.0,5967890.0,0.0
1577366388608,7894822.0,5951835.0,0.0
1577366388654,7888337.0,5949923.0,0.0
1577366388704,7859745.0,5955193.0,0.0
1577366388759,7777297.0,5911818.0,0.0
1577366388802,7791260.0,5914034.0,0.0
1577366388858,7886814.0,6012474.0,0.0
1577366388901,7846837.0,5967585.0,0.0
1577366388951,7847249.0,5994619.0,0.0
1577366388999,7824867.0,5970230.0,0.0
1577366389050,7825981.0,5965673.0,0.0
1577366389096,7798284.0,5948680.0,0.0
1577366389143,7782612.0,5932013.0,0.0
1577366389198,7761185.0,5904637.0,0.0
1577366389241,7856668.0,5970909.0,0.0
1577366389296,7875217.0,5952682.0,0.0
1577366389345,7865943.0,5938220.0,0.0
1577366389396,7924625.0,5965413.0,0.0
1577366389443,7948446.0,5966793.0,0.0
1577366389489,7881128.0,5967833.0,0.0
1577366389542,7860416.0,5951077.0,0.0
1577366389582,7823188.0,5915278.0,0.0
1577366389638,7898554.0,5989916.0,0.0
1577366389685,7876144.0,5995073.0,0.0
1577366389736,7872568.0,6016658.0,0.0
1577366389788,7829527.0,5975714.0,0.0
1577366389830,7783224.0,5968784.0,0.0
1577366389881,7727818.0,5933641.0,0.0
1577366389929,7748618.0,5932204.0,0.0
