"1572977507108","3025097.0"
"1572977507155","3029983.0"
"1572977507203","3039362.0"
"1572977507250","3047060.0"
"1572977507300","3047470.0"
"1572977507349","3029479.0"
"1572977507398","3015718.0"
"1572977507446","3015986.0"
"1572977507496","3023213.0"
"1572977507543","3033372.0"
"1572977507595","3042466.0"
"1572977507646","3056808.0"
"1572977507689","3068889.0"
"1572977507736","3088355.0"
"1572977507788","3102461.0"
"1572977507837","3100097.0"
"1572977507884","3072973.0"
"1572977507936","3064697.0"
"1572977507989","3092935.0"
"1572977508030","3136018.0"
"1572977508080","3198338.0"
"1572977508125","3184768.0"
"1572977508179","3185840.0"
"1572977508228","3196509.0"
"1572977508278","3190119.0"
"1572977508320","3191017.0"
"1572977508376","3190182.0"
"1572977508419","3195792.0"
"1572977508467","3203265.0"
"1572977508518","3212800.0"
"1572977508565","3213216.0"
"1572977508619","3205187.0"
"1572977508660","3158383.0"
"1572977508720","3111153.0"
"1572977508759","3070419.0"
"1572977508809","3042529.0"
"1572977508857","3013252.0"
"1572977508909","2985858.0"
"1572977508959","2978521.0"
"1572977509007","2981113.0"
"1572977509058","2996016.0"
"1572977509100","3015688.0"
"1572977509156","3036225.0"
"1572977509196","3067629.0"
"1572977509249","3116015.0"
"1572977509298","3138358.0"
"1572977509348","3217078.0"
"1572977509398","3266206.0"
"1572977509444","3305667.0"
"1572977509489","3317920.0"
"1572977509542","3335588.0"
"1572977509585","3353595.0"
"1572977509641","3355070.0"
"1572977509690","3366938.0"
"1572977509741","3345424.0"
"1572977509788","3336100.0"
"1572977509828","3325446.0"
"1572977509881","3312363.0"
"1572977509932","3294687.0"
"1572977509983","3248152.0"
"1572977510027","3199884.0"
"1572977510085","3174727.0"
"1572977510122","3163103.0"
"1572977510177","3155262.0"
"1572977510220","3142456.0"
"1572977510275","3135536.0"
"1572977510325","3120595.0"
"1572977510370","3113573.0"
"1572977510425","3112234.0"
"1572977510465","3110491.0"
"1572977510517","3113360.0"
"1572977510559","3107693.0"
"1572977510618","3075139.0"
"1572977510661","3049417.0"
"1572977510706","3040030.0"
"1572977510758","3041607.0"
"1572977510805","3046326.0"
"1572977510857","3048801.0"
"1572977510898","3047029.0"
"1572977510954","3043183.0"
"1572977510998","3045902.0"
"1572977511051","3053687.0"
"1572977511101","3061908.0"
"1572977511143","3072507.0"
"1572977511199","3084761.0"
"1572977511239","3078528.0"
"1572977511296","3038321.0"
"1572977511338","3011204.0"
"1572977511390","3001975.0"
"1572977511439","3004913.0"
"1572977511485","3008390.0"
"1572977511535","3010738.0"
"1572977511583","3008650.0"
"1572977511632","3006222.0"
"1572977511680","3012929.0"
"1572977511727","3020944.0"
"1572977511783","3029534.0"
"1572977511825","3039258.0"
"1572977511879","3047873.0"
"1572977511924","3057101.0"
"1572977511972","3030156.0"
"1572977512019","2999925.0"
"1572977512074","2990500.0"
"1572977512123","2989184.0"
"1572977512307","2997916.0"
"1572977512307","3007957.0"
"1572977512307","3010068.0"
"1572977512341","3011762.0"
"1572977512366","3018626.0"
"1572977512500","3026490.0"
"1572977512500","3038722.0"
"1572977512527","3050859.0"
"1572977512560","3063808.0"
"1572977512602","3076211.0"
"1572977512662","3094824.0"
"1572977512820","3113494.0"
"1572977512820","3112462.0"
"1572977512825","3153836.0"
"1572977512859","3196369.0"
"1572977513021","3248231.0"
"1572977513021","3307093.0"
"1572977513021","3370973.0"
"1572977513051","3427768.0"
"1572977513126","3490326.0"
"1572977513149","3542615.0"
"1572977513193","3592295.0"
"1572977513241","3636922.0"
"1572977513288","3677982.0"
"1572977513339","3693933.0"
"1572977513389","3708133.0"
"1572977513436","3719395.0"
"1572977513484","3698960.0"
"1572977513528","3701806.0"
"1572977513586","3709039.0"
"1572977513631","3713523.0"
"1572977513678","3727095.0"
"1572977513725","3734298.0"
"1572977513778","3737498.0"
"1572977513818","3761170.0"
"1572977513867","3780723.0"
"1572977513920","3817786.0"
"1572977513966","3854778.0"
"1572977514016","3882250.0"
"1572977514061","3920274.0"
"1572977514119","3928927.0"
"1572977514160","3963696.0"
"1572977514214","3964446.0"
"1572977514266","3970789.0"
"1572977514309","3979883.0"
"1572977514360","3984367.0"
"1572977514406","4001674.0"
"1572977514456","3998309.0"
"1572977514500","4013385.0"
"1572977514555","4016719.0"
"1572977514602","4027688.0"
"1572977514652","4023188.0"
"1572977514696","4090049.0"
"1572977514748","4215273.0"
"1572977514798","4293087.0"
"1572977514846","4301630.0"
"1572977514897","4389483.0"
"1572977514944","4480119.0"
"1572977514991","4503629.0"
"1572977515041","4482966.0"
"1572977515090","4460741.0"
"1572977515136","4449046.0"
"1572977515190","4484061.0"
"1572977515235","4453546.0"
"1572977515287","4428785.0"
"1572977515332","4404977.0"
"1572977515382","4386442.0"
"1572977515431","4352028.0"
"1572977515480","4340293.0"
"1572977515520","4314853.0"
"1572977515579","4308912.0"
"1572977515630","4311111.0"
"1572977515669","4298321.0"
"1572977515722","4288318.0"
"1572977515770","4274245.0"
"1572977515819","4281368.0"
"1572977515861","4304987.0"
"1572977515918","4317966.0"
"1572977515968","4346164.0"
"1572977516013","4328653.0"
"1572977516062","4279358.0"
"1572977516112","4228608.0"
"1572977516160","4183680.0"
"1572977516201","4147372.0"
"1572977516258","4061923.0"
"1572977516308","3963838.0"
"1572977516348","3890501.0"
"1572977516397","3832704.0"
"1572977516451","3795933.0"
"1572977516500","3745796.0"
"1572977516541","3700063.0"
"1572977516593","3655411.0"
"1572977516648","3619586.0"
"1572977516689","3586415.0"
"1572977516743","3558968.0"
"1572977516789","3536420.0"
"1572977516834","3515899.0"
"1572977516888","3466189.0"
"1572977516940","3396435.0"
"1572977516991","3342665.0"
"1572977517034","3310860.0"
"1572977517087","3292458.0"
"1572977517124","3285089.0"
"1572977517178","3270832.0"
"1572977517221","3257569.0"
"1572977517281","3244818.0"
"1572977517327","3236496.0"
"1572977517369","3238182.0"
"1572977517422","3248436.0"
"1572977517466","3257703.0"
"1572977517521","3267035.0"
"1572977517564","3257971.0"
"1572977517621","3210002.0"
"1572977517669","3172583.0"
"1572977517707","3158556.0"
"1572977517763","3152528.0"
"1572977517807","3155167.0"
"1572977517861","3149580.0"
"1572977517905","3144734.0"
"1572977517958","3140163.0"
"1572977518011","3140510.0"
"1572977518054","3153978.0"
"1572977518099","3172087.0"
"1572977518153","3183530.0"
"1572977518378","3195540.0"
"1572977518378","3208803.0"
"1572977518378","3218080.0"
"1572977518378","3191773.0"
"1572977518433","3153127.0"
"1572977518447","3145616.0"
"1572977518565","3151425.0"
"1572977518566","3162922.0"
"1572977518591","3174554.0"
"1572977518637","3181127.0"
"1572977518691","3189221.0"
"1572977518730","3195532.0"
"1572977518786","3209906.0"
"1572977518829","3228491.0"
"1572977518880","3240862.0"
"1572977518926","3257673.0"
"1572977518980","3265568.0"
"1572977519027","3281338.0"
"1572977519309","3310986.0"
"1572977519310","3297643.0"
"1572977519310","3289929.0"
"1572977519344","3291024.0"
"1572977519430","3292363.0"
"1572977519430","3295587.0"
"1572977519465","3292149.0"
"1572977519515","3294870.0"
"1572977519560","3293269.0"
"1572977519612","3295815.0"
"1572977519660","3302467.0"
"1572977519706","3321372.0"
"1572977519756","3351279.0"
"1572977519799","3376845.0"
"1572977519853","3401102.0"
"1572977519895","3425548.0"
"1572977519949","3431749.0"
"1572977519994","3418053.0"
"1572977520047","3408721.0"
"1572977520093","3415759.0"
"1572977520146","3419337.0"
"1572977520192","3431056.0"
"1572977520238","3443153.0"
"1572977520295","3448244.0"
"1572977520340","3452515.0"
"1572977520392","3462444.0"
"1572977520438","3479255.0"
"1572977520491","3496252.0"
"1572977520531","3516617.0"
"1572977520586","3532645.0"
"1572977520636","3550455.0"
"1572977520679","3571088.0"
"1572977520725","3599538.0"
"1572977520780","3607860.0"
"1572977520825","3601145.0"
"1572977520869","3629515.0"
"1572977520918","3663741.0"
"1572977520970","3673008.0"
"1572977521020","3655562.0"
"1572977521068","3636451.0"
"1572977521113","3612281.0"
"1572977521165","3591728.0"
"1572977521215","3591507.0"
"1572977521263","3599790.0"
"1572977521310","3639501.0"
"1572977521356","3685674.0"
"1572977521409","3743258.0"
"1572977521458","3797532.0"
"1572977521501","3853943.0"
"1572977521554","3882723.0"
"1572977521599","3889414.0"
"1572977521653","3900525.0"
"1572977521695","3907807.0"
"1572977521748","3916365.0"
"1572977521799","3934145.0"
"1572977521840","3954501.0"
"1572977521891","3970860.0"
"1572977521943","3982634.0"
"1572977521996","3994164.0"
"1572977522040","4008057.0"
"1572977522090","4020264.0"
"1572977522139","4031266.0"
"1572977522191","4042898.0"
"1572977522231","4058991.0"
"1572977522288","4063861.0"
"1572977522336","4037894.0"
"1572977522387","3989924.0"
"1572977522422","3903000.0"
"1572977522480","3832098.0"
"1572977522522","3791134.0"
"1572977522580","3777783.0"
"1572977522620","3776806.0"
"1572977522674","3764323.0"
"1572977522717","3752582.0"
"1572977522771","3725527.0"
"1572977522818","3690796.0"
"1572977522868","3644324.0"
"1572977522914","3617363.0"
"1572977522958","3594485.0"
"1572977523013","3581671.0"
"1572977523063","3581214.0"
"1572977523114","3564925.0"
"1572977523161","3541575.0"
"1572977523208","3559527.0"
"1572977523258","3582782.0"
"1572977523305","3610018.0"
"1572977523353","3628759.0"
"1572977523402","3629862.0"
"1572977523451","3626309.0"
"1572977523502","3619380.0"
"1572977523547","3617560.0"
"1572977523596","3628980.0"
"1572977523647","3637508.0"
"1572977523697","3647585.0"
"1572977523743","3662236.0"
"1572977523794","3673498.0"
"1572977523835","3678155.0"
"1572977523883","3637373.0"
"1572977523938","3605731.0"
"1572977523987","3591222.0"
"1572977524036","3586163.0"
"1572977524085","3583674.0"
"1572977524132","3578928.0"
"1572977524184","3573918.0"
"1572977524228","3571703.0"
"1572977524278","3572451.0"
"1572977524319","3580017.0"
"1572977524380","3586527.0"
"1572977524424","3595320.0"
"1572977524472","3608553.0"
"1572977524521","3624913.0"
"1572977524568","3636884.0"
"1572977524622","3609933.0"
"1572977524666","3574918.0"
"1572977524716","3563324.0"
"1572977524764","3563910.0"
"1572977524812","3565659.0"
"1572977524862","3567282.0"
"1572977524909","3567400.0"
"1572977524954","3564682.0"
"1572977525006","3566029.0"
"1572977525055","3572018.0"
"1572977525099","3581586.0"
"1572977525153","3593335.0"
"1572977525203","3601058.0"
"1572977525416","3606883.0"
"1572977525416","3602492.0"
"1572977525416","3562938.0"
"1572977525416","3538257.0"
"1572977525453","3528533.0"
"1572977525567","3529075.0"
"1572977525567","3532686.0"
"1572977525595","3530258.0"
"1572977525636","3524821.0"
"1572977525720","3524331.0"
"1572977525839","3531684.0"
"1572977525839","3538295.0"
"1572977525840","3548659.0"
"1572977526009","3556894.0"
"1572977526009","3563333.0"
"1572977526009","3551481.0"
"1572977526035","3520170.0"
"1572977526139","3507074.0"
"1572977526139","3506639.0"
"1572977526176","3516050.0"
"1572977526217","3520589.0"
"1572977526270","3521511.0"
"1572977526319","3524016.0"
"1572977526366","3531205.0"
"1572977526419","3538131.0"
"1572977526464","3549921.0"
"1572977526671","3560094.0"
"1572977526672","3574964.0"
"1572977526674","3597141.0"
"1572977526674","3583083.0"
"1572977526735","3555933.0"
"1572977526846","3551095.0"
"1572977526855","3548848.0"
"1572977526885","3557351.0"
"1572977526900","3564050.0"
"1572977526950","3569229.0"
"1572977527159","3603256.0"
"1572977527159","3629824.0"
"1572977527210","3650738.0"
"1572977527292","3676643.0"
"1572977527293","3697479.0"
"1572977527336","3714265.0"
"1572977527384","3689323.0"
"1572977527436","3682442.0"
"1572977527483","3684081.0"
"1572977527530","3680054.0"
"1572977527580","3682759.0"
"1572977527627","3691568.0"
"1572977527681","3705494.0"
"1572977527723","3720641.0"
"1572977527780","3784167.0"
"1572977527821","3787058.0"
"1572977527870","3799637.0"
"1572977527918","3820001.0"
"1572977527967","3852712.0"
"1572977528020","3878530.0"
"1572977528064","3882942.0"
"1572977528121","3862572.0"
"1572977528162","3878712.0"
"1572977528211","3865803.0"
"1572977528259","3818077.0"
"1572977528308","3794072.0"
"1572977528358","3780510.0"
"1572977528404","3760707.0"
"1572977528454","3748459.0"
"1572977528502","3738341.0"
"1572977528551","3741186.0"
"1572977528600","3744873.0"
"1572977528647","3749483.0"
"1572977528698","3764796.0"
"1572977528745","3770162.0"
"1572977528798","3776908.0"
"1572977528841","3759831.0"
"1572977528891","3722051.0"
"1572977528939","3714864.0"
"1572977528988","3706754.0"
"1572977529037","3713263.0"
"1572977529085","3709819.0"
"1572977529140","3713980.0"
"1572977529184","3710000.0"
"1572977529231","3720309.0"
"1572977529281","3730025.0"
"1572977529328","3736204.0"
"1572977529380","3740145.0"
"1572977529425","3745527.0"
"1572977529477","3746173.0"
"1572977529520","3739713.0"
"1572977529573","3698031.0"
"1572977529619","3672189.0"
"1572977529677","3653339.0"
"1572977529723","3644568.0"
"1572977529770","3642487.0"
"1572977529820","3644149.0"
"1572977529867","3640068.0"
"1572977529910","3634560.0"
"1572977529959","3624897.0"
"1572977530014","3609963.0"
"1572977530061","3589434.0"
"1572977530106","3565736.0"
"1572977530159","3549401.0"
"1572977530201","3547619.0"
"1572977530463","3547526.0"
"1572977530464","3510265.0"
"1572977530464","3467347.0"
"1572977530464","3448433.0"
"1572977530464","3443074.0"
"1572977530499","3442655.0"
"1572977530591","3450040.0"
"1572977530598","3455620.0"
"1572977530646","3457007.0"
"1572977530698","3459923.0"
"1572977530738","3476307.0"
"1572977530791","3484070.0"
"1572977530838","3499168.0"
"1572977530885","3510706.0"
"1572977530937","3522716.0"
"1572977530981","3537698.0"
"1572977531031","3536012.0"
"1572977531084","3492075.0"
"1572977531131","3459567.0"
"1572977531180","3447897.0"
"1572977531227","3444721.0"
"1572977531281","3459805.0"
"1572977531318","3465368.0"
"1572977531376","3457133.0"
"1572977531420","3459260.0"
"1572977531470","3469238.0"
"1572977531520","3479151.0"
"1572977531567","3494788.0"
"1572977531619","3499729.0"
"1572977531665","3513496.0"
"1572977531709","3520770.0"
"1572977531766","3531142.0"
"1572977531809","3520225.0"
"1572977531855","3473107.0"
"1572977531902","3434365.0"
"1572977531956","3404395.0"
"1572977532001","3392700.0"
"1572977532049","3390667.0"
"1572977532100","3393267.0"
"1572977532280","3392936.0"
"1572977532280","3398926.0"
"1572977532280","3421267.0"
"1572977532317","3436824.0"
"1572977532483","3459269.0"
"1572977532486","3484344.0"
"1572977532490","3512023.0"
"1572977532531","3538738.0"
"1572977532595","3548990.0"
"1572977532642","3548684.0"
"1572977532642","3529927.0"
"1572977532688","3511873.0"
"1572977532728","3515891.0"
"1572977532785","3522968.0"
"1572977532835","3539289.0"
"1572977532902","3550433.0"
"1572977532921","3560346.0"
"1572977532973","3573839.0"
"1572977533020","3592492.0"
"1572977533068","3612178.0"
"1572977533121","3630421.0"
"1572977533165","3647618.0"
"1572977533215","3660865.0"
"1572977533261","3677793.0"
"1572977533313","3698062.0"
"1572977533361","3707487.0"
"1572977533409","3694894.0"
"1572977533457","3661763.0"
"1572977533506","3651669.0"
"1572977533554","3658193.0"
"1572977533604","3599018.0"
"1572977533656","3525229.0"
"1572977533702","3523409.0"
"1572977533748","3534955.0"
"1572977533796","3564909.0"
"1572977533845","3552530.0"
"1572977533895","3514481.0"
"1572977533942","3499075.0"
"1572977533992","3504109.0"
"1572977534040","3485740.0"
"1572977534088","3489176.0"
"1572977534140","3510777.0"
"1572977534186","3519414.0"
"1572977534235","3509351.0"
"1572977534285","3489255.0"
"1572977534332","3474541.0"
"1572977534387","3474243.0"
"1572977534428","3481295.0"
"1572977534481","3487427.0"
"1572977534525","3490547.0"
"1572977534578","3498018.0"
"1572977534623","3505048.0"
"1572977534675","3512976.0"
"1572977534723","3508697.0"
"1572977534769","3512598.0"
"1572977534816","3524063.0"
"1572977534865","3524482.0"
"1572977534916","3508278.0"
"1572977534963","3458677.0"
"1572977535013","3425879.0"
"1572977535063","3409952.0"
"1572977535111","3404686.0"
"1572977535157","3406358.0"
"1572977535205","3404940.0"
"1572977535255","3396421.0"
"1572977535304","3392928.0"
"1572977535352","3396798.0"
"1572977535403","3405947.0"
"1572977535449","3414593.0"
"1572977535497","3422583.0"
"1572977535545","3422394.0"
"1572977535595","3405474.0"
"1572977535649","3364630.0"
"1572977535692","3340450.0"
"1572977535745","3331799.0"
"1572977535790","3329757.0"
"1572977535837","3327512.0"
"1572977535887","3325486.0"
"1572977535935","3322136.0"
"1572977535988","3323247.0"
"1572977536032","3327975.0"
"1572977536088","3330939.0"
"1572977536128","3336502.0"
"1572977536178","3344321.0"
"1572977536226","3338213.0"
"1572977536279","3297044.0"
"1572977536323","3265080.0"
"1572977536374","3255040.0"
"1572977536426","3249745.0"
"1572977536469","3250777.0"
"1572977536517","3248735.0"
"1572977536566","3237443.0"
"1572977536615","3229608.0"
"1572977536665","3230900.0"
"1572977536713","3240697.0"
"1572977536765","3256907.0"
"1572977536811","3268477.0"
"1572977536858","3280961.0"
"1572977536907","3258861.0"
"1572977536956","3220010.0"
"1572977537008","3198455.0"
"1572977537053","3196046.0"
"1572977537109","3198559.0"
"1572977537156","3206314.0"
"1572977537198","3209260.0"
"1572977537247","3213698.0"
"1572977537296","3217363.0"
"1572977537346","3224415.0"
"1572977537393","3230703.0"
"1572977537446","3242674.0"
"1572977537492","3250178.0"
"1572977537539","3260871.0"
"1572977537587","3241965.0"
"1572977537636","3213689.0"
"1572977537686","3201852.0"
"1572977537734","3204620.0"
"1572977537793","3212090.0"
"1572977537831","3215825.0"
"1572977537885","3216985.0"
"1572977537928","3217237.0"
"1572977537980","3222200.0"
"1572977538027","3233060.0"
"1572977538078","3242471.0"
"1572977538121","3253235.0"
"1572977538177","3260162.0"
"1572977538218","3255269.0"
"1572977538267","3231532.0"
"1572977538316","3212326.0"
"1572977538366","3208567.0"
"1572977538414","3207637.0"
"1572977538461","3215660.0"
"1572977538512","3219451.0"
"1572977538559","3220555.0"
"1572977538611","3223029.0"
"1572977538657","3229917.0"
"1572977538709","3239208.0"
"1572977538754","3249217.0"
"1572977538802","3257878.0"
"1572977538850","3266868.0"
"1572977538899","3251793.0"
"1572977539161","3226747.0"
"1572977539161","3214762.0"
"1572977539165","3211964.0"
"1572977539165","3220098.0"
"1572977539167","3231351.0"
"1572977539245","3240240.0"
"1572977539245","3244558.0"
"1572977539428","3271259.0"
"1572977539458","3280337.0"
"1572977539538","3289124.0"
"1572977539541","3296847.0"
"1572977539578","3302979.0"
"1572977539628","3288470.0"
"1572977539676","3259871.0"
"1572977539729","3243257.0"
"1572977539774","3237317.0"
"1572977539821","3233369.0"
"1572977539872","3234251.0"
"1572977539918","3232028.0"
"1572977539970","3228915.0"
"1572977540016","3229372.0"
"1572977540072","3233115.0"
"1572977540113","3241248.0"
"1572977540162","3247766.0"
"1572977540413","3255852.0"
"1572977540414","3261125.0"
"1572977540423","3269422.0"
"1572977540424","3277208.0"
"1572977540424","3281440.0"
"1572977540477","3290227.0"
"1572977540560","3300323.0"
"1572977540560","3301142.0"
"1572977540599","3268366.0"
"1572977540649","3237560.0"
"1572977540696","3223060.0"
"1572977540750","3220569.0"
"1572977540794","3218710.0"
"1572977540842","3215975.0"
"1572977540891","3209632.0"
"1572977540940","3208732.0"
"1572977540989","3210601.0"
"1572977541037","3214297.0"
"1572977541090","3221215.0"
"1572977541134","3228718.0"
"1572977541182","3236181.0"
"1572977541232","3243014.0"
"1572977541280","3251722.0"
"1572977541332","3260936.0"
"1572977541376","3269510.0"
"1572977541432","3275995.0"
"1572977541474","3285357.0"
"1572977541522","3293474.0"
"1572977541573","3304955.0"
"1572977541620","3314761.0"
"1572977541671","3325927.0"
"1572977541716","3310915.0"
"1572977541765","3272913.0"
"1572977541814","3249058.0"
"1572977541863","3247347.0"
"1572977541912","3251067.0"
"1572977541960","3257506.0"
"1572977542010","3252100.0"
"1572977542057","3249082.0"
"1572977542106","3249200.0"
"1572977542155","3252888.0"
"1572977542202","3260391.0"
"1572977542252","3269879.0"
"1572977542299","3280375.0"
"1572977542349","3287682.0"
"1572977542397","3295333.0"
"1572977542446","3302095.0"
"1572977542496","3310488.0"
"1572977542543","3317290.0"
"1572977542593","3327693.0"
"1572977542665","3339292.0"
"1572977542697","3335060.0"
"1572977542736","3301063.0"
"1572977542786","3275568.0"
"1572977542834","3265592.0"
"1572977542887","3263260.0"
"1572977542934","3264883.0"
"1572977542980","3268563.0"
"1572977543035","3264678.0"
"1572977543077","3260903.0"
"1572977543389","3261730.0"
"1572977543389","3267744.0"
"1572977543389","3272740.0"
"1572977543389","3283537.0"
"1572977543389","3293056.0"
"1572977543391","3298171.0"
"1572977543448","3305870.0"
"1572977543528","3314208.0"
"1572977543528","3291150.0"
"1572977543567","3254960.0"
"1572977543615","3237662.0"
"1572977543664","3232824.0"
"1572977543917","3234535.0"
"1572977543917","3236339.0"
"1572977543917","3233432.0"
"1572977543917","3229096.0"
"1572977543918","3225258.0"
"1572977543988","3227977.0"
"1572977544017","3236914.0"
"1572977544078","3240697.0"
"1572977544100","3249989.0"
"1572977544149","3257295.0"
"1572977544198","3263197.0"
"1572977544247","3238475.0"
"1572977544299","3203240.0"
"1572977544344","3183957.0"
"1572977544398","3179345.0"
"1572977544443","3179148.0"
"1572977544494","3179928.0"
"1572977544543","3176320.0"
"1572977544587","3171370.0"
"1572977544641","3169377.0"
"1572977544688","3169991.0"
"1572977544734","3175115.0"
"1572977544785","3183522.0"
"1572977544836","3190371.0"
"1572977544877","3195446.0"
"1572977544930","3185942.0"
"1572977544979","3146845.0"
"1572977545027","3128161.0"
"1572977545078","3123195.0"
"1572977545119","3128317.0"
"1572977545174","3133204.0"
"1572977545219","3133505.0"
"1572977545266","3133259.0"
"1572977545321","3138011.0"
"1572977545367","3143023.0"
"1572977545681","3154962.0"
"1572977545681","3166177.0"
"1572977545681","3181458.0"
"1572977545681","3191891.0"
"1572977545681","3181756.0"
"1572977545681","3151140.0"
"1572977545735","3133622.0"
"1572977545884","3128049.0"
"1572977545884","3128649.0"
"1572977545885","3137633.0"
"1572977545913","3137168.0"
"1572977545954","3137861.0"
"1572977546002","3138249.0"
"1572977546048","3142227.0"
"1572977546094","3151802.0"
"1572977546330","3162142.0"
"1572977546330","3174625.0"
"1572977546330","3181127.0"
"1572977546330","3169542.0"
"1572977546381","3143127.0"
"1572977546401","3127340.0"
"1572977546463","3121076.0"
"1572977546567","3117364.0"
"1572977546567","3120146.0"
"1572977546788","3145002.0"
"1572977546859","3175342.0"
"1572977546882","3203933.0"
"1572977546925","3230514.0"
"1572977546975","3249846.0"
"1572977547017","3246616.0"
"1572977547071","3245220.0"
"1572977547114","3265080.0"
"1572977547166","3283260.0"
"1572977547219","3314665.0"
"1572977547263","3348577.0"
"1572977547314","3372848.0"
"1572977547362","3398950.0"
"1572977547411","3421907.0"
"1572977547458","3440640.0"
"1572977547505","3452862.0"
"1572977547548","3466575.0"
"1572977547599","3482461.0"
"1572977547649","3499373.0"
"1572977547699","3513709.0"
"1572977547746","3506592.0"
"1572977547794","3512612.0"
"1572977547839","3525790.0"
"1572977547889","3551331.0"
"1572977547939","3573869.0"
"1572977547989","3589182.0"
"1572977548038","3596369.0"
"1572977548087","3596495.0"
"1572977548135","3598906.0"
"1572977548182","3598520.0"
"1572977548230","3596487.0"
"1572977548278","3599213.0"
"1572977548329","3604077.0"
"1572977548385","3603311.0"
"1572977548424","3590089.0"
"1572977548476","3562254.0"
"1572977548522","3543877.0"
"1572977548573","3533970.0"
"1572977548620","3526727.0"
"1572977548676","3525144.0"
"1572977548726","3522078.0"
"1572977548772","3517167.0"
"1572977548819","3515836.0"
"1572977548867","3519943.0"
"1572977548920","3525032.0"
"1572977548960","3528730.0"
"1572977549016","3533332.0"
"1572977549065","3539163.0"
"1572977549106","3530085.0"
"1572977549161","3501549.0"
"1572977549208","3478426.0"
"1572977549260","3462926.0"
"1572977549301","3455406.0"
"1572977549350","3452231.0"
"1572977549405","3448053.0"
"1572977549453","3440197.0"
"1572977549501","3432269.0"
"1572977549784","3437982.0"
"1572977549813","3419235.0"
"1572977549865","3382391.0"
"1572977549890","3362076.0"
"1572977549937","3347512.0"
"1572977549979","3342973.0"
"1572977550036","3340625.0"
"1572977550085","3336322.0"
"1572977550131","3326984.0"
"1572977550180","3326455.0"
"1572977550231","3325415.0"
"1572977550279","3329844.0"
"1572977550320","3336866.0"
"1572977550372","3339828.0"
"1572977550422","3343116.0"
"1572977550473","3321213.0"
"1572977550518","3288825.0"
"1572977550567","3275239.0"
"1572977550620","3269414.0"
"1572977550667","3270093.0"
"1572977550717","3270416.0"
"1572977550764","3265694.0"
"1572977550813","3262636.0"
"1572977550860","3262417.0"
"1572977550907","3269193.0"
"1572977550957","3274112.0"
"1572977551007","3282173.0"
"1572977551056","3285412.0"
"1572977551099","3292409.0"
"1572977551153","3273923.0"
"1572977551196","3246939.0"
"1572977551243","3234062.0"
"1572977551300","3226936.0"
"1572977551342","3229608.0"
"1572977551392","3231357.0"
"1572977551436","3228806.0"
"1572977551494","3230870.0"
"1572977551541","3234267.0"
"1572977551585","3243542.0"
"1572977551637","3250870.0"
"1572977551683","3260493.0"
"1572977551737","3267208.0"
"1572977551786","3279179.0"
"1572977551833","3285467.0"
"1572977551883","3279926.0"
"1572977551929","3257514.0"
"1572977551975","3247678.0"
"1572977552027","3246260.0"
"1572977552078","3246222.0"
"1572977552126","3250517.0"
"1572977552172","3254007.0"
"1572977552222","3254763.0"
"1572977552265","3257577.0"
"1572977552317","3266490.0"
"1572977552365","3271407.0"
"1572977552418","3281243.0"
"1572977552465","3292450.0"
"1572977552511","3298659.0"
"1572977552563","3307463.0"
"1572977552605","3317321.0"
"1572977552657","3325935.0"
"1572977552705","3336480.0"
"1572977552758","3343130.0"
"1572977552806","3353193.0"
"1572977552848","3364953.0"
"1572977552897","3371895.0"
"1572977552948","3382345.0"
"1572977552996","3394757.0"
"1572977553045","3405901.0"
"1572977553092","3410872.0"
"1572977553141","3420330.0"
"1572977553194","3415846.0"
"1572977553238","3390730.0"
"1572977553284","3375528.0"
"1572977553336","3370877.0"
"1572977553386","3371658.0"
"1572977553431","3371138.0"
"1572977553487","3365796.0"
"1572977553531","3361761.0"
"1572977553583","3359563.0"
"1572977553628","3359232.0"
"1572977553678","3361288.0"
"1572977553726","3364849.0"
"1572977553779","3367718.0"
"1572977553825","3374392.0"
"1572977553875","3377466.0"
"1572977553924","3383749.0"
"1572977553965","3386443.0"
"1572977554019","3391140.0"
"1572977554062","3397286.0"
"1572977554117","3404340.0"
"1572977554166","3408477.0"
"1572977554207","3414278.0"
"1572977554261","3398225.0"
"1572977554306","3366653.0"
"1572977554359","3349120.0"
"1572977554408","3343264.0"
"1572977554455","3341901.0"
"1572977554504","3341145.0"
"1572977554545","3336960.0"
"1572977554597","3326275.0"
"1572977554647","3323160.0"
"1572977554699","3324178.0"
"1572977554748","3326329.0"
"1572977554791","3329308.0"
"1572977554845","3336196.0"
"1572977554890","3344605.0"
"1572977554943","3348041.0"
"1572977554988","3351933.0"
"1572977555039","3357236.0"
"1572977555082","3361854.0"
"1572977555137","3356954.0"
"1572977555186","3318826.0"
"1572977555226","3288248.0"
"1572977555285","3277003.0"
"1572977555327","3271533.0"
"1572977555380","3268776.0"
"1572977555428","3262652.0"
"1572977555475","3255165.0"
"1572977555519","3249042.0"
"1572977555567","3247711.0"
"1572977555626","3248199.0"
"1572977555669","3253479.0"
"1572977555719","3257799.0"
"1572977555768","3263433.0"
"1572977555813","3266277.0"
"1572977555858","3271226.0"
"1572977555915","3276657.0"
"1572977555964","3259816.0"
"1572977556010","3221940.0"
"1572977556062","3198520.0"
"1572977556101","3194587.0"
"1572977556149","3193295.0"
"1572977556206","3192498.0"
"1572977556250","3185011.0"
"1572977556302","3181316.0"
"1572977556350","3177636.0"
"1572977556394","3178945.0"
"1572977556448","3183585.0"
"1572977556491","3190141.0"
"1572977556545","3195107.0"
"1572977556586","3200166.0"
"1572977556636","3205619.0"
"1572977556691","3211932.0"
"1572977556738","3206826.0"
"1572977556787","3178093.0"
"1572977556831","3154616.0"
"1572977556885","3148745.0"
"1572977556927","3148824.0"
"1572977556983","3152566.0"
"1572977557031","3150478.0"
"1572977557081","3143346.0"
"1572977557121","3143724.0"
"1572977557169","3145790.0"
"1572977557225","3151236.0"
"1572977557270","3158920.0"
"1572977557323","3166815.0"
"1572977557371","3174688.0"
"1572977557419","3181592.0"
"1572977557468","3189298.0"
"1572977557508","3172624.0"
"1572977557566","3146626.0"
"1572977557610","3136694.0"
"1572977557663","3137767.0"
"1572977557711","3138972.0"
"1572977557759","3142842.0"
"1572977557808","3142670.0"
"1572977557849","3142747.0"
"1572977557906","3145016.0"
"1572977557951","3151991.0"
"1572977558005","3161307.0"
"1572977558052","3170078.0"
"1572977558095","3179385.0"
"1572977558149","3188794.0"
"1572977558195","3196550.0"
"1572977558239","3206999.0"
"1572977558291","3194713.0"
"1572977558345","3171063.0"
"1572977558393","3163853.0"
"1572977558439","3164458.0"
"1572977558489","3165224.0"
"1572977558531","3166273.0"
"1572977558586","3168438.0"
"1572977558634","3171630.0"
"1572977558683","3173703.0"
"1572977558733","3182071.0"
"1572977558782","3189804.0"
"1572977558829","3197078.0"
"1572977558879","3208206.0"
"1572977558926","3216851.0"
"1572977558972","3224478.0"
"1572977559024","3235543.0"
"1572977559072","3242211.0"
"1572977559117","3234234.0"
"1572977559170","3214557.0"
"1572977559212","3200136.0"
"1572977559266","3202562.0"
"1572977559315","3204171.0"
"1572977559364","3208978.0"
"1572977559412","3209033.0"
"1572977559453","3210514.0"
"1572977559509","3212430.0"
"1572977559554","3219309.0"
"1572977559600","3226867.0"
"1572977559648","3233952.0"
"1572977559703","3242471.0"
"1572977559752","3249753.0"
"1572977559797","3258894.0"
"1572977559849","3267120.0"
"1572977559892","3273071.0"
"1572977559947","3264308.0"
"1572977559992","3244976.0"
"1572977560042","3235874.0"
"1572977560088","3237205.0"
"1572977560133","3240216.0"
"1572977560188","3243440.0"
"1572977560234","3241886.0"
"1572977560287","3241398.0"
"1572977560335","3245844.0"
"1572977560385","3248499.0"
"1572977560426","3259367.0"
"1572977560475","3264906.0"
"1572977560528","3270257.0"
"1572977560575","3277303.0"
"1572977560626","3284695.0"
"1572977560676","3291046.0"
"1572977560718","3298454.0"
"1572977560772","3305429.0"
"1572977560813","3293427.0"
"1572977560862","3267216.0"
"1572977560915","3254221.0"
"1572977560966","3250698.0"
"1572977561014","3248231.0"
"1572977561057","3247199.0"
"1572977561105","3244960.0"
"1572977561155","3243881.0"
"1572977561202","3240287.0"
"1572977561259","3246047.0"
"1572977561304","3253961.0"
"1572977561354","3259066.0"
"1572977561398","3263843.0"
"1572977561452","3267728.0"
"1572977561495","3275302.0"
"1572977561549","3280723.0"
"1572977561591","3287848.0"
"1572977561638","3295278.0"
"1572977561695","3305429.0"
"1572977561735","3301268.0"
"1572977561792","3272385.0"
"1572977561834","3250659.0"
"1572977561889","3243580.0"
"1572977561940","3239460.0"
"1572977561983","3236780.0"
"1572977562034","3236890.0"
"1572977562078","3232666.0"
"1572977562125","3232690.0"
"1572977562178","3233282.0"
"1572977562222","3237749.0"
"1572977562272","3246860.0"
"1572977562320","3252219.0"
"1572977562368","3259532.0"
"1572977562420","3266696.0"
"1572977562491","3273742.0"
"1572977562534","3280566.0"
"1572977562562","3287933.0"
"1572977562611","3295790.0"
"1572977562660","3302467.0"
"1572977562706","3293253.0"
"1572977562758","3261021.0"
"1572977562806","3243983.0"
"1572977562857","3242754.0"
"1572977562902","3246142.0"
"1572977562952","3247018.0"
"1572977563000","3245275.0"
"1572977563047","3241705.0"
"1572977563100","3241691.0"
"1572977563147","3247057.0"
"1572977563199","3251825.0"
"1572977563244","3259964.0"
"1572977563294","3268169.0"
"1572977563340","3274120.0"
"1572977563390","3278894.0"
"1572977563439","3286972.0"
"1572977563486","3296138.0"
"1572977563537","3292032.0"
"1572977563584","3265143.0"
"1572977563634","3244741.0"
"1572977563681","3239356.0"
"1572977563730","3242288.0"
"1572977563778","3242682.0"
"1572977563827","3244566.0"
"1572977563876","3243605.0"
"1572977563923","3243897.0"
"1572977563975","3250295.0"
"1572977564021","3255458.0"
"1572977564069","3262187.0"
"1572977564118","3270400.0"
"1572977564165","3277358.0"
"1572977564218","3284024.0"
"1572977564261","3289518.0"
"1572977564314","3298525.0"
"1572977564360","3304846.0"
"1572977564407","3303507.0"
"1572977564460","3275349.0"
"1572977564507","3253709.0"
"1572977564557","3246884.0"
"1572977564601","3243960.0"
"1572977564652","3244141.0"
"1572977564698","3243060.0"
"1572977564748","3237694.0"
"1572977564800","3235417.0"
"1572977564844","3238696.0"
"1572977564896","3243960.0"
"1572977564943","3250169.0"
"1572977564992","3258248.0"
"1572977565038","3264142.0"
"1572977565089","3274276.0"
"1572977565138","3279754.0"
"1572977565186","3286381.0"
"1572977565238","3294002.0"
"1572977565283","3299959.0"
"1572977565334","3273512.0"
"1572977565381","3254456.0"
"1572977565430","3249523.0"
"1572977565480","3250492.0"
"1572977565807","3253969.0"
"1572977565807","3252455.0"
"1572977565807","3249846.0"
"1572977565812","3248436.0"
"1572977565813","3249556.0"
"1572977565815","3254615.0"
"1572977565885","3260802.0"
"1572977565891","3266072.0"
"1572977565932","3274128.0"
"1572977565994","3279351.0"
"1572977566014","3286532.0"
"1572977566061","3291906.0"
"1572977566359","3281930.0"
"1572977566359","3258500.0"
"1572977566359","3247987.0"
"1572977566360","3245614.0"
"1572977566360","3250224.0"
"1572977566365","3250304.0"
"1572977566468","3250194.0"
"1572977566469","3250454.0"
"1572977566576","3250728.0"
"1572977566578","3257230.0"
"1572977566610","3263865.0"
"1572977566641","3271385.0"
"1572977566693","3278344.0"
"1572977566742","3284900.0"
"1572977566798","3289795.0"
"1572977566839","3300597.0"
"1572977566892","3306981.0"
"1572977566940","3291385.0"
"1572977566988","3268067.0"
"1572977567037","3259950.0"
"1572977567085","3257728.0"
"1572977567138","3259830.0"
"1572977567182","3260856.0"
"1572977567232","3261864.0"
"1572977567282","3259767.0"
"1572977567329","3260265.0"
"1572977567376","3267082.0"
"1572977567420","3272850.0"
"1572977567476","3282212.0"
"1572977567523","3288667.0"
"1572977567566","3294246.0"
"1572977567618","3301820.0"
"1572977567664","3308503.0"
"1572977567714","3315114.0"
"1572977567760","3322626.0"
"1572977567816","3303704.0"
"1572977567864","3283072.0"
"1572977567913","3272173.0"
"1572977567962","3269816.0"
"1572977568005","3272370.0"
"1572977568056","3269518.0"
"1572977568101","3269784.0"
"1572977568148","3265576.0"
"1572977568196","3265269.0"
"1572977568251","3264056.0"
"1572977568302","3272645.0"
"1572977568347","3272110.0"
"1572977568395","3280211.0"
"1572977568444","3295453.0"
"1572977568495","3321829.0"
"1572977568543","3333327.0"
"1572977568588","3339434.0"
"1572977568646","3320482.0"
"1572977568681","3295924.0"
"1572977568736","3282119.0"
"1572977568783","3279595.0"
"1572977568834","3277925.0"
"1572977568881","3274465.0"
"1572977568932","3267246.0"
"1572977568980","3261834.0"
"1572977569028","3259863.0"
"1572977569080","3263016.0"
"1572977569124","3263219.0"
"1572977569173","3267043.0"
"1572977569224","3271604.0"
"1572977569270","3277580.0"
"1572977569329","3280747.0"
"1572977569360","3284150.0"
"1572977569416","3289699.0"
"1572977569466","3263709.0"
"1572977569514","3226796.0"
"1572977569564","3208236.0"
"1572977569606","3200702.0"
"1572977569658","3194414.0"
"1572977569705","3189684.0"
"1572977569759","3182466.0"
"1572977569806","3176541.0"
"1572977569855","3174144.0"
"1572977569897","3173877.0"
"1572977569943","3176281.0"
"1572977570003","3180379.0"
"1572977570048","3187913.0"
"1572977570092","3191072.0"
"1572977570146","3195824.0"
"1572977570193","3203011.0"
"1572977570238","3199301.0"
"1572977570289","3166722.0"
"1572977570340","3135553.0"
"1572977570385","3121162.0"
"1572977570439","3115938.0"
"1572977570487","3112226.0"
"1572977570534","3110280.0"
"1572977570577","3104629.0"
"1572977570625","3098024.0"
"1572977570677","3099286.0"
"1572977570726","3103431.0"
"1572977570779","3108939.0"
"1572977570819","3113984.0"
"1572977570868","3119286.0"
"1572977570919","3125694.0"
"1572977570967","3128695.0"
"1572977571016","3137940.0"
"1572977571064","3116080.0"
"1572977571111","3084928.0"
"1572977571166","3073405.0"
"1572977571215","3069001.0"
"1572977571263","3073846.0"
"1572977571305","3074391.0"
"1572977571354","3069047.0"
"1572977571406","3064894.0"
"1572977571458","3070592.0"
"1572977571506","3077337.0"
"1572977571548","3083280.0"
"1572977571597","3090797.0"
"1572977571646","3100302.0"
"1572977571698","3107734.0"
"1572977571748","3117332.0"
"1572977571796","3120633.0"
"1572977571846","3099940.0"
"1572977571894","3070892.0"
"1572977571943","3060520.0"
"1572977571987","3058204.0"
"1572977572038","3058692.0"
"1572977572082","3058541.0"
"1572977572138","3056201.0"
"1572977572185","3056493.0"
"1572977572225","3058171.0"
"1572977572283","3065943.0"
"1572977572328","3073310.0"
"1572977572379","3082910.0"
"1572977572427","3093770.0"
"1572977572471","3102232.0"
"1572977572525","3111265.0"
"1572977572566","3119642.0"
"1572977572623","3127877.0"
"1572977572670","3107356.0"
"1572977572718","3083792.0"
"1572977572769","3077345.0"
"1572977572809","3074350.0"
"1572977572858","3075478.0"
"1572977572917","3075809.0"
"1572977572964","3075423.0"
"1572977573008","3074966.0"
"1572977573059","3080411.0"
"1572977573102","3088709.0"
"1572977573150","3098150.0"
"1572977573198","3107072.0"
"1572977573248","3117049.0"
"1572977573298","3123762.0"
"1572977573349","3132850.0"
"1572977573394","3143779.0"
"1572977573445","3152142.0"
"1572977573494","3164332.0"
"1572977573546","3157562.0"
"1572977573587","3133102.0"
"1572977573645","3121769.0"
"1572977573692","3120926.0"
"1572977573741","3125087.0"
"1572977573788","3129453.0"
"1572977573834","3127562.0"
"1572977573879","3127852.0"
"1572977573930","3129831.0"
"1572977573984","3137436.0"
"1572977574031","3143157.0"
"1572977574080","3153292.0"
"1572977574122","3162473.0"
"1572977574171","3167595.0"
"1572977574225","3176155.0"
"1572977574267","3187250.0"
"1572977574325","3198913.0"
"1572977574371","3197259.0"
"1572977574417","3174034.0"
"1572977574469","3159369.0"
"1572977574509","3157453.0"
"1572977574566","3162355.0"
"1572977574610","3166421.0"
"1572977574666","3167248.0"
"1572977574711","3165224.0"
"1572977574758","3168069.0"
"1572977574807","3173057.0"
"1572977574849","3180828.0"
"1572977574905","3189938.0"
"1572977574950","3196990.0"
"1572977575002","3204280.0"
"1572977575051","3215896.0"
"1572977575094","3219663.0"
"1572977575149","3226843.0"
"1572977575190","3237963.0"
"1572977575238","3245978.0"
"1572977575294","3225606.0"
"1572977575342","3197921.0"
"1572977575390","3187187.0"
"1572977575437","3180040.0"
"1572977575488","3181474.0"
"1572977575529","3178794.0"
"1572977575587","3175129.0"
"1572977575634","3172679.0"
"1572977575676","3172158.0"
"1572977575730","3176651.0"
"1572977575778","3182388.0"
"1572977575828","3190371.0"
"1572977575871","3193484.0"
"1572977575918","3200451.0"
"1572977575967","3208614.0"
"1572977576017","3213043.0"
"1572977576064","3221721.0"
"1572977576116","3226676.0"
"1572977576167","3230610.0"
"1572977576212","3204825.0"
"1572977576264","3174814.0"
"1572977576313","3163018.0"
"1572977576360","3158619.0"
"1572977576402","3156508.0"
"1572977576451","3156122.0"
"1572977576507","3145742.0"
"1572977576552","3142566.0"
"1572977576598","3140707.0"
"1572977576653","3147461.0"
"1572977576697","3152692.0"
"1572977576750","3157839.0"
"1572977576794","3165238.0"
"1572977576847","3169857.0"
"1572977576896","3176336.0"
"1572977576943","3183112.0"
"1572977576993","3191877.0"
"1572977577040","3192468.0"
"1572977577089","3162835.0"
"1572977577132","3133858.0"
"1572977577187","3119018.0"
"1572977577235","3115922.0"
"1572977577282","3115749.0"
"1572977577332","3114433.0"
"1572977577379","3110649.0"
"1572977577429","3105873.0"
"1572977577474","3107490.0"
"1572977577527","3110184.0"
"1572977577574","3116489.0"
"1572977577617","3122462.0"
"1572977577675","3132511.0"
"1572977577713","3138564.0"
"1572977577769","3145750.0"
"1572977577815","3154608.0"
"1572977577866","3161157.0"
"1572977577915","3166273.0"
"1572977577960","3137294.0"
"1572977578012","3105410.0"
"1572977578053","3091949.0"
"1572977578102","3090813.0"
"1572977578154","3088599.0"
"1572977578205","3086140.0"
"1572977578254","3085368.0"
"1572977578297","3080592.0"
"1572977578352","3081388.0"
"1572977578394","3085368.0"
"1572977578448","3095259.0"
"1572977578494","3102360.0"
"1572977578540","3110154.0"
"1572977578587","3119727.0"
"1572977578637","3126946.0"
"1572977578686","3136467.0"
"1572977578735","3143946.0"
"1572977578789","3131580.0"
"1572977578835","3100310.0"
"1572977578879","3081350.0"
"1572977578934","3079631.0"
"1572977578975","3078544.0"
"1572977579032","3083272.0"
"1572977579075","3082256.0"
"1572977579124","3077156.0"
"1572977579178","3079812.0"
"1572977579219","3085440.0"
"1572977579274","3089403.0"
"1572977579315","3099357.0"
"1572977579371","3107852.0"
"1572977579415","3115284.0"
"1572977579465","3127143.0"
"1572977579519","3134693.0"
"1572977579564","3134315.0"
"1572977579608","3105015.0"
"1572977579658","3083532.0"
"1572977579712","3079048.0"
"1572977579760","3083847.0"
"1572977579806","3089349.0"
"1572977579858","3091183.0"
"1572977579903","3088678.0"
"1572977579954","3088465.0"
"1572977579997","3090545.0"
"1572977580060","3097671.0"
"1572977580103","3105922.0"
"1572977580153","3116009.0"
"1572977580190","3123628.0"
"1572977580237","3133078.0"
"1572977580292","3142465.0"
"1572977580336","3152205.0"
"1572977580390","3131613.0"
"1572977580440","3097134.0"
"1572977580482","3080978.0"
"1572977580538","3076786.0"
"1572977580578","3076677.0"
"1572977580635","3078330.0"
"1572977580676","3071301.0"
"1572977580730","3072554.0"
"1572977580779","3070331.0"
"1572977580828","3073783.0"
"1572977580878","3081350.0"
"1572977580925","3087613.0"
"1572977580975","3095147.0"
"1572977581018","3105385.0"
"1572977581073","3114386.0"
"1572977581116","3122131.0"
"1572977581164","3127135.0"
"1572977581218","3100255.0"
"1572977581258","3065067.0"
"1572977581314","3049534.0"
"1572977581357","3041007.0"
"1572977581408","3041954.0"
"1572977581457","3037635.0"
"1572977581502","3033380.0"
"1572977581549","3030960.0"
"1572977581599","3037903.0"
"1572977581655","3065604.0"
"1572977581697","3146396.0"
"1572977581751","3400998.0"
"1572977581797","3558060.0"
"1572977581846","3630256.0"
"1572977581896","3700796.0"
"1572977581946","3762448.0"
"1572977581995","3827858.0"
"1572977582037","3869901.0"
"1572977582088","3902567.0"
"1572977582133","3910054.0"
"1572977582186","3910700.0"
"1572977582239","3917722.0"
"1572977582280","3915570.0"
"1572977582334","3916019.0"
"1572977582379","3921243.0"
"1572977582431","3912795.0"
"1572977582476","3899997.0"
"1572977582522","3890462.0"
"1572977582579","3878113.0"
"1572977582623","3876646.0"
"1572977582675","3894544.0"
"1572977582719","3911881.0"
"1572977582772","3932672.0"
"1572977582816","3938029.0"
"1572977582866","3935869.0"
"1572977582918","3939283.0"
"1572977582966","3946510.0"
"1572977583014","3950236.0"
"1572977583060","3962262.0"
"1572977583105","3971547.0"
"1572977583156","3964990.0"
"1572977583205","3967701.0"
"1572977583258","3967134.0"
"1572977583299","3953255.0"
"1572977583355","3961845.0"
"1572977583404","3952577.0"
"1572977583452","3941325.0"
"1572977583496","3940378.0"
"1572977583540","3940945.0"
"1572977583589","3943712.0"
"1572977583639","3914199.0"
"1572977583689","3851075.0"
"1572977583739","3808967.0"
"1572977583786","3780187.0"
"1572977583836","3757088.0"
"1572977583881","3747655.0"
"1572977583937","3734834.0"
"1572977583979","3724613.0"
"1572977584033","3699425.0"
"1572977584081","3690252.0"
"1572977584130","3686887.0"
"1572977584176","3683011.0"
"1572977584223","3672630.0"
"1572977584277","3665515.0"
"1572977584321","3667311.0"
"1572977584370","3663032.0"
"1572977584421","3659148.0"
"1572977584469","3608387.0"
"1572977584516","3540589.0"
"1572977584559","3503723.0"
"1572977584610","3483156.0"
"1572977584661","3464311.0"
"1572977584713","3447251.0"
"1572977584761","3422734.0"
"1572977584808","3403276.0"
"1572977584857","3387696.0"
"1572977584903","3374165.0"
"1572977584955","3360981.0"
"1572977585000","3351438.0"
"1572977585068","3344178.0"
"1572977585096","3340365.0"
"1572977585143","3333272.0"
"1572977585200","3322837.0"
"1572977585241","3268429.0"
"1572977585296","3189583.0"
"1572977585342","3139084.0"
"1572977585390","3110682.0"
"1572977585438","3092106.0"
"1572977585487","3075399.0"
"1572977585540","3057005.0"
"1572977585581","3039723.0"
"1572977585635","3021937.0"
"1572977585681","3011943.0"
"1572977585731","3002959.0"
"1572977585780","2999635.0"
"1572977585823","2992162.0"
"1572977585876","2987749.0"
"1572977585922","2985022.0"
"1572977585975","2986764.0"
"1572977586024","2979167.0"
"1572977586073","2925413.0"
"1572977586122","2880501.0"
"1572977586163","2858097.0"
"1572977586217","2842957.0"
"1572977586262","2834352.0"
"1572977586315","2829559.0"
"1572977586363","2821245.0"
"1572977586409","2815256.0"
"1572977586459","2816099.0"
"1572977586504","2818560.0"
"1572977586559","2828401.0"
"1572977586603","2837298.0"
"1572977586655","2845456.0"
"1572977586704","2854432.0"
"1572977586750","2863896.0"
"1572977586799","2878752.0"
"1572977586846","2898186.0"
"1572977586894","2882212.0"
"1572977586946","2853337.0"
"1572977586993","2844826.0"
"1572977587038","2846811.0"
"1572977587090","2859034.0"
"1572977587139","2871344.0"
"1572977587182","2882029.0"
"1572977587235","2888019.0"
"1572977587286","2896278.0"
"1572977587332","2915437.0"
"1572977587376","2937636.0"
"1572977587425","2954477.0"
"1572977587479","2970270.0"
"1572977587524","2981595.0"
"1572977587578","2998491.0"
"1572977587626","3010249.0"
"1572977587672","3005742.0"
"1572977587724","2981042.0"
"1572977587771","2967598.0"
"1572977587821","2969372.0"
"1572977587865","2977930.0"
"1572977587918","2982849.0"
"1572977587967","2989342.0"
"1572977588013","2993566.0"
"1572977588058","2997829.0"
"1572977588106","3005710.0"
"1572977588161","3016389.0"
"1572977588206","3028691.0"
"1572977588257","3042608.0"
"1572977588306","3051528.0"
"1572977588352","3065155.0"
"1572977588404","3076211.0"
"1572977588444","3087307.0"
"1572977588500","3079614.0"
"1572977588546","3049581.0"
"1572977588592","3039290.0"
"1572977588646","3038384.0"
"1572977588695","3035018.0"
"1572977588744","3040323.0"
"1572977588784","3042551.0"
"1572977588842","3042781.0"
"1572977588885","3046729.0"
"1572977588939","3051908.0"
"1572977588985","3068046.0"
"1572977589028","3085053.0"
"1572977589079","3092555.0"
"1572977589124","3106535.0"
"1572977589178","3114038.0"
"1572977589228","3125449.0"
"1572977589276","3139516.0"
"1572977589326","3125835.0"
"1572977589365","3097600.0"
"1572977589425","3082075.0"
"1572977589466","3079031.0"
"1572977589516","3079647.0"
"1572977589567","3084643.0"
"1572977589616","3083767.0"
"1572977589666","3081341.0"
"1572977589708","3084950.0"
"1572977589764","3097126.0"
"1572977589808","3106078.0"
"1572977589857","3113959.0"
"1572977589901","3120800.0"
"1572977589956","3128271.0"
"1572977590006","3138468.0"
"1572977590045","3145908.0"
"1572977590097","3129823.0"
"1572977590151","3097843.0"
"1572977590199","3084509.0"
"1572977590241","3081270.0"
"1572977590296","3081916.0"
"1572977590346","3084793.0"
"1572977590386","3083201.0"
"1572977590445","3081687.0"
"1572977590488","3084936.0"
"1572977590538","3090340.0"
"1572977590588","3097788.0"
"1572977590632","3106291.0"
"1572977590678","3113376.0"
"1572977590728","3119067.0"
"1572977590784","3123896.0"
"1572977590831","3134000.0"
"1572977590873","3118522.0"
"1572977590924","3075935.0"
"1572977590973","3053742.0"
"1572977591025","3044372.0"
"1572977591067","3037021.0"
"1572977591117","3034286.0"
"1572977591172","3032425.0"
"1572977591217","3031629.0"
"1572977591260","3026129.0"
"1572977591313","3031094.0"
"1572977591358","3033709.0"
"1572977591407","3039937.0"
"1572977591463","3047281.0"
"1572977591511","3053271.0"
"1572977591558","3057109.0"
"1572977591602","3069370.0"
"1572977591650","3076614.0"
"1572977591709","3060158.0"
"1572977591750","3023008.0"
"1572977591804","3004757.0"
"1572977591851","2998885.0"
"1572977591894","2993487.0"
"1572977591944","2995504.0"
"1572977591990","2991762.0"
"1572977592045","2988909.0"
"1572977592089","2989901.0"
"1572977592146","2994045.0"
"1572977592191","3001067.0"
"1572977592234","3009288.0"
"1572977592287","3017437.0"
"1572977592329","3023307.0"
"1572977592386","3030337.0"
"1572977592430","3038817.0"
"1572977592484","3047486.0"
"1572977592531","3046217.0"
"1572977592577","3021582.0"
"1572977664841","3293395.0"
"1572977664940","3267287.0"
"1572977664940","3259310.0"
"1572977664978","3262321.0"
"1572977665025","3270690.0"
"1572977665280","3306573.0"
"1572977665280","3368805.0"
"1572977665280","3462666.0"
"1572977665285","3545002.0"
"1572977665286","3621036.0"
"1572977665351","3695256.0"
"1572977665367","3742179.0"
"1572977665646","3753660.0"
"1572977665647","3747206.0"
"1572977665694","3757704.0"
"1572977665718","3768925.0"
"1572977665786","3780959.0"
"1572977665805","3794767.0"
"1572977665860","3805169.0"
"1572977665904","3815375.0"
"1572977665951","3829315.0"
"1572977665996","3843311.0"
"1572977666044","3861516.0"
"1572977666096","3878247.0"
"1572977666141","3896616.0"
"1572977666191","3911361.0"
"1572977666238","3922513.0"
"1572977666287","3915491.0"
"1572977666335","3903939.0"
"1572977666383","3908855.0"
"1572977666440","3919140.0"
"1572977666484","3931843.0"
"1572977666533","3938683.0"
"1572977666580","3942428.0"
"1572977666629","3946138.0"
"1572977666873","3950449.0"
"1572977666874","3962130.0"
"1572977666878","3972555.0"
"1572977666878","3981121.0"
"1572977666878","4002777.0"
