"1573038261652","5205109.0"
"1573038261702","5304834.0"
"1573038261749","5399247.0"
"1573038261800","5415381.0"
"1573038261852","5449008.0"
"1573038261894","5441066.0"
"1573038261947","5432874.0"
"1573038261994","5422201.0"
"1573038262045","5411250.0"
"1573038262094","5402477.0"
"1573038262143","5403719.0"
"1573038262196","5402457.0"
"1573038262240","5389314.0"
"1573038262294","5390084.0"
"1573038262338","5406439.0"
"1573038262394","5489558.0"
"1573038262439","5550884.0"
"1573038262488","5637205.0"
"1573038262539","5735509.0"
"1573038262589","5799645.0"
"1573038262633","5831671.0"
"1573038262689","5803075.0"
"1573038262732","5753153.0"
"1573038262783","5694600.0"
"1573038262833","5617529.0"
"1573038262898","5565817.0"
"1573038263001","5597856.0"
"1573038263006","5594754.0"
"1573038263111","5561067.0"
"1573038263111","5503833.0"
"1573038263133","5416472.0"
"1573038263171","5285859.0"
"1573038263219","5269205.0"
"1573038263270","5271925.0"
"1573038263317","5224984.0"
"1573038263367","5176913.0"
"1573038263415","5131231.0"
"1573038263468","5124770.0"
"1573038263515","5103024.0"
"1573038263563","5049571.0"
"1573038263611","5007311.0"
"1573038263661","4978604.0"
"1573038263712","4979494.0"
"1573038263759","4981855.0"
"1573038263811","4952667.0"
"1573038263857","4888933.0"
"1573038263909","4824366.0"
"1573038263956","4778776.0"
"1573038264008","4675210.0"
"1573038264055","4554611.0"
"1573038264106","4440502.0"
"1573038264154","4333828.0"
"1573038264204","4236103.0"
"1573038264258","4139379.0"
"1573038264304","4052187.0"
"1573038264358","3971909.0"
"1573038264402","3909203.0"
"1573038264452","3801906.0"
"1573038264495","3697572.0"
"1573038264548","3616481.0"
"1573038264593","3570980.0"
"1573038264645","3541172.0"
"1573038264693","3508445.0"
"1573038264747","3465195.0"
"1573038264797","3439449.0"
"1573038264844","3415133.0"
"1573038264894","3354118.0"
"1573038264953","3288901.0"
"1573038264992","3224647.0"
"1573038265039","3179526.0"
"1573038265091","3144055.0"
"1573038265136","3082081.0"
"1573038265189","3029333.0"
"1573038265239","2999808.0"
"1573038265286","2975362.0"
"1573038265340","2915104.0"
"1573038265384","2864176.0"
"1573038265438","2846179.0"
"1573038265486","2846248.0"
"1573038265533","2833397.0"
"1573038265580","2793807.0"
"1573038265632","2749275.0"
"1573038265680","2702350.0"
"1573038265732","2680801.0"
"1573038265777","2660394.0"
"1573038265828","2634174.0"
"1573038265878","2606951.0"
"1573038265926","2600992.0"
"1573038265970","2615265.0"
"1573038266025","2627427.0"
"1573038266073","2621194.0"
"1573038266120","2618363.0"
"1573038266165","2618754.0"
"1573038266213","2605972.0"
"1573038266265","2578566.0"
"1573038266315","2547856.0"
"1573038266362","2513879.0"
"1573038266413","2500173.0"
"1573038266459","2484217.0"
"1573038266512","2475207.0"
"1573038266558","2478541.0"
"1573038266608","2486030.0"
"1573038266657","2484569.0"
"1573038266707","2472537.0"
"1573038266756","2479138.0"
"1573038266809","2487858.0"
"1573038266855","2497686.0"
"1573038266901","2489931.0"
"1573038266957","2452855.0"
"1573038267009","2427729.0"
"1573038267054","2446691.0"
"1573038267103","2478419.0"
"1573038267149","2437054.0"
"1573038267194","2433641.0"
"1573038267246","2449828.0"
"1573038267300","2473742.0"
"1573038267343","2494943.0"
"1573038267397","2510411.0"
"1573038267440","2487828.0"
"1573038267491","2447884.0"
"1573038267545","2429389.0"
"1573038267593","2410936.0"
"1573038267639","2351648.0"
"1573038267690","2318055.0"
"1573038267740","2336111.0"
"1573038267790","2386218.0"
"1573038267841","2433405.0"
"1573038267883","2464044.0"
"1573038267939","2457742.0"
"1573038267988","2437566.0"
"1573038268029","2400341.0"
"1573038268077","2348483.0"
"1573038268127","2329585.0"
"1573038268176","2349889.0"
"1573038268232","2395717.0"
"1573038268280","2456118.0"
"1573038268329","2489606.0"
"1573038268378","2503123.0"
"1573038268430","2509568.0"
"1573038268482","2496119.0"
"1573038268524","2431221.0"
"1573038268575","2372632.0"
"1573038268625","2348131.0"
"1573038268669","2339065.0"
"1573038268718","2336501.0"
"1573038268774","2369598.0"
"1573038268820","2418911.0"
"1573038268875","2462423.0"
"1573038268920","2482007.0"
"1573038268969","2438038.0"
"1573038269023","2397450.0"
"1573038269066","2377585.0"
"1573038269115","2387579.0"
"1573038269164","2426441.0"
"1573038269214","2502349.0"
"1573038269257","2604795.0"
"1573038269312","2698975.0"
"1573038269363","2786474.0"
"1573038269412","2800239.0"
"1573038269463","2784603.0"
"1573038269511","2799681.0"
"1573038269553","2857260.0"
"1573038269607","2906400.0"
"1573038269652","2871600.0"
"1573038269704","2872407.0"
"1573038269754","2905614.0"
"1573038269799","2981144.0"
"1573038269854","3047944.0"
"1573038269904","3118191.0"
"1573038269953","3218285.0"
"1573038270003","3333134.0"
"1573038270049","3398235.0"
"1573038270098","3385988.0"
"1573038270143","3363238.0"
"1573038270196","3361412.0"
"1573038270239","3347344.0"
"1573038270295","3366131.0"
"1573038270343","3401189.0"
"1573038270394","3439234.0"
"1573038270448","3446936.0"
"1573038270489","3415822.0"
"1573038270540","3409139.0"
"1573038270589","3437771.0"
"1573038270633","3485927.0"
"1573038270686","3514244.0"
"1573038270736","3703253.0"
"1573038270780","3688819.0"
"1573038270834","3553017.0"
"1573038270883","3497122.0"
"1573038270934","3429684.0"
"1573038270983","3407301.0"
"1573038271032","3388068.0"
"1573038271077","3376985.0"
"1573038271128","3379395.0"
"1573038271176","3431233.0"
"1573038271225","3479115.0"
"1573038271269","3433083.0"
"1573038271325","3390799.0"
"1573038271371","3389314.0"
"1573038271421","3429672.0"
"1573038271468","3467556.0"
"1573038271516","3472223.0"
"1573038271570","3463964.0"
"1573038271618","3452273.0"
"1573038271663","3505741.0"
"1573038271717","3486671.0"
"1573038271763","3488069.0"
"1573038271816","3491864.0"
"1573038271865","3536205.0"
"1573038271914","3616564.0"
"1573038271966","3638684.0"
"1573038272017","3663735.0"
"1573038272060","3658262.0"
"1573038272111","3705000.0"
"1573038272154","3709836.0"
"1573038272208","3724344.0"
"1573038272257","3765825.0"
"1573038272300","3814525.0"
"1573038272355","3877408.0"
"1573038272407","3988989.0"
"1573038272459","4049188.0"
"1573038272498","4100197.0"
"1573038272548","4094415.0"
"1573038272596","4086491.0"
"1573038272646","4097115.0"
"1573038272694","4046679.0"
"1573038272748","4072165.0"
"1573038272796","4079989.0"
"1573038272841","4041713.0"
"1573038272896","3945384.0"
"1573038272949","3872367.0"
"1573038272995","3809133.0"
"1573038273043","3779433.0"
"1573038273091","3804781.0"
"1573038273140","3943517.0"
"1573038273192","3938728.0"
"1573038273238","3881415.0"
"1573038273288","3851073.0"
"1573038273337","3833532.0"
"1573038273380","3844372.0"
"1573038273438","3884889.0"
"1573038273490","3900377.0"
"1573038273533","3901494.0"
"1573038273582","3979223.0"
"1573038273627","3984814.0"
"1573038273673","3912102.0"
"1573038273731","3882479.0"
"1573038273777","3895436.0"
"1573038273827","3939126.0"
"1573038273876","4025055.0"
"1573038273927","4265721.0"
"1573038273976","4526969.0"
"1573038274026","4611230.0"
"1573038274073","4599773.0"
"1573038274120","4647513.0"
"1573038274171","4637630.0"
"1573038274218","4646034.0"
"1573038274269","4642941.0"
"1573038274318","4675021.0"
"1573038274366","4693075.0"
"1573038274415","4654045.0"
"1573038274468","4565682.0"
"1573038274515","4516102.0"
"1573038274563","4515230.0"
"1573038274612","4530614.0"
"1573038274656","4591650.0"
"1573038274712","4702437.0"
"1573038274758","4859304.0"
"1573038274804","4855614.0"
"1573038274857","4814104.0"
"1573038274909","4794900.0"
"1573038274959","4766553.0"
"1573038275003","4757130.0"
"1573038275054","4752329.0"
"1573038275103","4737375.0"
"1573038275148","4778926.0"
"1573038275200","4876009.0"
"1573038275245","4786476.0"
"1573038275298","4648823.0"
"1573038275349","4555771.0"
"1573038275396","4533955.0"
"1573038275458","4523312.0"
"1573038275494","4519911.0"
"1573038275544","4596431.0"
"1573038275588","4612414.0"
"1573038275636","4617236.0"
"1573038275693","4628368.0"
"1573038275740","4595120.0"
"1573038275783","4530364.0"
"1573038275838","4473150.0"
"1573038275887","4452807.0"
"1573038275935","4462108.0"
"1573038275986","4484343.0"
"1573038276035","4439023.0"
"1573038276083","4367305.0"
"1573038276133","4342849.0"
"1573038276181","4320323.0"
"1573038276226","4334766.0"
"1573038276280","4392441.0"
"1573038276327","4514251.0"
"1573038276378","4742737.0"
"1573038276432","4804581.0"
"1573038276481","4803352.0"
"1573038276527","4789087.0"
"1573038276576","4781777.0"
"1573038276623","4785798.0"
"1573038276666","4800902.0"
"1573038276720","4846992.0"
"1573038276766","4888872.0"
"1573038276819","4931992.0"
"1573038276866","4850913.0"
"1573038276917","4805341.0"
"1573038276971","4807742.0"
"1573038277015","4844572.0"
"1573038277064","4839419.0"
"1573038277113","4900435.0"
"1573038277160","4930023.0"
"1573038277211","4804803.0"
"1573038277256","4756049.0"
"1573038277310","4732964.0"
"1573038277354","4729254.0"
"1573038277406","4744137.0"
"1573038277452","4735106.0"
"1573038277506","4629729.0"
"1573038277550","4541687.0"
"1573038277599","4484703.0"
"1573038277650","4405544.0"
"1573038277697","4365744.0"
"1573038277751","4398163.0"
"1573038277795","4455777.0"
"1573038277849","4544747.0"
"1573038277894","4615125.0"
"1573038277944","4579787.0"
"1573038277995","4513991.0"
"1573038278042","4484813.0"
"1573038278091","4486174.0"
"1573038278140","4505748.0"
"1573038278190","4518881.0"
"1573038278237","4539538.0"
"1573038278290","4576095.0"
"1573038278335","4636170.0"
"1573038278387","4650845.0"
"1573038278435","4501148.0"
"1573038278483","4398453.0"
"1573038278533","4391531.0"
"1573038278580","4424508.0"
"1573038278630","4477242.0"
"1573038278678","4560132.0"
"1573038278730","4747727.0"
"1573038278776","4862606.0"
"1573038278831","4896264.0"
"1573038278875","4859715.0"
"1573038278925","4827398.0"
"1573038278975","4782976.0"
"1573038279021","4750559.0"
"1573038279071","4695885.0"
"1573038279120","4632370.0"
"1573038279169","4621407.0"
"1573038279222","4534576.0"
"1573038279268","4391980.0"
"1573038279320","4261229.0"
"1573038279374","4184960.0"
"1573038279417","4158744.0"
"1573038279470","4181120.0"
"1573038279521","4276864.0"
"1573038279566","4265209.0"
"1573038279615","4231452.0"
"1573038279658","4197524.0"
"1573038279713","4172017.0"
"1573038279761","4157224.0"
"1573038279815","4157563.0"
"1573038279859","4172377.0"
"1573038279909","4215879.0"
"1573038279951","4226121.0"
"1573038280005","4161735.0"
"1573038280049","4086146.0"
"1573038280101","4083545.0"
"1573038280151","4100319.0"
"1573038280199","4098560.0"
"1573038280250","4145271.0"
"1573038280301","4313851.0"
"1573038280351","4383329.0"
"1573038280399","4431471.0"
"1573038280453","4407204.0"
"1573038280492","4381549.0"
"1573038280546","4405353.0"
"1573038280590","4439042.0"
"1573038280640","4431770.0"
"1573038280695","4433481.0"
"1573038280742","4435852.0"
"1573038280793","4404343.0"
"1573038280840","4361803.0"
"1573038280891","4387600.0"
"1573038280941","4417948.0"
"1573038280990","4480282.0"
"1573038281033","4566934.0"
"1573038281086","4634339.0"
"1573038281129","4700576.0"
"1573038281183","4632250.0"
"1573038281236","4572704.0"
"1573038281281","4558262.0"
"1573038281332","4527014.0"
"1573038281377","4517721.0"
"1573038281425","4534406.0"
"1573038281475","4581008.0"
"1573038281529","4614146.0"
"1573038281570","4569144.0"
"1573038281624","4506829.0"
"1573038281677","4523643.0"
"1573038281723","4559211.0"
"1573038281776","4642383.0"
"1573038281820","4722732.0"
"1573038281871","4825366.0"
"1573038281919","4968962.0"
"1573038281972","5033287.0"
"1573038282014","5025046.0"
"1573038282060","5006031.0"
"1573038282114","5013573.0"
"1573038282164","5018603.0"
"1573038282215","5014784.0"
"1573038282263","5035938.0"
"1573038282312","5051432.0"
"1573038282360","5021604.0"
"1573038282410","4900605.0"
"1573038282453","4789877.0"
"1573038282512","4777665.0"
"1573038282550","4818604.0"
"1573038282605","4869467.0"
"1573038282652","4931742.0"
"1573038282703","4979405.0"
"1573038282756","5020084.0"
"1573038282800","5063324.0"
"1573038282850","5057804.0"
"1573038282899","5051532.0"
"1573038282953","5058423.0"
"1573038282992","5115227.0"
"1573038283048","5172662.0"
"1573038283092","5231756.0"
"1573038283142","5234616.0"
"1573038283197","5185054.0"
"1573038283242","5179343.0"
"1573038283286","5176571.0"
"1573038283340","5216241.0"
"1573038283391","5273756.0"
"1573038283441","5359077.0"
"1573038283490","5335172.0"
"1573038283532","5321817.0"
"1573038283586","5397636.0"
"1573038283636","5401037.0"
"1573038283679","5374791.0"
"1573038283733","5325779.0"
"1573038283782","5291631.0"
"1573038283831","5307643.0"
"1573038283873","5327620.0"
"1573038283933","5380652.0"
"1573038283974","5341352.0"
"1573038284024","5288850.0"
"1573038284072","5278126.0"
"1573038284121","5249310.0"
"1573038284174","5228166.0"
"1573038284219","5301453.0"
"1573038284269","5382383.0"
"1573038284316","5407739.0"
"1573038284367","5389074.0"
"1573038284415","5365768.0"
"1573038284466","5354057.0"
"1573038284514","5339012.0"
"1573038284560","5341314.0"
"1573038284611","5306794.0"
"1573038284659","5320147.0"
"1573038284710","5333091.0"
"1573038284758","5289189.0"
"1573038284806","5261882.0"
"1573038284856","5302294.0"
"1573038284907","5347994.0"
"1573038284955","5397217.0"
"1573038285011","5439857.0"
"1573038285054","5532420.0"
"1573038285101","5566758.0"
"1573038285151","5565637.0"
"1573038285199","5550073.0"
"1573038285247","5528177.0"
"1573038285294","5530309.0"
"1573038285347","5545713.0"
"1573038285394","5569818.0"
"1573038285446","5593144.0"
"1573038285495","5625102.0"
"1573038285549","5574769.0"
"1573038285599","5508053.0"
"1573038285640","5471715.0"
"1573038285695","5475265.0"
"1573038285743","5479846.0"
"1573038285793","5492419.0"
"1573038285839","5561297.0"
"1573038285890","5601936.0"
"1573038285935","5604016.0"
"1573038285990","5592813.0"
"1573038286039","5568969.0"
"1573038286086","5553775.0"
"1573038286135","5559165.0"
"1573038286184","5591365.0"
"1573038286233","5635474.0"
"1573038286280","5674603.0"
"1573038286333","5652610.0"
"1573038286374","5594875.0"
"1573038286434","5571860.0"
"1573038286486","5584853.0"
"1573038286527","5583492.0"
"1573038286581","5573558.0"
"1573038286626","5641216.0"
"1573038286670","5665631.0"
"1573038286724","5697749.0"
"1573038286772","5685627.0"
"1573038286820","5662882.0"
"1573038286870","5647457.0"
"1573038286915","5642337.0"
"1573038286972","5647717.0"
"1573038287021","5667852.0"
"1573038287068","5708113.0"
"1573038287116","5706812.0"
"1573038287165","5642987.0"
"1573038287215","5584512.0"
"1573038287263","5545593.0"
"1573038287313","5544943.0"
"1573038287356","5564657.0"
"1573038287405","5598175.0"
"1573038287456","5613639.0"
"1573038287509","5606158.0"
"1573038287556","5584101.0"
"1573038287607","5548044.0"
"1573038287652","5506232.0"
"1573038287704","5463243.0"
"1573038287754","5443358.0"
"1573038287802","5487049.0"
"1573038287853","5542131.0"
"1573038287898","5497880.0"
"1573038287951","5470234.0"
"1573038288002","5508703.0"
"1573038288049","5532940.0"
"1573038288097","5536820.0"
"1573038288142","5562587.0"
"1573038288195","5622721.0"
"1573038288240","5643046.0"
"1573038288291","5623011.0"
"1573038288339","5610617.0"
"1573038288388","5591864.0"
"1573038288445","5591283.0"
"1573038288492","5587372.0"
"1573038288539","5551733.0"
"1573038288588","5581880.0"
"1573038288636","5594305.0"
"1573038288680","5528218.0"
"1573038288734","5491959.0"
"1573038288782","5485628.0"
"1573038288833","5498871.0"
"1573038288879","5507183.0"
"1573038288934","5524987.0"
"1573038288988","5521326.0"
"1573038289032","5505432.0"
"1573038289078","5467483.0"
"1573038289128","5438516.0"
"1573038289177","5427163.0"
"1573038289226","5482727.0"
"1573038289275","5470925.0"
"1573038289323","5485537.0"
"1573038289375","5482187.0"
"1573038289418","5388724.0"
"1573038289477","5341372.0"
"1573038289526","5357086.0"
"1573038289588","5388783.0"
"1573038289630","5422693.0"
"1573038289669","5498150.0"
"1573038289720","5603366.0"
"1573038289767","5666003.0"
"1573038289819","5684286.0"
"1573038289861","5649288.0"
"1573038289917","5606808.0"
"1573038289959","5631463.0"
"1573038290017","5638786.0"
"1573038290062","5648977.0"
"1573038290107","5670784.0"
"1573038290156","5719194.0"
"1573038290207","5695169.0"
"1573038290256","5623482.0"
"1573038290302","5554795.0"
"1573038290359","5550504.0"
"1573038290400","5573059.0"
"1573038290461","5614709.0"
"1573038290500","5679236.0"
"1573038290557","5681355.0"
"1573038290603","5680125.0"
"1573038290645","5643337.0"
"1573038290695","5612669.0"
"1573038290748","5593494.0"
"1573038290796","5595875.0"
"1573038290845","5613098.0"
"1573038290900","5635265.0"
"1573038290940","5688287.0"
"1573038290998","5675503.0"
"1573038291040","5604347.0"
"1573038291097","5533440.0"
"1573038291139","5484068.0"
"1573038291188","5454329.0"
"1573038291233","5445709.0"
"1573038291283","5459791.0"
"1573038291333","5451899.0"
"1573038291385","5434886.0"
"1573038291433","5410238.0"
"1573038291484","5374602.0"
"1573038291538","5308444.0"
"1573038291582","5266704.0"
"1573038291630","5282279.0"
"1573038291676","5299533.0"
"1573038291734","5342053.0"
"1573038291782","5314566.0"
"1573038291829","5243958.0"
"1573038291880","5224604.0"
"1573038291921","5193916.0"
"1573038291979","5198008.0"
"1573038292021","5227235.0"
"1573038292077","5366568.0"
"1573038292123","5447879.0"
"1573038292173","5481396.0"
"1573038292224","5500651.0"
"1573038292273","5478775.0"
"1573038292322","5456920.0"
"1573038292367","5457521.0"
"1573038292421","5522907.0"
"1573038292465","5542621.0"
"1573038292519","5586572.0"
"1573038292563","5587974.0"
"1573038292617","5617320.0"
"1573038292658","5636435.0"
"1573038292711","5636634.0"
"1573038292763","5610189.0"
"1573038292813","5694498.0"
"1573038292861","5752293.0"
"1573038292902","5807997.0"
"1573038292952","5824081.0"
"1573038293003","5829721.0"
"1573038293059","5820700.0"
"1573038293103","5811827.0"
"1573038293149","5808497.0"
"1573038293199","5803796.0"
"1573038293248","5819960.0"
"1573038293297","5825292.0"
"1573038293353","5794214.0"
"1573038293401","5753463.0"
"1573038293442","5724135.0"
"1573038293500","5714354.0"
"1573038293545","5730557.0"
"1573038293598","5764996.0"
"1573038293640","5807536.0"
"1573038293689","5883656.0"
"1573038293743","5933698.0"
"1573038293792","5916092.0"
"1573038293842","6036702.0"
"1573038293884","6026963.0"
"1573038293940","6018241.0"
"1573038293983","6020341.0"
"1573038294036","6042214.0"
"1573038294085","6038045.0"
"1573038294138","6003934.0"
"1573038294186","5979482.0"
"1573038294235","5965387.0"
"1573038294283","5952587.0"
"1573038294332","5960015.0"
"1573038294381","6003619.0"
"1573038294424","6091494.0"
"1573038294481","6131644.0"
"1573038294524","6117524.0"
"1573038294578","6082585.0"
"1573038294626","6063397.0"
"1573038294677","6056508.0"
"1573038294726","6067193.0"
"1573038294766","6095336.0"
"1573038294823","6132834.0"
"1573038294867","6091589.0"
"1573038294921","6030816.0"
"1573038294964","5952738.0"
"1573038295021","5909298.0"
"1573038295066","5893392.0"
"1573038295110","5877113.0"
"1573038295163","5963308.0"
"1573038295212","5969917.0"
"1573038295260","5982820.0"
"1573038295308","5967372.0"
"1573038295362","5955542.0"
"1573038295404","5935492.0"
"1573038295463","5908152.0"
"1573038295510","5857716.0"
"1573038295560","5851889.0"
"1573038295608","5852848.0"
"1573038295651","5779837.0"
"1573038295703","5720001.0"
"1573038295755","5628749.0"
"1573038295805","5539764.0"
"1573038295846","5455007.0"
"1573038295902","5348515.0"
"1573038295946","5250948.0"
"1573038296002","5119246.0"
"1573038296048","5055892.0"
"1573038296100","5046865.0"
"1573038296142","5024864.0"
"1573038296198","4943085.0"
"1573038296246","4926350.0"
"1573038296292","4902528.0"
"1573038296343","4892848.0"
"1573038296386","4757197.0"
"1573038296435","4649352.0"
"1573038296487","4607370.0"
"1573038296541","4598099.0"
"1573038296590","4612719.0"
"1573038296632","4652283.0"
"1573038296680","4708150.0"
"1573038296735","4808802.0"
"1573038296785","4851741.0"
"1573038296828","4832262.0"
"1573038296883","4810670.0"
"1573038296926","4820666.0"
"1573038296981","4844197.0"
"1573038297028","4875190.0"
"1573038297079","4851695.0"
"1573038297129","4880480.0"
"1573038297179","4869350.0"
"1573038297226","4820328.0"
"1573038297273","4781662.0"
"1573038297316","4687213.0"
"1573038297369","4695235.0"
"1573038297414","4690039.0"
"1573038297468","4672381.0"
"1573038297516","4613361.0"
"1573038297570","4539920.0"
"1573038297617","4529433.0"
"1573038297667","4533438.0"
"1573038297718","4546157.0"
"1573038297766","4556701.0"
"1573038297808","4574228.0"
"1573038297864","4579495.0"
"1573038297910","4519029.0"
"1573038297961","4419032.0"
"1573038298011","4366084.0"
"1573038298058","4386801.0"
"1573038298110","4434610.0"
"1573038298151","4526069.0"
"1573038298207","4588008.0"
"1573038298249","4696345.0"
"1573038298305","4714445.0"
"1573038298349","4744620.0"
"1573038298406","4750365.0"
"1573038298451","4788075.0"
"1573038298500","4801515.0"
"1573038298552","4820549.0"
"1573038298598","4870368.0"
"1573038298644","4982148.0"
"1573038298691","5030016.0"
"1573038298747","4964152.0"
"1573038298789","4847899.0"
"1573038298845","4770522.0"
"1573038298889","4736692.0"
"1573038298945","4727501.0"
"1573038298990","4724475.0"
"1573038299042","4776899.0"
"1573038299093","4861037.0"
"1573038299136","4867401.0"
"1573038299189","4821017.0"
"1573038299231","4775881.0"
"1573038299287","4733947.0"
"1573038299329","4746313.0"
"1573038299386","4788530.0"
"1573038299432","4878331.0"
"1573038299484","4915584.0"
"1573038299530","4839281.0"
"1573038299581","4740463.0"
"1573038299631","4659921.0"
"1573038299672","4611424.0"
"1573038299729","4627328.0"
"1573038299773","4653429.0"
"1573038299827","4750564.0"
"1573038299871","4830126.0"
"1573038299923","4837997.0"
"1573038299974","4861643.0"
"1573038300018","4874934.0"
"1573038300066","4894142.0"
"1573038300113","4939698.0"
"1573038300162","5028018.0"
"1573038300212","5116302.0"
"1573038300261","5078607.0"
"1573038300313","5022892.0"
"1573038300360","5049073.0"
"1573038300415","5031732.0"
"1573038300462","5016888.0"
"1573038300515","5059210.0"
"1573038300554","5133049.0"
"1573038300613","5276313.0"
"1573038300653","5304257.0"
"1573038300703","5314954.0"
"1573038300752","5316601.0"
"1573038300808","5324483.0"
"1573038300852","5333008.0"
"1573038300906","5378446.0"
"1573038300953","5432911.0"
"1573038301000","5517588.0"
"1573038301050","5531824.0"
"1573038301094","5514880.0"
"1573038301145","5491336.0"
"1573038301192","5470818.0"
"1573038301248","5466684.0"
"1573038301292","5455404.0"
"1573038301338","5462714.0"
"1573038301393","5537347.0"
"1573038301437","5583252.0"
"1573038301489","5557187.0"
"1573038301535","5517996.0"
"1573038301593","5519315.0"
"1573038301633","5547343.0"
"1573038301690","5603139.0"
"1573038301731","5683401.0"
"1573038301788","5737702.0"
"1573038301832","5749871.0"
"1573038301886","5734492.0"
"1573038301934","5705916.0"
"1573038301985","5693643.0"
"1573038302030","5697976.0"
"1573038302079","5700312.0"
"1573038302133","5735461.0"
"1573038302178","5801348.0"
"1573038302230","5808518.0"
"1573038302271","5787964.0"
"1573038302327","5762461.0"
"1573038302374","5743401.0"
"1573038302422","5738777.0"
"1573038302472","5755255.0"
"1573038302514","5777794.0"
"1573038302573","5811928.0"
"1573038302616","5768311.0"
"1573038302671","5739209.0"
"1573038302712","5733885.0"
"1573038302768","5734993.0"
"1573038302818","5748003.0"
"1573038302866","5744744.0"
"1573038302915","5810339.0"
"1573038302964","5869593.0"
"1573038303011","5885813.0"
"1573038303060","5875783.0"
"1573038303113","5853782.0"
"1573038303154","5844041.0"
"1573038303210","5850955.0"
"1573038303257","5864630.0"
"1573038303308","5881784.0"
"1573038303358","5908352.0"
"1573038303406","5891781.0"
"1573038303451","5850768.0"
"1573038303496","5813480.0"
"1573038303551","5788865.0"
"1573038303599","5777607.0"
"1573038303645","5758980.0"
"1573038303693","5782897.0"
"1573038303749","5780083.0"
"1573038303798","5764446.0"
"1573038303846","5707564.0"
"1573038303895","5663888.0"
"1573038303945","5651088.0"
"1573038303990","5640662.0"
"1573038304040","5647456.0"
"1573038304093","5636994.0"
"1573038304136","5699294.0"
"1573038304190","5682700.0"
"1573038304238","5681521.0"
"1573038304287","5662824.0"
"1573038304335","5646522.0"
"1573038304386","5647702.0"
"1573038304436","5666551.0"
"1573038304484","5711872.0"
"1573038304530","5769094.0"
"1573038304582","5758174.0"
"1573038304632","5714931.0"
"1573038304676","5695815.0"
"1573038304730","5661343.0"
"1573038304780","5658808.0"
"1573038304827","5672179.0"
"1573038304875","5679104.0"
"1573038304922","5722183.0"
"1573038304969","5673767.0"
"1573038305014","5555997.0"
"1573038305065","5470012.0"
"1573038305113","5460261.0"
"1573038305165","5458988.0"
"1573038305215","5476177.0"
"1573038305262","5543642.0"
"1573038305311","5579960.0"
"1573038305359","5594579.0"
"1573038305410","5572322.0"
"1573038305457","5554176.0"
"1573038305508","5554222.0"
"1573038305556","5572054.0"
"1573038305606","5599485.0"
"1573038305655","5643954.0"
"1573038305703","5706991.0"
"1573038305752","5673241.0"
"1573038305800","5636702.0"
"1573038305851","5605533.0"
"1573038305903","5596705.0"
"1573038305951","5613345.0"
"1573038306000","5656320.0"
"1573038306050","5706489.0"
"1573038306101","5713506.0"
"1573038306145","5691121.0"
"1573038306199","5652280.0"
"1573038306240","5619067.0"
"1573038306290","5574051.0"
"1573038306337","5505128.0"
"1573038306387","5506518.0"
"1573038306434","5485450.0"
"1573038306486","5511971.0"
"1573038306534","5460402.0"
"1573038306583","5391093.0"
"1573038306634","5276172.0"
"1573038306681","5208897.0"
"1573038306730","5199601.0"
"1573038306779","5214652.0"
"1573038306829","5266444.0"
"1573038306877","5313389.0"
"1573038306927","5304817.0"
"1573038306976","5287663.0"
"1573038307028","5269925.0"
"1573038307075","5237132.0"
"1573038307125","5224790.0"
"1573038307176","5208884.0"
"1573038307223","5207285.0"
"1573038307272","5238102.0"
"1573038307320","5148497.0"
"1573038307371","5098716.0"
"1573038307419","5128074.0"
"1573038307469","5172427.0"
"1573038307516","5214934.0"
"1573038307568","5259952.0"
"1573038307618","5299772.0"
"1573038307664","5305098.0"
"1573038307713","5289963.0"
"1573038307762","5296386.0"
"1573038307812","5298757.0"
"1573038307860","5291400.0"
"1573038307911","5285478.0"
"1573038307958","5286507.0"
"1573038308007","5319906.0"
"1573038308057","5298020.0"
"1573038308106","5180239.0"
"1573038308154","5138245.0"
"1573038308203","5147131.0"
"1573038308252","5121500.0"
"1573038308305","5084737.0"
"1573038308357","5068925.0"
"1573038308398","5001299.0"
"1573038308456","4953769.0"
"1573038308500","4897506.0"
"1573038308553","4891761.0"
"1573038308600","4872867.0"
"1573038308646","4859471.0"
"1573038308700","4821063.0"
"1573038308749","4777984.0"
"1573038308799","4776712.0"
"1573038308839","4697337.0"
"1573038308895","4635538.0"
"1573038308938","4619784.0"
"1573038308995","4585067.0"
"1573038309039","4632699.0"
"1573038309092","4650193.0"
"1573038309135","4625378.0"
"1573038309191","4520242.0"
"1573038309238","4488059.0"
"1573038309288","4502131.0"
"1573038309338","4503858.0"
"1573038309379","4503438.0"
"1573038309436","4506393.0"
"1573038309479","4468614.0"
"1573038309532","4394752.0"
"1573038309580","4320656.0"
"1573038309625","4217858.0"
"1573038309680","4145735.0"
"1573038309731","4149040.0"
"1573038309778","4176973.0"
"1573038309819","4237278.0"
"1573038309877","4237288.0"
"1573038309919","4211621.0"
"1573038309975","4096956.0"
"1573038310022","4113141.0"
"1573038310072","4155870.0"
"1573038310122","4189492.0"
"1573038310171","4198483.0"
"1573038310212","4219631.0"
"1573038310268","4228624.0"
"1573038310318","4151398.0"
"1573038310367","4065286.0"
"1573038310417","3979383.0"
"1573038310461","3970883.0"
"1573038310513","3981977.0"
"1573038310562","3997215.0"
"1573038310612","4102129.0"
"1573038310654","4229873.0"
"1573038310704","4243456.0"
"1573038310759","4160973.0"
"1573038310800","4130694.0"
"1573038310857","4117965.0"
"1573038310900","4143083.0"
"1573038310956","4194373.0"
"1573038311002","4330256.0"
"1573038311053","4444092.0"
"1573038311101","4526105.0"
"1573038311146","4571566.0"
"1573038311191","4459927.0"
"1573038311240","4420817.0"
"1573038311298","4451751.0"
"1573038311341","4558394.0"
"1573038311390","4622505.0"
"1573038311443","4663669.0"
"1573038311488","4686243.0"
"1573038311538","4520500.0"
"1573038311590","4408076.0"
"1573038311633","4335920.0"
"1573038311687","4277099.0"
"1573038311740","4292012.0"
"1573038311780","4284350.0"
"1573038311838","4283941.0"
"1573038311883","4367345.0"
"1573038311937","4257340.0"
"1573038311984","4117965.0"
"1573038312032","4042665.0"
"1573038312083","4053317.0"
"1573038312133","4114484.0"
"1573038312180","4129502.0"
"1573038312222","4181480.0"
"1573038312279","4194373.0"
"1573038312321","4119073.0"
"1573038312378","4035040.0"
"1573038312425","4025184.0"
"1573038312476","4006838.0"
"1573038312526","4045223.0"
"1573038312571","4103063.0"
"1573038312623","4153478.0"
"1573038312673","4236472.0"
"1573038312713","4135270.0"
"1573038312761","4004702.0"
"1573038312810","3939539.0"
"1573038312864","3934342.0"
"1573038312912","3950749.0"
"1573038312960","3993759.0"
"1573038313007","4059354.0"
"1573038313064","4085067.0"
"1573038313111","4013891.0"
"1573038313155","3956039.0"
"1573038313206","3943300.0"
"1573038313260","3940379.0"
"1573038313303","3945262.0"
"1573038313359","3997719.0"
"1573038313405","4025488.0"
"1573038313457","4054880.0"
"1573038313507","3957430.0"
"1573038313552","3866892.0"
"1573038313603","3828459.0"
"1573038313648","3839179.0"
"1573038313701","3863528.0"
"1573038313743","3890971.0"
"1573038313799","3893621.0"
"1573038313845","3931914.0"
"1573038313898","3965230.0"
"1573038313947","4053281.0"
"1573038313995","4098253.0"
"1573038314044","4134454.0"
"1573038314092","4177114.0"
"1573038314138","4178748.0"
"1573038314187","4317819.0"
"1573038314240","4395243.0"
"1573038314284","4423375.0"
"1573038314339","4413683.0"
"1573038314385","4398291.0"
"1573038314430","4453680.0"
"1573038314487","4538483.0"
"1573038314528","4636145.0"
"1573038314583","4720715.0"
"1573038314628","4752222.0"
"1573038314682","4749677.0"
"1573038314733","4760466.0"
"1573038314780","4757862.0"
"1573038314826","4760292.0"
"1573038314879","4774072.0"
"1573038314929","4803827.0"
"1573038314978","4874991.0"
"1573038315026","4870857.0"
"1573038315073","4839772.0"
"1573038315124","4800394.0"
"1573038315172","4772916.0"
"1573038315223","4793935.0"
"1573038315265","4842294.0"
"1573038315321","4957261.0"
"1573038315367","4976904.0"
"1573038315420","4962050.0"
"1573038315467","4938403.0"
"1573038315518","4911731.0"
"1573038315566","4909383.0"
"1573038315611","4919707.0"
"1573038315658","4928522.0"
"1573038315708","5020848.0"
"1573038315761","4988407.0"
"1573038315805","4941859.0"
"1573038315860","4930729.0"
"1573038315908","4911788.0"
"1573038315959","4864459.0"
"1573038316006","4853562.0"
"1573038316054","4932750.0"
"1573038316104","4959422.0"
"1573038316148","4955031.0"
"1573038316203","4896235.0"
"1573038316248","4859005.0"
"1573038316301","4823621.0"
"1573038316349","4791531.0"
"1573038316390","4766201.0"
"1573038316441","4789743.0"
"1573038316488","4868312.0"
"1573038316537","4837564.0"
"1573038316591","4753460.0"
"1573038316637","4715530.0"
"1573038316690","4738677.0"
"1573038316737","4734321.0"
"1573038316786","4746443.0"
"1573038316833","4805976.0"
"1573038316887","4948024.0"
"1573038316933","5041330.0"
"1573038316988","4987507.0"
"1573038317032","4942432.0"
"1573038317085","4909675.0"
"1573038317128","4920582.0"
"1573038317182","4942174.0"
"1573038317229","4985335.0"
"1573038317281","5059676.0"
"1573038317330","5015312.0"
"1573038317377","4937434.0"
"1573038317429","4913657.0"
"1573038317476","4938286.0"
"1573038317530","4941568.0"
"1573038317568","4982918.0"
"1573038317625","5132699.0"
"1573038317667","5317090.0"
"1573038317713","5362518.0"
"1573038317769","5334152.0"
"1573038317814","5292520.0"
"1573038317864","5274420.0"
"1573038317913","5267472.0"
"1573038317962","5253751.0"
"1573038318012","5260197.0"
"1573038318066","5270404.0"
"1573038318108","5221999.0"
"1573038318157","5161425.0"
"1573038318208","5103328.0"
"1573038318261","5050032.0"
"1573038318312","4959563.0"
"1573038318358","4864996.0"
"1573038318409","4914637.0"
"1573038318452","4987671.0"
"1573038318507","5018804.0"
"1573038318551","5007863.0"
"1573038318606","4996511.0"
"1573038318649","5009449.0"
"1573038318703","4978643.0"
"1573038318751","4963101.0"
"1573038318799","4956537.0"
"1573038318851","4976681.0"
"1573038318892","4923068.0"
"1573038318949","4795396.0"
"1573038318992","4753764.0"
"1573038319047","4742005.0"
"1573038319094","4728376.0"
"1573038319138","4705733.0"
"1573038319195","4721976.0"
"1573038319236","4760876.0"
"1573038319294","4899550.0"
"1573038319333","4934758.0"
"1573038319390","4896209.0"
"1573038319432","4872540.0"
"1573038319481","4864423.0"
"1573038319536","4871056.0"
"1573038319585","4905587.0"
"1573038319636","4971287.0"
"1573038319683","4941672.0"
"1573038319737","4815307.0"
"1573038319775","4724826.0"
"1573038319832","4706633.0"
"1573038319871","4753695.0"
"1573038319929","4776722.0"
"1573038319972","4783916.0"
"1573038320027","4886435.0"
"1573038320071","5009766.0"
"1573038320124","5005643.0"
"1573038320174","4976239.0"
"1573038320216","4967562.0"
"1573038320271","4960333.0"
"1573038320314","4982078.0"
"1573038320371","5023767.0"
"1573038320412","5093449.0"
"1573038320468","5100713.0"
"1573038320514","5065702.0"
"1573038320566","5158857.0"
"1573038320614","5231924.0"
"1573038320658","5267449.0"
"1573038320710","5260875.0"
"1573038320756","5244701.0"
"1573038320813","5328640.0"
"1573038320853","5376123.0"
"1573038320909","5343775.0"
"1573038320952","5325733.0"
"1573038321007","5309163.0"
"1573038321053","5317080.0"
"1573038321104","5338158.0"
"1573038321152","5371102.0"
"1573038321202","5418479.0"
"1573038321251","5452086.0"
"1573038321292","5386644.0"
"1573038321351","5423989.0"
"1573038321400","5471823.0"
"1573038321449","5512508.0"
"1573038321493","5535129.0"
"1573038321545","5542731.0"
"1573038321596","5705870.0"
"1573038321638","5861394.0"
"1573038321690","5933353.0"
"1573038321742","5901112.0"
"1573038321793","5889107.0"
"1573038321838","5854646.0"
"1573038321890","5824994.0"
"1573038321931","5821246.0"
"1573038321987","5761305.0"
"1573038322031","5772632.0"
"1573038322086","5709899.0"
"1573038322136","5626227.0"
"1573038322184","5582493.0"
"1573038322231","5605556.0"
"1573038322278","5598445.0"
"1573038322332","5586732.0"
"1573038322374","5707108.0"
"1573038322421","5772995.0"
"1573038322471","5788443.0"
"1573038322522","5749229.0"
"1573038322572","5730557.0"
"1573038322620","5724718.0"
"1573038322666","5721039.0"
"1573038322716","5707154.0"
"1573038322770","5709899.0"
"1573038322818","5688832.0"
"1573038322866","5561438.0"
"1573038322915","5441670.0"
"1573038322964","5399140.0"
"1573038323013","5377103.0"
"1573038323062","5366886.0"
"1573038323118","5315842.0"
"1573038323164","5292462.0"
"1573038323214","5296235.0"
"1573038323261","5295324.0"
"1573038323310","5274970.0"
"1573038323358","5283997.0"
"1573038323412","5311030.0"
"1573038323453","5352943.0"
"1573038323509","5383176.0"
"1573038323561","5427283.0"
"1573038323607","5442278.0"
"1573038323651","5357591.0"
"1573038323705","5306500.0"
"1573038323751","5279781.0"
"1573038323800","5279569.0"
"1573038323850","5294214.0"
"1573038323892","5337155.0"
"1573038323952","5382721.0"
"1573038323997","5514225.0"
"1573038324049","5558460.0"
"1573038324099","5554536.0"
"1573038324143","5554631.0"
"1573038324192","5561707.0"
"1573038324244","5584094.0"
"1573038324291","5614396.0"
"1573038324339","5657232.0"
"1573038324393","5663467.0"
"1573038324434","5634530.0"
"1573038324490","5623272.0"
"1573038324538","5613931.0"
"1573038324587","5615284.0"
"1573038324635","5625900.0"
"1573038324679","5639084.0"
"1573038324732","5705216.0"
"1573038324782","5739746.0"
"1573038324831","5768030.0"
"1573038324873","5759284.0"
"1573038324933","5755570.0"
"1573038324975","5761689.0"
"1573038325029","5743869.0"
"1573038325081","5745049.0"
"1573038325124","5751027.0"
"1573038325176","5782032.0"
"1573038325224","5731502.0"
"1573038325270","5675635.0"
"1573038325320","5663246.0"
"1573038325370","5658691.0"
"1573038325418","5675543.0"
"1573038325471","5709385.0"
"1573038325513","5675366.0"
"1573038325559","5663689.0"
"1573038325609","5616125.0"
"1573038325657","5559990.0"
"1573038325716","5520776.0"
"1573038325762","5495260.0"
"1573038325809","5499243.0"
"1573038325858","5489865.0"
"1573038325906","5525424.0"
"1573038325956","5544506.0"
"1573038326003","5476740.0"
"1573038326052","5394048.0"
"1573038326101","5377267.0"
"1573038326151","5388980.0"
"1573038326199","5407336.0"
"1573038326247","5432315.0"
"1573038326298","5348784.0"
"1573038326347","5191121.0"
"1573038326397","5071273.0"
"1573038326446","5038050.0"
"1573038326497","5026406.0"
"1573038326543","5058113.0"
"1573038326592","5091791.0"
"1573038326639","5094349.0"
"1573038326691","5115941.0"
"1573038326739","5082974.0"
"1573038326790","4971941.0"
"1573038326836","4917722.0"
"1573038326889","4902318.0"
"1573038326940","4923373.0"
"1573038326994","4892124.0"
"1573038327038","4841394.0"
"1573038327089","4808907.0"
"1573038327138","4867577.0"
"1573038327186","4855828.0"
"1573038327237","4828760.0"
"1573038327279","4818157.0"
"1573038327334","4819569.0"
"1573038327376","4843673.0"
"1573038327430","4862298.0"
"1573038327479","4906242.0"
"1573038327535","4825455.0"
"1573038327579","4651431.0"
"1573038327629","4545128.0"
"1573038327679","4493886.0"
"1573038327720","4450585.0"
"1573038327774","4414430.0"
"1573038327817","4434515.0"
"1573038327874","4528335.0"
"1573038327915","4452419.0"
"1573038327968","4399494.0"
"1573038328016","4414722.0"
"1573038328066","4458420.0"
"1573038328114","4505318.0"
"1573038328168","4521738.0"
"1573038328218","4466045.0"
"1573038328258","4559282.0"
"1573038328316","4458000.0"
"1573038328357","4311314.0"
"1573038328413","4242729.0"
"1573038328460","4210499.0"
"1573038328513","4210944.0"
"1573038328561","4230620.0"
"1573038328610","4298621.0"
"1573038328652","4305265.0"
"1573038328707","4275965.0"
"1573038328755","4255880.0"
"1573038328798","4256184.0"
"1573038328856","4265081.0"
"1573038328898","4275579.0"
"1573038328951","4311163.0"
"1573038329000","4362592.0"
"1573038329052","4480621.0"
"1573038329100","4530683.0"
"1573038329144","4470355.0"
"1573038329199","4446484.0"
"1573038329242","4453386.0"
"1573038329295","4502236.0"
"1573038329338","4588546.0"
"1573038329397","4688251.0"
"1573038329441","4729709.0"
"1573038329487","4726414.0"
"1573038329534","4661556.0"
"1573038329583","4637255.0"
"1573038329631","4629126.0"
"1573038329682","4630914.0"
"1573038329731","4632093.0"
"1573038329783","4644494.0"
"1573038329829","4722140.0"
"1573038329878","4662280.0"
"1573038329936","4563602.0"
"1573038329981","4500624.0"
"1573038330034","4498568.0"
"1573038330082","4512056.0"
"1573038330132","4536894.0"
"1573038330181","4600259.0"
"1573038330224","4636892.0"
"1573038330280","4576459.0"
"1573038330321","4547919.0"
"1573038330377","4574300.0"
"1573038330419","4560016.0"
"1573038330476","4595296.0"
"1573038330521","4653662.0"
"1573038330575","4803336.0"
"1573038330623","4897506.0"
"1573038330670","4743195.0"
"1573038330721","4630213.0"
"1573038330767","4615428.0"
"1573038330820","4640232.0"
"1573038330860","4653312.0"
"1573038330919","4705943.0"
"1573038330960","4782678.0"
"1573038331016","4790036.0"
"1573038331063","4757443.0"
"1573038331114","4743522.0"
"1573038331156","4730561.0"
"1573038331214","4705487.0"
"1573038331261","4706585.0"
"1573038331306","4695680.0"
"1573038331359","4756345.0"
"1573038331400","4747026.0"
"1573038331458","4582790.0"
"1573038331502","4464774.0"
"1573038331555","4392523.0"
"1573038331604","4347293.0"
"1573038331647","4313627.0"
"1573038331696","4337437.0"
"1573038331753","4358609.0"
"1573038331800","4298808.0"
"1573038331842","4232372.0"
"1573038331899","4214796.0"
"1573038331941","4227187.0"
"1573038331998","4242182.0"
"1573038332044","4309365.0"
"1573038332095","4366258.0"
"1573038332142","4462554.0"
"1573038332191","4363841.0"
"1573038332241","4215287.0"
"1573038332288","4111716.0"
"1573038332340","4088198.0"
"1573038332382","4086937.0"
"1573038332438","4101405.0"
"1573038332482","4159374.0"
"1573038332539","4181329.0"
"1573038332584","4167642.0"
"1573038332628","4147615.0"
"1573038332683","4154621.0"
"1573038332727","4139207.0"
"1573038332782","4174346.0"
"1573038332828","4208982.0"
"1573038332879","4228226.0"
"1573038332921","4223391.0"
"1573038332969","4065460.0"
"1573038333024","3965989.0"
"1573038333070","3918682.0"
"1573038333119","3905078.0"
"1573038333166","3901914.0"
"1573038333223","3922920.0"
"1573038333272","3982304.0"
"1573038333321","3985269.0"
"1573038333363","3980317.0"
"1573038333418","3985819.0"
"1573038333466","3993841.0"
"1573038333517","3995056.0"
"1573038333567","4031794.0"
"1573038333616","4022767.0"
"1573038333658","4090219.0"
"1573038333711","3991493.0"
"1573038333762","3896529.0"
"1573038333805","3849234.0"
"1573038333860","3850846.0"
"1573038333903","3856696.0"
"1573038333958","3860177.0"
"1573038334005","3932556.0"
"1573038334057","3947175.0"
"1573038334105","3890551.0"
"1573038334149","3873338.0"
"1573038334203","3887083.0"
"1573038334245","3878779.0"
"1573038334301","3892431.0"
"1573038334344","3896811.0"
"1573038334399","3970988.0"
"1573038334446","3942097.0"
"1573038334500","3859640.0"
"1573038334549","3801320.0"
"1573038334594","3789912.0"
"1573038334639","3836353.0"
"1573038334688","3877331.0"
"1573038334735","3923388.0"
"1573038334787","3873794.0"
"1573038334841","3859032.0"
"1573038334883","3841959.0"
"1573038334939","3818288.0"
"1573038334987","3809051.0"
"1573038335039","3895572.0"
"1573038335087","4064818.0"
"1573038335128","4150347.0"
"1573038335184","4120359.0"
"1573038335231","4041954.0"
"1573038335283","4044909.0"
"1573038335326","3995954.0"
"1573038335380","3907017.0"
"1573038335425","3866051.0"
"1573038335479","3863562.0"
"1573038335528","3899788.0"
"1573038335577","4024414.0"
"1573038335627","4125555.0"
"1573038335669","4163472.0"
"1573038335725","4166288.0"
"1573038335767","4155788.0"
"1573038335824","4168179.0"
"1573038335866","4173318.0"
"1573038335916","4215942.0"
"1573038335967","4187681.0"
"1573038336014","4098555.0"
"1573038336070","4007959.0"
"1573038336117","3968616.0"
"1573038336166","3970601.0"
"1573038336215","4001105.0"
"1573038336265","4045865.0"
"1573038336308","4061513.0"
"1573038336363","4065764.0"
"1573038336409","4067772.0"
"1573038336461","4043039.0"
"1573038336507","4015760.0"
"1573038336561","3996585.0"
"1573038336609","4013249.0"
"1573038336651","4084133.0"
"1573038336699","4049265.0"
"1573038336751","3976370.0"
"1573038336798","3895256.0"
"1573038336849","3848557.0"
"1573038336901","3851979.0"
"1573038336949","3860224.0"
"1573038337000","3887129.0"
"1573038337051","3888600.0"
"1573038337097","3865327.0"
"1573038337142","3917234.0"
"1573038337194","3917761.0"
"1573038337246","3897918.0"
"1573038337288","3888589.0"
"1573038337344","3871223.0"
"1573038337389","3906912.0"
"1573038337443","3991938.0"
"1573038337489","3881092.0"
"1573038337541","3863434.0"
"1573038337591","3813443.0"
"1573038337633","3764161.0"
"1573038337688","3739253.0"
"1573038337731","3738880.0"
"1573038337785","3674343.0"
"1573038337828","3695979.0"
"1573038337884","3710803.0"
"1573038337929","3740541.0"
"1573038337981","3726305.0"
"1573038338031","3701239.0"
"1573038338078","3705752.0"
"1573038338128","3698269.0"
"1573038338170","3779795.0"
"1573038338227","3781934.0"
"1573038338269","3769100.0"
"1573038338325","3731313.0"
"1573038338369","3677498.0"
"1573038338424","3650627.0"
"1573038338470","3663555.0"
"1573038338521","3688899.0"
"1573038338572","3715878.0"
"1573038338617","3713310.0"
"1573038338669","3738764.0"
"1573038338718","3768864.0"
"1573038338767","3777229.0"
"1573038338812","3811799.0"
"1573038338863","3874289.0"
"1573038338913","3888459.0"
"1573038338955","3931144.0"
"1573038339010","3926194.0"
"1573038339053","3903006.0"
"1573038339111","3864836.0"
"1573038339153","3814265.0"
"1573038339207","3817035.0"
"1573038339251","3859390.0"
"1573038339305","3982041.0"
"1573038339354","4035697.0"
"1573038339401","3992913.0"
"1573038339454","3987553.0"
"1573038339495","3978601.0"
"1573038339556","3959348.0"
"1573038339593","3964424.0"
"1573038339642","4002173.0"
"1573038339691","4063122.0"
"1573038339740","4032585.0"
"1573038339790","3994205.0"
"1573038339840","3968660.0"
"1573038339889","3960346.0"
"1573038339942","3950019.0"
"1573038339994","4009079.0"
"1573038340039","4140133.0"
"1573038340092","4211525.0"
"1573038340132","4221214.0"
"1573038340188","4235174.0"
"1573038340238","4254301.0"
"1573038340283","4246920.0"
"1573038340330","4248697.0"
"1573038340376","4307330.0"
"1573038340432","4364308.0"
"1573038340477","4302632.0"
"1573038340528","4251172.0"
"1573038340575","4249545.0"
"1573038340630","4296659.0"
"1573038340671","4304839.0"
"1573038340728","4429275.0"
"1573038340773","4558333.0"
"1573038340826","4554264.0"
"1573038340870","4532250.0"
"1573038340919","4534936.0"
"1573038340970","4532410.0"
"1573038341017","4532091.0"
"1573038341067","4527520.0"
"1573038341115","4505029.0"
"1573038341171","4495355.0"
"1573038341213","4477411.0"
"1573038341268","4428283.0"
"1573038341311","4435313.0"
"1573038341365","4485749.0"
"1573038341413","4518467.0"
"1573038341465","4634187.0"
"1573038341510","4873035.0"
"1573038341559","4986154.0"
"1573038341612","4975995.0"
"1573038341654","4952295.0"
"1573038341702","4995134.0"
"1573038341755","4988942.0"
"1573038341808","4972875.0"
"1573038341857","5001790.0"
"1573038341905","5015641.0"
"1573038341955","4970678.0"
"1573038342004","4888913.0"
"1573038342049","4838566.0"
"1573038342099","4852610.0"
"1573038342145","4874398.0"
"1573038342193","4953177.0"
"1573038342249","5150652.0"
"1573038342290","5301577.0"
"1573038342346","5313403.0"
"1573038342398","5307808.0"
"1573038342443","5309618.0"
"1573038342491","5306670.0"
"1573038342541","5303771.0"
"1573038342591","5319001.0"
"1573038342634","5357941.0"
"1573038342691","5357614.0"
"1573038342732","5324828.0"
"1573038342789","5299447.0"
"1573038342837","5314011.0"
"1573038342886","5352655.0"
"1573038342934","5378978.0"
"1573038342978","5484285.0"
"1573038343030","5563700.0"
"1573038343078","5568999.0"
"1573038343130","5527850.0"
"1573038343178","5506198.0"
"1573038343230","5498020.0"
"1573038343280","5509646.0"
"1573038343328","5516021.0"
"1573038343379","5536826.0"
"1573038343426","5569017.0"
"1573038343475","5547914.0"
"1573038343521","5515771.0"
"1573038343572","5515771.0"
"1573038343619","5521657.0"
"1573038343672","5540161.0"
"1573038343712","5595062.0"
"1573038343770","5702989.0"
"1573038343818","5755079.0"
"1573038343868","5738674.0"
"1573038343914","5782160.0"
"1573038343966","5777942.0"
"1573038344011","5757860.0"
"1573038344062","5746598.0"
"1573038344110","5769496.0"
"1573038344155","5792416.0"
"1573038344212","5760438.0"
"1573038344253","5724584.0"
"1573038344308","5693263.0"
"1573038344356","5662937.0"
"1573038344406","5657386.0"
"1573038344454","5689679.0"
"1573038344495","5680260.0"
"1573038344545","5663650.0"
"1573038344598","5643454.0"
"1573038344648","5622379.0"
"1573038344694","5587972.0"
"1573038344743","5565098.0"
"1573038344800","5556289.0"
"1573038344848","5586988.0"
"1573038344897","5605938.0"
"1573038344946","5576145.0"
"1573038344994","5509296.0"
"1573038345043","5467834.0"
"1573038345090","5455374.0"
"1573038345134","5451032.0"
"1573038345192","5515946.0"
"1573038345244","5631945.0"
"1573038345290","5646067.0"
"1573038345341","5620128.0"
"1573038345379","5596802.0"
"1573038345429","5587328.0"
"1573038345476","5578416.0"
"1573038345529","5577309.0"
"1573038345577","5570716.0"
"1573038345627","5560100.0"
"1573038345673","5542448.0"
"1573038345732","5504367.0"
"1573038345778","5452231.0"
"1573038345830","5360280.0"
"1573038345877","5275908.0"
"1573038345918","5258053.0"
"1573038345971","5222028.0"
"1573038346018","5194065.0"
"1573038346068","5193579.0"
"1573038346119","5177467.0"
"1573038346167","5166092.0"
"1573038346214","5100229.0"
"1573038346265","5082601.0"
"1573038346319","5079988.0"
"1573038346368","5107273.0"
"1573038346418","5075399.0"
"1573038346464","5003178.0"
"1573038346515","4961954.0"
"1573038346558","4936297.0"
"1573038346611","4909862.0"
"1573038346654","4880044.0"
"1573038346713","4874979.0"
"1573038346757","4836998.0"
"1573038346810","4848804.0"
"1573038346858","4871779.0"
"1573038346906","4874945.0"
"1573038346957","4836321.0"
"1573038347000","4761014.0"
"1573038347056","4727060.0"
"1573038347095","4796497.0"
"1573038347147","4748001.0"
"1573038347198","4695706.0"
"1573038347251","4661445.0"
"1573038347300","4664984.0"
"1573038347343","4674188.0"
"1573038347398","4649447.0"
"1573038347445","4613050.0"
"1573038347497","4670785.0"
"1573038347543","4730554.0"
"1573038347595","4775838.0"
"1573038347639","4788683.0"
"1573038347690","4783234.0"
"1573038347737","4799697.0"
"1573038347792","4800432.0"
"1573038347839","4848623.0"
"1573038347881","4936151.0"
"1573038347937","4882702.0"
"1573038347980","4859115.0"
"1573038348036","4863412.0"
"1573038348086","4864621.0"
"1573038348131","4869359.0"
"1573038348182","4887598.0"
"1573038348231","5031651.0"
"1573038348281","5100105.0"
"1573038348329","5102138.0"
"1573038348379","5133381.0"
"1573038348426","5147436.0"
"1573038348477","5149064.0"
"1573038348517","5183652.0"
"1573038348579","5198486.0"
"1573038348618","5302184.0"
"1573038348670","5262055.0"
"1573038348717","5262372.0"
"1573038348772","5267766.0"
"1573038348819","5292901.0"
"1573038348867","5304829.0"
"1573038348917","5320535.0"
"1573038348961","5368523.0"
"1573038349016","5404976.0"
"1573038349057","5375183.0"
"1573038349116","5340220.0"
"1573038349160","5327185.0"
"1573038349211","5295593.0"
"1573038349260","5275239.0"
"1573038349311","5263006.0"
"1573038349359","5231853.0"
"1573038349408","5205995.0"
"1573038349457","5043307.0"
"1573038349500","4938107.0"
"1573038349557","4916567.0"
"1573038349599","4926348.0"
"1573038349649","4952592.0"
"1573038349701","4978123.0"
"1573038349747","4970682.0"
"1573038349802","4955723.0"
"1573038349848","4909555.0"
"1573038349900","4900522.0"
"1573038349943","4879683.0"
"1573038349997","4868772.0"
"1573038350039","4862791.0"
"1573038350097","4862372.0"
"1573038350139","4835031.0"
"1573038350194","4733279.0"
"1573038350242","4682544.0"
"1573038350292","4660144.0"
"1573038350341","4683278.0"
"1573038350387","4693128.0"
"1573038350430","4613016.0"
"1573038350482","4527636.0"
"1573038350532","4437235.0"
"1573038350580","4369235.0"
"1573038350631","4373849.0"
"1573038350682","4416509.0"
"1573038350731","4419789.0"
"1573038350781","4416883.0"
"1573038350833","4469642.0"
"1573038350880","4523747.0"
"1573038350924","4511534.0"
"1573038350979","4493273.0"
"1573038351020","4469178.0"
"1573038351078","4514962.0"
"1573038351122","4662983.0"
"1573038351176","4696214.0"
"1573038351223","4871858.0"
"1573038351272","5045083.0"
"1573038351313","5090153.0"
"1573038351363","5118772.0"
"1573038351414","5138525.0"
"1573038351464","5147617.0"
"1573038351514","5148838.0"
"1573038351559","5131198.0"
"1573038351618","5143184.0"
"1573038351662","5163786.0"
"1573038351706","5171779.0"
"1573038351757","5113400.0"
"1573038351807","5101257.0"
"1573038351856","5125782.0"
"1573038351905","5188400.0"
"1573038351959","5280034.0"
"1573038352000","5395027.0"
"1573038352057","5381481.0"
"1573038352102","5354660.0"
"1573038352150","5330417.0"
"1573038352203","5339170.0"
"1573038352255","5348136.0"
"1573038352304","5372198.0"
"1573038352353","5420739.0"
"1573038352401","5447899.0"
"1573038352447","5405905.0"
"1573038352499","5359794.0"
"1573038352541","5340290.0"
"1573038352599","5351529.0"
"1573038352643","5363084.0"
"1573038352696","5404027.0"
"1573038352744","5453531.0"
"1573038352793","5450953.0"
"1573038352843","5431606.0"
"1573038352889","5428067.0"
"1573038352941","5421214.0"
"1573038352983","5406425.0"
"1573038353039","5390492.0"
"1573038353083","5391297.0"
"1573038353135","5431493.0"
"1573038353185","5397627.0"
"1573038353235","5344280.0"
"1573038353285","5282102.0"
"1573038353331","5265515.0"
"1573038353383","5276460.0"
"1573038353429","5302796.0"
"1573038353481","5354254.0"
"1573038353522","5357917.0"
"1573038353579","5337134.0"
"1573038353625","5319440.0"
"1573038353677","5290741.0"
"1573038353723","5280950.0"
"1573038353775","5285258.0"
"1573038353825","5302536.0"
"1573038353865","5346982.0"
"1573038353921","5367143.0"
"1573038353969","5322481.0"
"1573038354020","5275103.0"
"1573038354063","5206934.0"
"1573038354118","5146837.0"
"1573038354168","5124142.0"
"1573038354217","5242709.0"
"1573038354266","5264294.0"
"1573038354316","5261173.0"
"1573038354363","5213277.0"
"1573038354410","5125816.0"
"1573038354461","5026324.0"
"1573038354504","5001652.0"
"1573038354560","5021769.0"
"1573038354606","5054027.0"
"1573038354652","5091624.0"
"1573038354708","5050896.0"
"1573038354749","4949991.0"
"1573038354805","4830203.0"
"1573038354853","4764271.0"
"1573038354902","4722639.0"
"1573038354947","4712880.0"
"1573038354992","4703632.0"
"1573038355045","4751776.0"
"1573038355099","4786694.0"
"1573038355145","4795117.0"
"1573038355197","4784229.0"
"1573038355247","4791137.0"
"1573038355288","4799719.0"
"1573038355345","4816589.0"
"1573038355386","4859975.0"
"1573038355442","4780509.0"
"1573038355488","4699109.0"
"1573038355541","4668964.0"
"1573038355591","4681695.0"
"1573038355632","4708278.0"
"1573038355689","4732883.0"
"1573038355731","4831301.0"
"1573038355786","4840787.0"
"1573038355834","4838412.0"
"1573038355884","4860066.0"
"1573038355925","4872242.0"
"1573038355982","4854808.0"
"1573038356023","4786411.0"
"1573038356071","4768420.0"
"1573038356125","4788051.0"
"1573038356171","4698227.0"
"1573038356222","4616057.0"
"1573038356269","4524629.0"
"1573038356326","4462506.0"
"1573038356371","4448961.0"
"1573038356424","4442154.0"
"1573038356467","4492990.0"
"1573038356521","4493511.0"
"1573038356567","4460403.0"
"1573038356617","4429830.0"
"1573038356670","4409748.0"
"1573038356713","4315515.0"
"1573038356760","4253133.0"
"1573038356809","4254309.0"
"1573038356865","4360472.0"
"1573038356908","4347830.0"
"1573038356962","4197739.0"
"1573038357009","4124153.0"
"1573038357060","4066746.0"
"1573038357111","4001946.0"
"1573038357152","4087383.0"
"1573038357208","4131831.0"
"1573038357254","4097887.0"
"1573038357307","4064792.0"
"1573038357348","4078055.0"
"1573038357405","4102194.0"
"1573038357449","4119066.0"
"1573038357496","4059591.0"
"1573038357546","4036014.0"
"1573038357594","4063321.0"
"1573038357643","4132622.0"
"1573038357692","4092708.0"
"1573038357745","4035427.0"
"1573038357788","4010461.0"
"1573038357846","3999244.0"
"1573038357888","3994359.0"
"1573038357944","4032950.0"
"1573038357988","4089419.0"
"1573038358040","4037371.0"
"1573038358092","4019427.0"
"1573038358136","4066238.0"
"1573038358188","4105994.0"
"1573038358229","4072254.0"
"1573038358285","4038513.0"
"1573038358330","4032237.0"
"1573038358385","4044732.0"
"1573038358430","4011343.0"
"1573038358483","3952388.0"
"1573038358530","3905960.0"
"1573038358580","3903201.0"
"1573038358631","3937993.0"
"1573038358672","3966837.0"
"1573038358728","4090932.0"
"1573038358769","4221620.0"
"1573038358826","4240989.0"
"1573038358873","4234601.0"
"1573038358923","4262326.0"
"1573038358972","4261749.0"
"1573038359017","4202026.0"
"1573038359070","4166452.0"
"1573038359112","4180077.0"
"1573038359170","4203619.0"
"1573038359211","4155587.0"
"1573038359260","4123136.0"
"1573038359311","4126301.0"
"1573038359367","4056210.0"
"1573038359413","4021406.0"
"1573038359464","4031876.0"
"1573038359514","4059205.0"
"1573038359558","4064926.0"
"1573038359613","4047774.0"
"1573038359653","4045976.0"
"1573038359709","4054773.0"
"1573038359751","4010855.0"
"1573038359806","3991419.0"
"1573038359851","4012541.0"
"1573038359905","4091046.0"
"1573038359953","4074177.0"
"1573038359997","4028698.0"
"1573038360045","4110529.0"
"1573038360101","4143681.0"
"1573038360144","4142437.0"
"1573038360192","4141555.0"
"1573038360248","4194653.0"
"1573038360294","4297717.0"
"1573038360346","4319144.0"
"1573038360394","4307057.0"
"1573038360441","4325024.0"
"1573038360491","4301425.0"
"1573038360538","4275545.0"
"1573038360593","4329299.0"
"1573038360632","4350657.0"
"1573038360691","4462236.0"
"1573038360732","4405180.0"
"1573038360788","4331424.0"
"1573038360829","4259397.0"
"1573038360885","4257487.0"
"1573038360934","4204253.0"
"1573038360983","4201608.0"
"1573038361026","4322775.0"
"1573038361076","4489711.0"
"1573038361126","4568320.0"
"1573038361174","4574571.0"
"1573038361224","4669970.0"
"1573038361279","4995502.0"
"1573038361327","5192053.0"
"1573038361375","5170243.0"
"1573038361418","5233414.0"
"1573038361469","5381808.0"
"1573038361518","5434861.0"
"1573038361568","5399911.0"
"1573038361612","5386682.0"
"1573038361671","5355192.0"
"1573038361711","5324594.0"
"1573038361761","5311977.0"
"1573038361810","5336886.0"
"1573038361860","5372899.0"
"1573038361913","5340403.0"
"1573038361963","5298169.0"
"1573038362014","5254627.0"
"1573038362060","5255858.0"
"1573038362110","5275851.0"
"1573038362154","5234387.0"
"1573038362211","5220784.0"
"1573038362253","5274075.0"
"1573038362308","5239340.0"
"1573038362353","5196304.0"
"1573038362406","5207058.0"
"1573038362454","5166002.0"
"1573038362502","5152105.0"
"1573038362550","5202545.0"
"1573038362594","5243501.0"
"1573038362646","5259286.0"
"1573038362697","5221248.0"
"1573038362743","5179209.0"
"1573038362792","5147617.0"
"1573038362848","5162701.0"
"1573038362897","5120536.0"
"1573038362945","5078903.0"
"1573038362993","5120422.0"
"1573038363043","5111027.0"
"1573038363092","5080937.0"
"1573038363140","5083607.0"
"1573038363190","5070988.0"
"1573038363237","5039678.0"
"1573038363291","5055995.0"
"1573038363340","5099674.0"
"1573038363387","5081197.0"
"1573038363439","5066477.0"
"1573038363486","5075262.0"
"1573038363535","5008731.0"
"1573038363583","4972468.0"
"1573038363630","5025590.0"
"1573038363680","4939769.0"
"1573038363733","4957511.0"
"1573038363774","5033323.0"
"1573038363830","5003778.0"
"1573038363876","4990990.0"
"1573038363928","5010326.0"
"1573038363973","5037145.0"
"1573038364026","5067969.0"
"1573038364074","5131186.0"
"1573038364120","5217698.0"
"1573038364168","5250025.0"
"1573038364214","5227771.0"
"1573038364272","5189770.0"
"1573038364319","5151347.0"
"1573038364368","5149121.0"
"1573038364420","5147357.0"
"1573038364466","5059409.0"
"1573038364514","5108482.0"
"1573038364563","5015673.0"
"1573038364610","4949865.0"
"1573038364656","4876460.0"
"1573038364708","4848079.0"
"1573038364752","4814632.0"
"1573038364812","4758493.0"
"1573038364855","4742324.0"
"1573038364907","4752422.0"
"1573038364955","4737316.0"
"1573038364998","4762518.0"
"1573038365046","4773260.0"
"1573038365095","4774991.0"
"1573038365146","4738379.0"
"1573038365197","4684365.0"
"1573038365251","4742743.0"
"1573038365293","4678643.0"
"1573038365348","4678609.0"
"1573038365391","4681063.0"
"1573038365446","4648305.0"
"1573038365494","4686896.0"
"1573038365539","4789136.0"
"1573038365590","4957815.0"
"1573038365636","5020909.0"
"1573038365690","5106141.0"
"1573038365739","5079852.0"
"1573038365790","5106289.0"
"1573038365839","5092065.0"
"1573038365888","5077762.0"
"1573038365937","5091250.0"
"1573038365977","5081006.0"
"1573038366033","5222820.0"
"1573038366080","5132013.0"
"1573038366129","5105395.0"
"1573038366179","5015617.0"
"1573038366233","4926506.0"
"1573038366278","4895276.0"
"1573038366323","4887554.0"
"1573038366378","4907024.0"
"1573038366418","4877060.0"
"1573038366468","4870152.0"
"1573038366519","4849176.0"
"1573038366568","4820740.0"
"1573038366619","4820140.0"
"1573038366667","4865300.0"
"1573038366717","4883663.0"
"1573038366765","5043523.0"
"1573038366818","5051404.0"
"1573038366868","5005112.0"
"1573038366918","4940369.0"
"1573038366965","4893206.0"
"1573038367016","4885178.0"
"1573038367057","4901709.0"
"1573038367113","4945603.0"
"1573038367160","4964587.0"
"1573038367210","4932929.0"
"1573038367258","4857114.0"
"1573038367312","4822786.0"
"1573038367359","4822909.0"
"1573038367405","4841081.0"
"1573038367458","4874006.0"
"1573038367502","4874040.0"
"1573038367552","4900421.0"
"1573038367596","4851697.0"
"1573038367649","4792957.0"
"1573038367698","4738899.0"
"1573038367747","4714044.0"
"1573038367803","4705722.0"
"1573038367844","4702151.0"
"1573038367890","4744732.0"
"1573038367939","4707124.0"
"1573038367988","4673103.0"
"1573038368037","4648588.0"
"1573038368089","4654344.0"
"1573038368139","4662983.0"
"1573038368194","4675850.0"
"1573038368241","4658301.0"
"1573038368293","4633967.0"
"1573038368341","4605826.0"
"1573038368391","4639317.0"
"1573038368440","4649492.0"
"1573038368486","4646995.0"
"1573038368537","4633085.0"
"1573038368579","4665662.0"
"1573038368629","4691092.0"
"1573038368677","4768987.0"
"1573038368735","4798374.0"
"1573038368779","4779897.0"
"1573038368831","4809195.0"
"1573038368880","4813198.0"
"1573038368929","4828846.0"
"1573038368978","4877478.0"
"1573038369022","4893523.0"
"1573038369078","4985788.0"
"1573038369124","4984409.0"
"1573038369176","4907645.0"
"1573038369217","4863943.0"
"1573038369275","4874335.0"
"1573038369319","4886286.0"
"1573038369374","4900906.0"
"1573038369420","4976991.0"
"1573038369467","5025952.0"
"1573038369518","4968986.0"
"1573038369565","4921372.0"
"1573038369618","4891227.0"
"1573038369666","4873872.0"
"1573038369716","4876460.0"
"1573038369758","4901156.0"
"1573038369814","4970524.0"
"1573038369862","4960936.0"
"1573038369911","4848656.0"
"1573038369960","4793953.0"
"1573038370007","4774062.0"
"1573038370058","4800081.0"
"1573038370099","4812507.0"
"1573038370151","4826439.0"
"1573038370200","4789215.0"
"1573038370247","4757024.0"
"1573038370299","4723453.0"
"1573038370344","4727897.0"
"1573038370393","4729683.0"
"1573038370442","4732972.0"
"1573038370490","4756244.0"
"1573038370542","4813175.0"
"1573038370589","4831900.0"
"1573038370640","4767008.0"
"1573038370689","4686218.0"
"1573038370743","4645660.0"
"1573038370786","4639374.0"
"1573038370843","4649051.0"
"1573038370891","4644756.0"
"1573038370941","4609182.0"
"1573038370989","4545310.0"
"1573038371040","4499764.0"
"1573038371081","4456911.0"
"1573038371137","4441929.0"
"1573038371180","4444076.0"
"1573038371237","4467618.0"
"1573038371283","4480678.0"
"1573038371331","4597558.0"
"1573038371383","4568240.0"
"1573038371433","4445208.0"
"1573038371481","4387112.0"
"1573038371526","4391556.0"
"1573038371579","4406741.0"
"1573038371621","4426697.0"
"1573038371678","4443975.0"
"1573038371722","4486016.0"
"1573038371769","4490006.0"
"1573038371824","4461761.0"
"1573038371874","4487145.0"
"1573038371923","4499695.0"
"1573038371970","4560347.0"
"1573038372020","4597808.0"
"1573038372062","4638524.0"
"1573038372119","4729445.0"
"1573038372164","4717787.0"
"1573038372218","4670693.0"
"1573038372264","4720489.0"
"1573038372317","4805044.0"
"1573038372365","4872911.0"
"1573038372411","4900250.0"
"1573038372461","4947740.0"
"1573038372510","4973826.0"
"1573038372560","4965560.0"
"1573038372604","4907420.0"
"1573038372652","4856661.0"
"1573038372701","4831435.0"
"1573038372756","4831571.0"
"1573038372805","4841532.0"
"1573038372855","4879559.0"
"1573038372895","4970489.0"
"1573038372947","4829151.0"
"1573038372995","4728145.0"
"1573038373046","4695446.0"
"1573038373092","4710574.0"
"1573038373146","4721373.0"
"1573038373199","4731379.0"
"1573038373246","4832893.0"
"1573038373296","4907452.0"
"1573038373345","4874833.0"
"1573038373394","4846045.0"
"1573038373442","4856458.0"
"1573038373491","4862293.0"
"1573038373541","4861399.0"
"1573038373582","4870184.0"
"1573038373633","4875420.0"
"1573038373685","4811749.0"
"1573038373738","4705021.0"
"1573038373783","4638264.0"
"1573038373837","4644608.0"
"1573038373884","4683404.0"
"1573038373932","4713083.0"
"1573038373982","4842144.0"
"1573038374029","4907398.0"
"1573038374080","4834013.0"
"1573038374123","4787011.0"
"1573038374178","4777354.0"
"1573038374223","4775025.0"
"1573038374276","4777862.0"
"1573038374326","4795773.0"
"1573038374368","4820864.0"
"1573038374423","4835065.0"
"1573038374470","4787439.0"
"1573038374521","4665640.0"
"1573038374563","4599277.0"
"1573038374620","4600137.0"
"1573038374668","4625804.0"
"1573038374718","4660144.0"
"1573038374760","4715436.0"
"1573038374817","4636308.0"
"1573038374865","4678723.0"
"1573038374913","4685450.0"
"1573038374963","4697943.0"
"1573038375007","4715255.0"
"1573038375061","4739474.0"
"1573038375104","4778778.0"
"1573038375153","4853304.0"
"1573038375207","4900116.0"
"1573038375251","4805180.0"
"1573038375307","4717346.0"
"1573038375354","4687213.0"
"1573038375404","4676065.0"
"1573038375449","4702138.0"
"1573038375502","4741193.0"
"1573038375547","4732984.0"
"1573038375591","4801822.0"
"1573038375646","4839182.0"
"1573038375700","4884148.0"
"1573038375748","4916703.0"
"1573038375797","4933741.0"
"1573038375845","4979943.0"
"1573038375893","5055939.0"
"1573038375944","5139102.0"
"1573038375986","5134205.0"
"1573038376042","5115617.0"
"1573038376086","5125883.0"
"1573038376137","5147560.0"
"1573038376188","5178439.0"
"1573038376230","5169473.0"
"1573038376289","5222129.0"
"1573038376331","5292653.0"
"1573038376386","5342380.0"
"1573038376428","5319009.0"
"1573038376484","5292483.0"
"1573038376525","5289146.0"
"1573038376574","5272232.0"
"1573038376626","5283980.0"
"1573038376671","5317699.0"
"1573038376725","5373635.0"
"1573038376771","5336445.0"
"1573038376822","5274233.0"
"1573038376872","5241500.0"
"1573038376926","5235338.0"
"1573038376968","5281210.0"
"1573038377024","5348542.0"
"1573038377068","5417585.0"
"1573038377123","5471542.0"
"1573038377167","5489915.0"
"1573038377221","5488323.0"
"1573038377270","5484873.0"
"1573038377317","5474324.0"
"1573038377367","5475659.0"
"1573038377411","5487813.0"
"1573038377466","5516127.0"
"1573038377508","5553859.0"
"1573038377564","5530792.0"
"1573038377611","5488583.0"
"1573038377655","5454886.0"
"1573038377708","5445219.0"
"1573038377759","5466059.0"
"1573038377810","5499822.0"
"1573038377856","5550262.0"
"1573038377908","5600782.0"
"1573038377949","5596090.0"
"1573038378006","5581391.0"
"1573038378048","5578439.0"
"1573038378104","5547979.0"
"1573038378149","5547944.0"
"1573038378202","5565606.0"
"1573038378253","5595140.0"
"1573038378297","5630362.0"
"1573038378350","5603179.0"
"1573038378393","5543015.0"
"1573038378447","5514069.0"
"1573038378489","5538039.0"
"1573038378546","5568999.0"
"1573038378590","5591499.0"
"1573038378635","5642743.0"
"1573038378693","5695016.0"
"1573038378736","5752456.0"
"1573038378789","5752094.0"
"1573038378833","5722628.0"
"1573038378890","5710236.0"
"1573038378930","5716059.0"
"1573038378987","5731720.0"
"1573038379031","5763299.0"
"1573038379083","5785474.0"
"1573038379132","5752513.0"
"1573038379182","5675635.0"
"1573038379229","5645049.0"
"1573038379273","5643127.0"
"1573038379332","5630045.0"
"1573038379371","5654300.0"
"1573038379427","5684681.0"
"1573038379471","5724178.0"
"1573038379527","5728418.0"
"1573038379572","5701709.0"
"1573038379623","5689837.0"
"1573038379673","5682308.0"
"1573038379719","5687554.0"
"1573038379768","5687497.0"
"1573038379817","5666828.0"
"1573038379870","5692641.0"
"1573038379910","5617076.0"
"1573038379967","5495954.0"
"1573038380010","5411535.0"
"1573038380066","5397120.0"
"1573038380112","5427953.0"
"1573038380160","5459557.0"
"1573038380209","5521745.0"
"1573038380255","5581131.0"
"1573038380314","5576494.0"
"1573038380360","5535156.0"
"1573038380410","5504967.0"
"1573038380458","5485891.0"
"1573038380507","5498691.0"
"1573038380551","5464271.0"
"1573038380606","5469043.0"
"1573038380651","5494507.0"
"1573038380702","5429548.0"
"1573038380749","5346836.0"
"1573038380801","5303180.0"
"1573038380849","5323091.0"
"1573038380893","5377466.0"
"1573038380951","5463525.0"
"1573038380990","5457804.0"
"1573038381047","5407611.0"
"1573038381095","5338187.0"
"1573038381138","5297922.0"
"1573038381193","5286932.0"
"1573038381245","5279784.0"
"1573038381289","5284364.0"
"1573038381339","5206097.0"
"1573038381392","5180598.0"
"1573038381434","5149765.0"
"1573038381488","5053246.0"
"1573038381530","4989464.0"
"1573038381580","4966534.0"
"1573038381632","5005249.0"
"1573038381676","5020411.0"
"1573038381729","5090854.0"
"1573038381775","5227003.0"
"1573038381827","5344631.0"
"1573038381876","5368421.0"
"1573038381932","5367584.0"
"1573038381972","5367720.0"
"1573038382029","5369417.0"
"1573038382070","5381831.0"
"1573038382126","5416748.0"
"1573038382177","5485913.0"
"1573038382224","5465990.0"
"1573038382271","5404411.0"
"1573038382323","5340210.0"
"1573038382369","5352750.0"
"1573038382419","5359851.0"
"1573038382473","5362066.0"
"1573038382511","5381741.0"
"1573038382562","5400545.0"
"1573038382611","5361739.0"
"1573038382661","5301122.0"
"1573038382712","5263254.0"
"1573038382757","5223736.0"
"1573038382814","5167325.0"
"1573038382864","5082193.0"
"1573038382914","5041464.0"
"1573038382953","4999109.0"
"1573038383008","4893557.0"
"1573038383054","4817347.0"
"1573038383110","4791283.0"
"1573038383151","4796881.0"
"1573038383208","4768375.0"
"1573038383259","4761309.0"
"1573038383305","4698510.0"
"1573038383354","4619371.0"
"1573038383404","4593930.0"
"1573038383450","4555859.0"
"1573038383499","4548022.0"
"1573038383553","4565640.0"
"1573038383596","4509714.0"
"1573038383644","4429614.0"
"1573038383696","4407950.0"
"1573038383748","4343726.0"
"1573038383800","4269970.0"
"1573038383845","4240843.0"
"1573038383893","4245038.0"
"1573038383943","4282227.0"
"1573038383991","4275013.0"
"1573038384040","4325973.0"
"1573038384089","4342528.0"
"1573038384137","4309296.0"
"1573038384191","4278314.0"
"1573038384239","4272977.0"
"1573038384287","4304932.0"
"1573038384334","4303540.0"
"1573038384386","4302760.0"
"1573038384433","4323555.0"
"1573038384484","4321643.0"
"1573038384532","4281197.0"
"1573038384580","4249187.0"
"1573038384630","4236850.0"
"1573038384673","4255406.0"
"1573038384731","4255939.0"
"1573038384777","4294584.0"
"1573038384828","4434432.0"
"1573038384874","4552827.0"
"1573038384926","4613875.0"
"1573038384973","4654921.0"
"1573038385024","4655678.0"
"1573038385073","4656956.0"
"1573038385114","4691939.0"
"1573038385168","4712506.0"
"1573038385218","4743003.0"
"1573038385264","4769993.0"
"1573038385315","4701494.0"
"1573038385368","4669834.0"
"1573038385415","4670728.0"
"1573038385463","4696486.0"
"1573038385514","4704105.0"
"1573038385561","4735132.0"
"1573038385614","4751020.0"
"1573038385657","4761478.0"
"1573038385709","4750555.0"
"1573038385758","4743399.0"
"1573038385810","4748645.0"
"1573038385858","4773881.0"
"1573038385906","4799481.0"
"1573038385956","4795152.0"
"1573038386001","4766419.0"
"1573038386055","4666284.0"
"1573038386101","4602817.0"
"1573038386147","4616748.0"
"1573038386196","4669440.0"
"1573038386245","4721034.0"
"1573038386297","4760868.0"
"1573038386350","4768975.0"
"1573038386398","4755384.0"
"1573038386446","4746168.0"
"1573038386496","4772717.0"
"1573038386543","4801019.0"
"1573038386594","4831504.0"
"1573038386638","4876970.0"
"1573038386691","4933245.0"
"1573038386737","5007510.0"
"1573038386785","4990707.0"
"1573038386835","4939091.0"
"1573038386882","4946011.0"
"1573038386931","4974685.0"
"1573038386980","5007317.0"
"1573038387028","5044325.0"
"1573038387079","5108843.0"
"1573038387129","5116489.0"
"1573038387178","5089464.0"
"1573038387227","5051381.0"
"1573038387276","5050624.0"
"1573038387325","5072288.0"
"1573038387373","5072459.0"
"1573038387422","5004050.0"
"1573038387471","4945389.0"
"1573038387520","4959376.0"
"1573038387570","4885223.0"
"1573038387619","4809658.0"
"1573038387668","4775828.0"
"1573038387715","4754094.0"
"1573038387769","4726505.0"
"1573038387819","4707612.0"
"1573038387868","4694280.0"
"1573038387918","4733651.0"
"1573038387967","4742030.0"
"1573038388019","4776031.0"
"1573038388057","4810449.0"
"1573038388118","4869144.0"
"1573038388164","4924436.0"
"1573038388215","4988119.0"
"1573038388260","5007136.0"
"1573038388312","4943681.0"
"1573038388360","4887338.0"
"1573038388409","4839927.0"
"1573038388459","4808301.0"
"1573038388506","4775397.0"
"1573038388558","4772073.0"
"1573038388598","4828190.0"
"1573038388650","4854853.0"
"1573038388696","4864339.0"
"1573038388752","4860743.0"
"1573038388802","4862394.0"
"1573038388851","4858528.0"
"1573038388900","4875217.0"
"1573038388944","4860663.0"
"1573038388998","4887836.0"
"1573038389042","4864396.0"
"1573038389097","4771620.0"
"1573038389137","4692662.0"
"1573038389196","4695954.0"
"1573038389239","4742200.0"
"1573038389289","4802196.0"
"1573038389341","4910868.0"
"1573038389391","4988208.0"
"1573038389440","4988842.0"
"1573038389487","4965142.0"
"1573038389538","4955871.0"
"1573038389581","4957645.0"
"1573038389630","4957374.0"
"1573038389679","5001969.0"
"1573038389735","5035800.0"
"1573038389781","5076347.0"
"1573038389827","5032758.0"
"1573038389873","4974380.0"
"1573038389923","4945773.0"
"1573038389974","4967856.0"
"1573038390023","4987440.0"
"1573038390073","5023282.0"
"1573038390119","5049606.0"
"1573038390177","5038163.0"
"1573038390219","4987723.0"
"1573038390275","4979197.0"
"1573038390322","4973531.0"
"1573038390372","4978586.0"
"1573038390421","4984320.0"
"1573038390469","5071473.0"
"1573038390519","5142810.0"
"1573038390562","5063208.0"
"1573038390609","4969474.0"
"1573038390659","4948599.0"
"1573038390708","4955554.0"
"1573038390763","4987066.0"
"1573038390814","5014385.0"
"1573038390863","5081514.0"
"1573038390910","5081809.0"
"1573038390961","5051733.0"
"1573038391010","5019767.0"
"1573038391059","4964272.0"
"1573038391103","4924064.0"
"1573038391151","4935190.0"
"1573038391200","4959262.0"
"1573038391256","4994145.0"
"1573038391302","5031763.0"
"1573038391354","4936602.0"
"1573038391403","4871972.0"
"1573038391451","4838694.0"
"1573038391500","4849267.0"
"1573038391549","4853371.0"
"1573038391598","4827613.0"
"1573038391642","4791137.0"
"1573038391697","4754570.0"
"1573038391742","4710631.0"
"1573038391789","4669935.0"
"1573038391845","4652625.0"
"1573038391896","4662022.0"
"1573038391941","4642913.0"
"1573038391990","4635201.0"
"1573038392040","4617528.0"
"1573038392084","4537157.0"
"1573038392139","4487021.0"
"1573038392182","4482429.0"
"1573038392238","4530407.0"
"1573038392283","4577365.0"
"1573038392336","4625284.0"
"1573038392384","4570717.0"
"1573038392434","4482702.0"
"1573038392482","4496869.0"
"1573038392531","4453223.0"
"1573038392580","4422922.0"
"1573038392623","4416420.0"
"1573038392672","4429446.0"
"1573038392721","4451437.0"
"1573038392771","4475534.0"
"1573038392820","4439011.0"
"1573038392875","4332499.0"
"1573038392923","4309601.0"
"1573038392971","4358515.0"
"1573038393022","4441748.0"
"1573038393069","4529773.0"
"1573038393119","4595116.0"
"1573038393165","4585427.0"
"1573038393218","4555326.0"
"1573038393266","4551755.0"
"1573038393318","4521337.0"
"1573038393366","4500047.0"
"1573038393414","4495061.0"
"1573038393463","4502501.0"
"1573038393511","4521835.0"
"1573038393561","4496790.0"
"1573038393606","4369302.0"
"1573038393653","4303179.0"
"1573038393703","4304310.0"
"1573038393758","4330428.0"
"1573038393807","4370783.0"
"1573038393856","4387858.0"
"1573038393905","4359228.0"
"1573038393956","4325713.0"
"1573038394003","4289408.0"
"1573038394044","4284080.0"
"1573038394100","4295275.0"
"1573038394143","4288276.0"
"1573038394199","4304207.0"
"1573038394246","4261162.0"
"1573038394299","4258651.0"
"1573038394347","4151799.0"
"1573038394396","4051878.0"
"1573038394444","4010731.0"
"1573038394492","4009805.0"
"1573038394542","4049210.0"
"1573038394587","4089632.0"
"1573038394634","4145796.0"
"1573038394684","4110019.0"
"1573038394739","4090231.0"
"1573038394786","4093952.0"
"1573038394836","4076698.0"
"1573038394887","4051878.0"
"1573038394934","4117731.0"
"1573038394984","4180181.0"
"1573038395026","4278721.0"
"1573038395082","4330644.0"
"1573038395124","4265254.0"
"1573038395180","4190843.0"
"1573038395226","4166871.0"
"1573038395278","4231933.0"
"1573038395328","4299119.0"
"1573038395371","4414283.0"
"1573038395420","4462439.0"
"1573038395470","4452658.0"
"1573038395519","4423702.0"
"1573038395570","4380554.0"
"1573038395624","4335687.0"
"1573038395668","4312925.0"
"1573038395720","4283899.0"
"1573038395769","4319236.0"
"1573038395818","4296937.0"
"1573038395868","4195604.0"
"1573038395915","4140651.0"
"1573038395966","4112384.0"
"1573038396013","4140470.0"
"1573038396065","4150227.0"
"1573038396105","4180689.0"
"1573038396155","4159782.0"
"1573038396206","4122831.0"
"1573038396261","4114204.0"
"1573038396307","4100443.0"
"1573038396358","4062925.0"
"1573038396408","4076188.0"
"1573038396455","4081649.0"
"1573038396505","4126583.0"
"1573038396548","4158571.0"
"1573038396604","4084668.0"
"1573038396646","4000668.0"
"1573038396702","3967630.0"
"1573038396749","4020581.0"
"1573038396793","4061003.0"
"1573038396850","4118353.0"
"1573038396895","4159465.0"
"1573038396946","4100069.0"
"1573038396987","4029817.0"
"1573038397045","4006538.0"
"1573038397088","4003472.0"
"1573038397138","4020185.0"
"1573038397189","4058335.0"
"1573038397241","4138999.0"
"1573038397291","4201856.0"
"1573038397337","4159284.0"
"1573038397389","4113288.0"
"1573038397429","4104864.0"
"1573038397485","4148815.0"
"1573038397527","4204523.0"
"1573038397582","4288298.0"
"1573038397632","4337450.0"
"1573038397682","4399561.0"
"1573038397728","4435212.0"
"1573038397781","4441567.0"
"1573038397830","4446858.0"
"1573038397871","4463638.0"
"1573038397928","4474573.0"
"1573038397971","4505734.0"
"1573038398025","4573350.0"
"1573038398072","4612179.0"
"1573038398122","4565707.0"
"1573038398169","4521790.0"
"1573038398215","4557917.0"
"1573038398269","4635788.0"
"1573038398316","4701732.0"
"1573038398361","4746542.0"
"1573038398415","4793478.0"
"1573038398460","4822820.0"
"1573038398508","4807249.0"
"1573038398565","4780395.0"
"1573038398612","4721225.0"
"1573038398656","4699550.0"
"1573038398708","4682183.0"
"1573038398755","4692618.0"
"1573038398809","4730825.0"
"1573038398854","4686287.0"
"1573038398909","4578868.0"
"1573038398950","4525171.0"
"1573038399006","4537813.0"
"1573038399050","4524820.0"
"1573038399104","4531470.0"
"1573038399150","4521858.0"
"1573038399201","4494699.0"
"1573038399249","4442471.0"
"1573038399295","4412993.0"
"1573038399350","4406593.0"
"1573038399391","4396450.0"
"1573038399448","4382510.0"
"1573038399491","4396135.0"
"1573038399544","4479638.0"
"1573038399592","4444745.0"
"1573038399637","4309182.0"
"1573038399693","4241068.0"
"1573038399741","4225353.0"
"1573038399789","4250928.0"
"1573038399839","4276380.0"
"1573038399891","4321757.0"
"1573038399930","4334862.0"
"1573038399980","4309217.0"
"1573038400029","4281378.0"
"1573038400080","4277896.0"
"1573038400131","4281921.0"
"1573038400178","4313400.0"
"1573038400228","4403880.0"
"1573038400274","4503596.0"
"1573038400330","4643500.0"
"1573038400372","4599572.0"
"1573038400421","4508064.0"
"1573038400469","4500941.0"
"1573038400522","4492629.0"
"1573038400569","4483279.0"
"1573038400618","4606210.0"
"1573038400672","4814441.0"
"1573038400718","4901449.0"
"1573038400768","4927083.0"
"1573038400816","4908131.0"
"1573038400869","4878553.0"
"1573038400917","4872740.0"
"1573038400970","4889260.0"
"1573038401012","4889870.0"
"1573038401067","4925736.0"
"1573038401109","4901030.0"
"1573038401161","4797446.0"
"1573038401216","4683889.0"
"1573038401263","4605610.0"
"1573038401310","4572458.0"
"1573038401359","4531175.0"
"1573038401411","4546192.0"
"1573038401453","4569969.0"
"1573038401509","4548634.0"
"1573038401550","4455621.0"
"1573038401606","4399278.0"
"1573038401651","4378315.0"
"1573038401705","4390820.0"
"1573038401754","4447898.0"
"1573038401796","4549357.0"
"1573038401849","4644100.0"
"1573038401898","4582588.0"
"1573038401952","4488411.0"
"1573038401995","4484421.0"
"1573038402050","4515559.0"
"1573038402092","4524718.0"
"1573038402139","4537744.0"
"1573038402198","4610301.0"
"1573038402245","4617561.0"
"1573038402293","4592483.0"
"1573038402342","4580508.0"
"1573038402389","4572107.0"
"1573038402438","4566420.0"
"1573038402492","4588424.0"
"1573038402533","4614903.0"
"1573038402589","4637427.0"
"1573038402636","4614519.0"
"1573038402686","4466226.0"
"1573038402733","4393240.0"
"1573038402785","4359533.0"
"1573038402833","4368229.0"
"1573038402880","4350522.0"
"1573038402928","4318919.0"
"1573038402977","4282668.0"
"1573038403031","4240595.0"
"1573038403071","4185618.0"
"1573038403129","4204783.0"
"1573038403177","4178281.0"
"1573038403226","4155440.0"
"1573038403272","4163525.0"
"1573038403321","4178688.0"
"1573038403371","4206955.0"
"1573038403421","4138051.0"
"1573038403469","4029196.0"
"1573038403514","3976358.0"
"1573038403571","3975984.0"
"1573038403617","3978563.0"
"1573038403668","3995083.0"
"1573038403718","4029966.0"
"1573038403765","4040131.0"
"1573038403809","4031717.0"
"1573038403864","4041148.0"
"1573038403912","4031695.0"
"1573038403958","4015016.0"
"1573038404008","4024775.0"
"1573038404053","4065265.0"
"1573038404110","4103393.0"
"1573038404154","4009612.0"
"1573038404208","3931174.0"
"1573038404248","3910099.0"
"1573038404298","3977443.0"
"1573038404350","4034578.0"
"1573038404404","4082045.0"
"1573038404449","4115346.0"
"1573038404499","4144032.0"
"1573038404552","4156017.0"
"1573038404596","4129592.0"
"1573038404643","4117719.0"
"1573038404699","4116656.0"
"1573038404746","4126482.0"
"1573038404796","4206943.0"
"1573038404844","4306312.0"
"1573038404893","4240526.0"
"1573038404942","4090605.0"
"1573038404989","4012869.0"
"1573038405037","4010201.0"
"1573038405092","4034013.0"
"1573038405137","4061037.0"
"1573038405189","4093805.0"
"1573038405236","4101233.0"
"1573038405287","4039791.0"
"1573038405333","4012732.0"
"1573038405382","3989678.0"
"1573038405426","3996960.0"
"1573038405475","4108176.0"
"1573038405524","4357646.0"
"1573038405573","4502422.0"
"1573038405624","4493884.0"
"1573038405674","4413909.0"
"1573038405722","4349527.0"
"1573038405770","4280179.0"
"1573038405825","4278406.0"
"1573038405873","4339214.0"
"1573038405919","4597390.0"
"1573038405971","4799548.0"
"1573038406013","4861309.0"
"1573038406068","4881005.0"
"1573038406117","4871621.0"
"1573038406170","4867618.0"
"1573038406218","4898702.0"
"1573038406260","4940550.0"
"1573038406312","5027104.0"
"1573038406360","5174538.0"
"1573038406410","5169789.0"
"1573038406455","5159736.0"
"1573038406509","5147379.0"
"1573038406556","5154820.0"
"1573038406613","5154988.0"
"1573038406656","5209094.0"
"1573038406709","5220026.0"
"1573038406757","5224957.0"
"1573038406801","5221384.0"
"1573038406856","5191409.0"
"1573038406897","5178993.0"
"1573038406955","5178540.0"
"1573038406995","5180157.0"
"1573038407050","5199821.0"
"1573038407097","5242731.0"
"1573038407145","5219722.0"
"1573038407199","5117834.0"
"1573038407249","5012439.0"
"1573038407298","4985281.0"
"1573038407344","4983165.0"
"1573038407398","4957058.0"
"1573038407436","4891227.0"
"1573038407494","4881651.0"
"1573038407538","4843343.0"
"1573038407590","4805634.0"
"1573038407636","4744653.0"
"1573038407683","4701742.0"
"1573038407738","4693727.0"
"1573038407780","4710562.0"
"1573038407837","4723350.0"
"1573038407879","4645071.0"
"1573038407936","4536082.0"
"1573038407977","4431187.0"
"1573038408035","4413084.0"
"1573038408081","4413706.0"
"1573038408132","4500634.0"
"1573038408183","4600057.0"
"1573038408231","4625771.0"
"1573038408279","4619958.0"
"1573038408327","4618296.0"
"1573038408377","4604389.0"
"1573038408420","4570615.0"
"1573038408476","4550511.0"
"1573038408518","4603958.0"
"1573038408576","4623091.0"
"1573038408619","4590640.0"
"1573038408668","4514712.0"
"1573038408720","4444393.0"
"1573038408770","4432339.0"
"1573038408810","4470987.0"
"1573038408866","4524990.0"
"1573038408917","4545932.0"
"1573038408957","4517629.0"
"1573038409016","4512802.0"
"1573038409058","4484817.0"
"1573038409115","4392888.0"
"1573038409160","4340955.0"
"1573038409213","4327558.0"
"1573038409258","4391328.0"
"1573038409310","4391499.0"
"1573038409358","4327590.0"
"1573038409408","4307023.0"
"1573038409457","4279706.0"
"1573038409505","4260494.0"
"1573038409556","4253224.0"
"1573038409600","4275567.0"
"1573038409647","4284160.0"
"1573038409702","4286569.0"
"1573038409751","4306515.0"
"1573038409800","4313039.0"
"1573038409848","4265977.0"
"1573038409898","4238819.0"
"1573038409939","4232385.0"
"1573038409997","4309262.0"
"1573038410045","4275703.0"
"1573038410096","4211500.0"
"1573038410139","4176800.0"
"1573038410192","4183470.0"
"1573038410241","4153597.0"
"1573038410292","4144574.0"
"1573038410331","4334624.0"
"1573038410380","4492911.0"
"1573038410429","4521429.0"
"1573038410479","4605677.0"
"1573038410528","4637033.0"
"1573038410584","4639555.0"
"1573038410627","4659872.0"
"1573038410683","4718138.0"
"1573038410724","4799288.0"
"1573038410775","4786072.0"
"1573038410825","4762067.0"
"1573038410879","4791803.0"
"1573038410923","4845129.0"
"1573038410978","4908279.0"
"1573038411019","4988119.0"
"1573038411077","5068873.0"
"1573038411121","5099652.0"
"1573038411172","5077071.0"
"1573038411225","5055191.0"
"1573038411265","5030452.0"
"1573038411315","5020919.0"
"1573038411365","5020795.0"
"1573038411414","5053608.0"
"1573038411464","5088253.0"
"1573038411518","5070208.0"
"1573038411561","5008379.0"
"1573038411616","4981142.0"
"1573038411660","5002195.0"
"1573038411706","5033075.0"
"1573038411754","5091488.0"
"1573038411805","5211863.0"
"1573038411855","5216353.0"
"1573038411912","5191080.0"
"1573038411950","5171825.0"
"1573038412004","5163377.0"
"1573038412052","5161004.0"
"1573038412100","5168546.0"
"1573038412149","5204412.0"
"1573038412203","5233619.0"
"1573038412255","5200274.0"
"1573038412303","5158753.0"
"1573038412350","5156221.0"
"1573038412402","5181131.0"
"1573038412451","5204457.0"
"1573038412500","5229921.0"
"1573038412541","5243296.0"
"1573038412598","5187937.0"
"1573038412642","5145083.0"
"1573038412694","5121666.0"
"1573038412743","5106651.0"
"1573038412794","5117257.0"
"1573038412845","5126121.0"
"1573038412893","5140368.0"
"1573038412942","5133765.0"
"1573038412988","5017291.0"
"1573038413040","4963626.0"
"1573038413083","5003914.0"
"1573038413136","5044914.0"
"1573038413183","5075114.0"
"1573038413238","5104967.0"
"1573038413288","5133133.0"
"1573038413337","5118750.0"
"1573038413386","5108697.0"
"1573038413436","5098621.0"
"1573038413484","5113898.0"
"1573038413530","5138062.0"
"1573038413581","5101110.0"
"1573038413625","5164214.0"
"1573038413680","5231266.0"
"1573038413723","5179253.0"
"1573038413778","5106787.0"
"1573038413822","5096338.0"
"1573038413876","5086398.0"
"1573038413926","5109093.0"
"1573038413974","5103508.0"
"1573038414024","5051121.0"
"1573038414064","4943512.0"
"1573038414120","4885664.0"
"1573038414172","4852750.0"
"1573038414220","4843511.0"
"1573038414265","4866149.0"
"1573038414319","4867200.0"
"1573038414367","4958732.0"
"1573038414417","4984545.0"
"1573038414464","4945367.0"
"1573038414512","4898509.0"
"1573038414562","4937892.0"
"1573038414610","4976676.0"
"1573038414654","5003517.0"
"1573038414703","5071315.0"
"1573038414759","5115731.0"
"1573038414805","5110200.0"
"1573038414856","5099426.0"
"1573038414907","5086037.0"
"1573038414957","5127399.0"
"1573038415004","5197175.0"
"1573038415050","5226496.0"
"1573038415102","5289508.0"
"1573038415147","5314159.0"
"1573038415201","5283640.0"
"1573038415244","5285065.0"
"1573038415290","5297186.0"
"1573038415346","5308968.0"
"1573038415397","5351868.0"
"1573038415446","5428394.0"
"1573038415493","5448565.0"
"1573038415545","5422526.0"
"1573038415591","5413741.0"
"1573038415634","5393850.0"
"1573038415687","5370467.0"
"1573038415740","5371678.0"
"1573038415788","5398397.0"
"1573038415838","5466624.0"
"1573038415888","5437043.0"
"1573038415935","5402309.0"
"1573038415986","5386321.0"
"1573038416032","5401382.0"
"1573038416084","5416238.0"
"1573038416127","5442425.0"
"1573038416181","5449516.0"
"1573038416229","5455317.0"
"1573038416281","5413526.0"
"1573038416325","5399787.0"
"1573038416372","5379242.0"
"1573038416423","5364849.0"
"1573038416472","5352783.0"
"1573038416520","5342618.0"
"1573038416571","5374244.0"
"1573038416624","5315200.0"
"1573038416665","5250771.0"
"1573038416722","5212554.0"
"1573038416767","5227400.0"
"1573038416814","5227457.0"
"1573038416868","5293897.0"
"1573038416917","5353689.0"
"1573038416961","5333290.0"
"1573038417013","5323893.0"
"1573038417066","5342980.0"
"1573038417109","5306900.0"
"1573038417160","5318920.0"
"1573038417207","5327140.0"
"1573038417264","5371700.0"
"1573038417308","5404684.0"
"1573038417362","5352027.0"
"1573038417407","5307713.0"
"1573038417459","5335745.0"
"1573038417509","5358063.0"
"1573038417556","5385506.0"
"1573038417607","5467889.0"
"1573038417648","5518817.0"
"1573038417699","5491907.0"
"1573038417750","5450150.0"
"1573038417798","5435359.0"
"1573038417848","5413209.0"
"1573038417900","5423678.0"
"1573038417952","5438153.0"
"1573038417993","5458777.0"
"1573038418050","5412994.0"
"1573038418091","5345932.0"
"1573038418141","5347606.0"
"1573038418190","5380870.0"
"1573038418245","5407532.0"
"1573038418296","5444258.0"
"1573038418342","5506413.0"
"1573038418389","5532759.0"
"1573038418439","5502535.0"
"1573038418490","5476947.0"
"1573038418533","5433437.0"
"1573038418590","5395921.0"
"1573038418630","5403111.0"
"1573038418688","5423735.0"
"1573038418730","5457873.0"
"1573038418786","5369179.0"
"1573038418829","5249381.0"
"1573038418884","5203655.0"
"1573038418932","5226099.0"
"1573038418978","5265911.0"
"1573038419028","5328755.0"
"1573038419073","5388741.0"
"1573038419130","5347187.0"
"1573038419171","5259556.0"
"1573038419227","5252738.0"
"1573038419270","5197186.0"
"1573038419325","5187021.0"
"1573038419371","5221294.0"
"1573038419417","5271214.0"
"1573038419473","5287633.0"
"1573038419520","5237010.0"
"1573038419569","5138151.0"
"1573038419614","5103382.0"
"1573038419670","5095547.0"
"1573038419711","5086738.0"
"1573038419767","5107521.0"
"1573038419810","5146723.0"
"1573038419865","5132600.0"
"1573038419910","5200702.0"
"1573038419962","5211739.0"
"1573038420013","5224131.0"
"1573038420053","5301449.0"
"1573038420104","5335643.0"
"1573038420153","5411636.0"
"1573038420202","5428937.0"
"1573038420249","5402321.0"
"1573038420300","5337644.0"
"1573038420351","5235100.0"
"1573038420405","5169292.0"
"1573038420452","5195343.0"
"1573038420500","5295038.0"
"1573038420549","5343252.0"
"1573038420595","5349392.0"
"1573038420645","5342957.0"
"1573038420691","5321679.0"
"1573038420750","5308663.0"
"1573038420790","5306447.0"
"1573038420846","5314271.0"
"1573038420897","5364384.0"
"1573038420944","5353892.0"
"1573038420996","5312463.0"
"1573038421042","5316963.0"
"1573038421089","5328022.0"
"1573038421136","5345942.0"
"1573038421191","5375601.0"
"1573038421236","5397142.0"
"1573038421281","5390821.0"
"1573038421329","5356978.0"
"1573038421379","5341974.0"
"1573038421436","5312032.0"
"1573038421477","5294665.0"
"1573038421533","5257453.0"
"1573038421575","5256809.0"
"1573038421629","5296916.0"
"1573038421679","5246000.0"
"1573038421723","5182047.0"
"1573038421776","5158255.0"
"1573038421820","5138718.0"
"1573038421870","5105598.0"
"1573038421920","5136083.0"
"1573038421970","5165289.0"
"1573038422016","5161230.0"
"1573038422067","5139565.0"
"1573038422116","5125160.0"
"1573038422166","5117098.0"
"1573038422212","5129004.0"
"1573038422270","5119585.0"
"1573038422310","5180338.0"
"1573038422367","5196395.0"
"1573038422416","5131786.0"
"1573038422466","5092234.0"
"1573038422513","5114770.0"
"1573038422564","5155712.0"
"1573038422610","5207667.0"
"1573038422655","5208901.0"
"1573038422705","5214644.0"
"1573038422754","5169879.0"
"1573038422805","5162428.0"
"1573038422850","5133381.0"
"1573038422902","5114034.0"
"1573038422957","5134693.0"
"1573038423005","5050715.0"
"1573038423053","5014430.0"
"1573038423103","4927036.0"
"1573038423147","4840244.0"
"1573038423198","4813309.0"
"1573038423248","4821057.0"
"1573038423296","4855836.0"
"1573038423351","4873577.0"
"1573038423399","4909047.0"
"1573038423447","4890051.0"
"1573038423498","4871100.0"
"1573038423545","4832849.0"
"1573038423592","4823419.0"
"1573038423636","4816950.0"
"1573038423691","4855237.0"
"1573038423738","4865084.0"
"1573038423788","4894811.0"
"1573038423834","4809478.0"
"1573038423890","4700387.0"
"1573038423942","4649266.0"
"1573038423987","4678530.0"
"1573038424034","4712801.0"
"1573038424086","4768794.0"
"1573038424136","4810223.0"
"1573038424181","4750104.0"
"1573038424229","4677682.0"
"1573038424274","4633707.0"
"1573038424329","4626086.0"
"1573038424377","4633199.0"
"1573038424429","4654490.0"
"1573038424479","4677873.0"
"1573038424524","4687179.0"
"1573038424573","4640154.0"
"1573038424624","4539383.0"
"1573038424675","4475093.0"
"1573038424721","4463004.0"
"1573038424768","4487259.0"
"1573038424815","4509872.0"
"1573038424869","4632679.0"
"1573038424917","4620773.0"
"1573038424969","4464983.0"
"1573038425008","4357883.0"
"1573038425057","4323204.0"
"1573038425116","4331085.0"
"1573038425161","4335699.0"
"1573038425214","4378112.0"
"1573038425256","4439915.0"
"1573038425311","4526561.0"
"1573038425358","4459251.0"
"1573038425411","4346258.0"
"1573038425455","4294020.0"
"1573038425508","4326020.0"
"1573038425558","4363060.0"
"1573038425604","4441577.0"
"1573038425650","4608889.0"
"1573038425702","4692313.0"
"1573038425753","4711025.0"
"1573038425796","4702919.0"
"1573038425848","4684340.0"
"1573038425897","4657011.0"
"1573038425948","4639441.0"
"1573038425998","4627646.0"
"1573038426048","4709556.0"
"1573038426097","4769698.0"
"1573038426140","4668353.0"
"1573038426196","4599052.0"
"1573038426237","4614802.0"
"1573038426294","4647785.0"
"1573038426333","4730010.0"
"1573038426393","4836660.0"
"1573038426437","4979921.0"
"1573038426491","5042178.0"
"1573038426538","5046066.0"
"1573038426586","5046294.0"
"1573038426635","5037179.0"
"1573038426683","5028337.0"
"1573038426735","5032962.0"
"1573038426828","5072107.0"
"1573038426834","5142438.0"
"1573038426925","5170163.0"
"1573038426928","5121044.0"
"1573038426994","5072469.0"
"1573038427020","5053202.0"
"1573038427068","5076471.0"
"1573038427117","5106243.0"
"1573038427166","5199709.0"
"1573038427215","5245141.0"
"1573038427265","5234149.0"
"1573038427314","5201381.0"
"1573038427363","5177478.0"
"1573038427415","5155271.0"
"1573038427463","5167924.0"
"1573038427510","5179739.0"
"1573038427560","5219541.0"
"1573038427608","5256819.0"
"1573038427659","5224675.0"
"1573038427708","5185269.0"
"1573038427757","5189904.0"
"1573038427807","5205950.0"
"1573038427856","5216341.0"
"1573038427905","5271417.0"
"1573038427955","5347740.0"
"1573038428002","5317833.0"
"1573038428051","5301156.0"
"1573038428101","5287113.0"
"1573038428150","5271747.0"
"1573038428198","5290278.0"
"1573038428247","5318784.0"
"1573038428298","5342008.0"
"1573038428348","5362779.0"
"1573038428397","5339148.0"
"1573038428444","5306595.0"
"1573038428497","5322979.0"
"1573038428544","5349459.0"
"1573038428592","5360314.0"
"1573038428641","5424505.0"
"1573038428690","5483934.0"
"1573038428738","5489385.0"
"1573038428789","5466262.0"
"1573038428839","5433098.0"
"1573038428888","5409794.0"
"1573038428936","5397073.0"
"1573038428984","5407114.0"
"1573038429033","5447627.0"
"1573038429083","5477365.0"
"1573038429131","5441410.0"
"1573038429180","5391725.0"
"1573038429230","5364904.0"
"1573038429279","5359433.0"
"1573038429329","5357047.0"
"1573038429379","5401687.0"
"1573038429427","5428360.0"
"1573038429479","5431787.0"
"1573038429524","5409026.0"
"1573038429573","5392572.0"
"1573038429622","5369461.0"
"1573038429669","5363616.0"
"1573038429725","5347978.0"
"1573038429774","5329875.0"
"1573038429819","5317132.0"
"1573038429867","5267336.0"
"1573038429922","5199516.0"
"1573038429971","5145480.0"
"1573038430022","5139657.0"
"1573038430064","5135607.0"
"1573038430114","5117133.0"
"1573038430169","5120570.0"
"1573038430216","5099312.0"
"1573038430261","5100172.0"
"1573038430314","5097717.0"
"1573038430358","5065006.0"
"1573038430408","5038965.0"
"1573038430456","5066770.0"
"1573038430508","5148657.0"
"1573038430558","5141455.0"
"1573038430604","5083991.0"
"1573038430654","5058958.0"
"1573038430708","5044553.0"
"1573038430753","5042811.0"
"1573038430802","5052942.0"
"1573038430856","5118557.0"
"1573038430906","5148407.0"
"1573038430955","5126946.0"
"1573038430998","5123464.0"
"1573038431047","5104707.0"
"1573038431104","4984691.0"
"1573038431147","4900171.0"
"1573038431199","4855801.0"
"1573038431244","4919621.0"
"1573038431292","4895038.0"
"1573038431348","4823452.0"
"1573038431396","4778292.0"
"1573038431441","4724675.0"
"1573038431490","4695649.0"
"1573038431545","4694834.0"
"1573038431594","4738468.0"
"1573038431640","4774018.0"
"1573038431686","4756945.0"
"1573038431734","4761502.0"
"1573038431783","4750421.0"
"1573038431833","4728236.0"
"1573038431884","4742200.0"
"1573038431931","4736093.0"
"1573038431979","4811682.0"
"1573038432034","4800715.0"
"1573038432084","4750906.0"
"1573038432133","4712846.0"
"1573038432180","4698158.0"
"1573038432224","4680283.0"
"1573038432280","4694156.0"
"1573038432330","4720977.0"
"1573038432378","4743149.0"
"1573038432423","4721135.0"
"1573038432469","4713175.0"
"1573038432526","4703134.0"
"1573038432574","4668476.0"
"1573038432627","4590707.0"
"1573038432667","4578744.0"
"1573038432715","4625397.0"
"1573038432770","4611988.0"
"1573038432813","4549380.0"
"1573038432865","4543703.0"
"1573038432913","4606854.0"
"1573038432964","4632431.0"
"1573038433012","4660224.0"
"1573038433064","4660890.0"
"1573038433113","4653824.0"
"1573038433166","4633719.0"
"1573038433212","4630294.0"
"1573038433256","4609489.0"
"1573038433310","4587824.0"
"1573038433354","4486095.0"
"1573038433409","4409602.0"
"1573038433450","4400544.0"
"1573038433500","4352071.0"
"1573038433549","4307092.0"
"1573038433602","4299956.0"
"1573038433649","4320355.0"
"1573038433709","4351979.0"
"1573038433752","4433052.0"
"1573038433802","4568771.0"
"1573038433846","4688729.0"
"1573038433897","4723035.0"
"1573038433949","4715595.0"
"1573038433998","4739429.0"
"1573038434045","4763786.0"
"1573038434091","4794055.0"
"1573038434141","4858969.0"
"1573038434196","4901052.0"
"1573038434247","4891217.0"
"1573038434288","4831695.0"
"1573038434335","4832906.0"
"1573038434392","4891940.0"
"1573038434440","4949189.0"
"1573038434486","5019857.0"
"1573038434533","5091805.0"
"1573038434590","5119937.0"
"1573038434631","5107510.0"
"1573038434687","5071666.0"
"1573038434729","5033618.0"
"1573038434781","5046542.0"
"1573038434828","5041759.0"
"1573038434883","5046168.0"
"1573038434925","5025080.0"
"1573038434979","5007238.0"
"1573038435025","4912213.0"
"1573038435076","4875363.0"
"1573038435127","4896631.0"
"1573038435176","4903992.0"
"1573038435227","4913976.0"
"1573038435269","4987643.0"
"1573038435324","5043840.0"
"1573038435373","5092924.0"
"1573038435422","5075352.0"
"1573038435467","5054388.0"
"1573038435514","5060937.0"
"1573038435572","5056491.0"
"1573038435619","5077105.0"
"1573038435665","5102049.0"
"1573038435712","5115402.0"
"1573038435765","5071825.0"
"1573038435815","5032974.0"
"1573038435865","5038210.0"
"1573038435909","5081266.0"
"1573038435958","5120060.0"
"1573038436010","5191454.0"
"1573038436060","5263762.0"
"1573038436108","5274607.0"
"1573038436153","5256559.0"
"1573038436208","5246181.0"
"1573038436249","5245141.0"
"1573038436300","5238513.0"
"1573038436350","5215053.0"
"1573038436398","5222830.0"
"1573038436447","5225285.0"
"1573038436497","5205508.0"
"1573038436547","5184512.0"
"1573038436596","5160777.0"
"1573038436645","5151924.0"
"1573038436691","5146022.0"
"1573038436744","5155486.0"
"1573038436789","5095084.0"
"1573038436839","5100986.0"
"1573038436889","5099912.0"
"1573038436936","5072820.0"
"1573038436987","5053348.0"
"1573038437038","5056154.0"
"1573038437089","5063537.0"
"1573038437133","5088050.0"
"1573038437187","5106673.0"
"1573038437236","5058041.0"
"1573038437286","5000295.0"
"1573038437331","4984612.0"
"1573038437382","4979252.0"
"1573038437433","4966217.0"
"1573038437481","4953246.0"
"1573038437528","4963039.0"
"1573038437581","4963638.0"
"1573038437627","4934432.0"
"1573038437679","4924629.0"
"1573038437731","4911693.0"
"1573038437772","4937372.0"
"1573038437825","4969449.0"
"1573038437871","5022051.0"
"1573038437924","5081797.0"
"1573038437968","5094698.0"
"1573038438022","4963638.0"
"1573038438070","4951235.0"
"1573038438114","4975420.0"
"1573038438173","5015436.0"
"1573038438219","5086037.0"
"1573038438271","5075783.0"
"1573038438312","5072119.0"
"1573038438365","5033222.0"
"1573038438417","5050589.0"
"1573038438464","5049415.0"
"1573038438507","5051597.0"
"1573038438557","5079954.0"
"1573038438611","5151144.0"
"1573038438655","5237371.0"
"1573038438713","5138322.0"
"1573038438753","5061670.0"
"1573038438803","5081016.0"
"1573038438856","5092392.0"
"1573038438906","5119360.0"
"1573038438950","5141623.0"
"1573038439002","5243591.0"
"1573038439047","5297627.0"
"1573038439102","5299234.0"
"1573038439149","5301369.0"
"1573038439200","5312134.0"
"1573038439249","5319009.0"
"1573038439292","5329729.0"
"1573038439348","5348465.0"
"1573038439395","5368003.0"
"1573038439445","5370435.0"
"1573038439489","5298883.0"
"1573038439537","5269270.0"
"1573038439590","5271950.0"
"1573038439637","5272299.0"
"1573038439693","5292619.0"
"1573038439733","5351507.0"
"1573038439786","5358155.0"
"1573038439832","5356277.0"
"1573038439889","5349459.0"
"1573038439931","5339215.0"
"1573038439980","5320535.0"
"1573038440031","5331549.0"
"1573038440083","5387259.0"
"1573038440135","5429038.0"
"1573038440176","5419654.0"
"1573038440228","5358063.0"
"1573038440279","5307138.0"
"1573038440332","5336852.0"
"1573038440372","5360359.0"
"1573038440425","5392449.0"
"1573038440469","5430215.0"
"1573038440526","5427569.0"
"1573038440575","5409625.0"
"1573038440626","5377930.0"
"1573038440670","5330442.0"
"1573038440717","5310348.0"
"1573038440764","5295118.0"
"1573038440814","5309206.0"
"1573038440863","5348102.0"
"1573038440911","5318501.0"
"1573038440962","5189170.0"
"1573038441011","5143828.0"
"1573038441060","5170287.0"
"1573038441109","5205926.0"
"1573038441157","5218986.0"
"1573038441210","5272864.0"
"1573038441256","5287011.0"
"1573038441307","5289384.0"
"1573038441354","5275658.0"
"1573038441403","5231085.0"
"1573038441451","5219541.0"
"1573038441501","5195694.0"
"1573038441551","5212202.0"
"1573038441600","5243217.0"
"1573038441648","5148917.0"
"1573038441698","5006978.0"
"1573038441750","4929999.0"
"1573038441796","4916861.0"
"1573038441847","4915346.0"
"1573038441893","4925364.0"
"1573038441944","4972570.0"
"1573038441992","4972956.0"
"1573038442041","4972458.0"
"1573038442091","4957905.0"
"1573038442141","4922707.0"
"1573038442189","4910234.0"
"1573038442238","4893082.0"
"1573038442290","4956617.0"
"1573038442335","4951111.0"
"1573038442387","4857126.0"
"1573038442434","4712655.0"
"1573038442485","4639294.0"
"1573038442532","4597818.0"
"1573038442582","4586105.0"
"1573038442632","4591861.0"
"1573038442680","4634433.0"
"1573038442737","4621801.0"
"1573038442782","4608188.0"
"1573038442832","4557588.0"
"1573038442880","4475477.0"
"1573038442930","4453924.0"
"1573038442979","4485268.0"
"1573038443028","4573588.0"
"1573038443075","4545162.0"
"1573038443127","4546338.0"
"1573038443177","4490006.0"
"1573038443226","4482045.0"
"1573038443276","4512438.0"
"1573038443324","4547831.0"
"1573038443373","4620570.0"
"1573038443422","4647050.0"
"1573038443471","4653836.0"
"1573038443520","4681990.0"
"1573038443568","4669462.0"
"1573038443613","4624449.0"
"1573038443669","4617031.0"
"1573038443716","4634172.0"
"1573038443765","4645343.0"
"1573038443815","4552738.0"
"1573038443864","4484715.0"
"1573038443912","4401686.0"
"1573038443961","4360992.0"
"1573038444011","4362689.0"
"1573038444060","4406129.0"
"1573038444108","4440945.0"
"1573038444153","4443806.0"
"1573038444207","4433562.0"
"1573038444255","4430949.0"
"1573038444304","4361081.0"
"1573038444355","4295208.0"
"1573038444403","4278666.0"
"1573038444445","4384195.0"
"1573038444500","4377443.0"
"1573038444550","4296689.0"
"1573038444599","4261806.0"
"1573038444645","4259567.0"
"1573038444695","4258799.0"
"1573038444746","4252919.0"
"1573038444796","4340933.0"
"1573038444840","4370773.0"
"1573038444893","4337032.0"
"1573038444944","4339134.0"
"1573038444992","4348034.0"
"1573038445038","4311852.0"
"1573038445091","4246101.0"
"1573038445135","4207282.0"
"1573038445189","4258007.0"
"1573038445239","4281841.0"
"1573038445285","4259783.0"
"1573038445339","4227535.0"
"1573038445384","4250284.0"
"1573038445433","4222921.0"
"1573038445482","4218071.0"
"1573038445531","4231661.0"
"1573038445573","4237630.0"
"1573038445624","4232543.0"
"1573038445675","4230395.0"
"1573038445729","4256843.0"
"1573038445779","4281153.0"
"1573038445825","4296699.0"
"1573038445873","4327726.0"
"1573038445922","4374300.0"
"1573038445972","4406107.0"
"1573038446022","4332318.0"
"1573038446071","4284442.0"
"1573038446118","4268793.0"
"1573038446168","4260801.0"
"1573038446217","4206876.0"
"1573038446268","4210799.0"
"1573038446315","4250691.0"
"1573038446364","4276957.0"
"1573038446414","4315855.0"
"1573038446458","4351278.0"
"1573038446507","4370072.0"
"1573038446554","4353564.0"
"1573038446607","4288219.0"
"1573038446655","4236149.0"
"1573038446705","4259917.0"
"1573038446755","4278552.0"
"1573038446800","4228924.0"
"1573038446848","4207091.0"
"1573038446897","4210777.0"
"1573038446950","4190346.0"
"1573038446995","4181684.0"
"1573038447051","4225848.0"
"1573038447095","4247694.0"
"1573038447145","4222819.0"
"1573038447198","4207047.0"
"1573038447249","4220117.0"
"1573038447296","4211998.0"
"1573038447346","4163931.0"
"1573038447394","4149516.0"
"1573038447442","4194415.0"
"1573038447492","4275193.0"
"1573038447535","4289214.0"
"1573038447592","4235178.0"
"1573038447636","4213910.0"
"1573038447688","4167889.0"
"1573038447737","4125114.0"
"1573038447783","4131705.0"
"1573038447831","4178234.0"
"1573038447881","4214643.0"
"1573038447930","4228914.0"
"1573038447978","4231547.0"
"1573038448028","4239689.0"
"1573038448079","4220513.0"
"1573038448126","4193286.0"
"1573038448177","4193318.0"
"1573038448224","4256875.0"
"1573038448272","4320117.0"
"1573038448322","4337202.0"
"1573038448371","4324945.0"
"1573038448420","4316283.0"
"1573038448469","4292075.0"
"1573038448518","4303835.0"
"1573038448569","4387293.0"
"1573038448615","4481107.0"
"1573038448666","4512203.0"
"1573038448721","4519698.0"
"1573038448767","4537134.0"
"1573038448816","4529897.0"
"1573038448866","4449968.0"
"1573038448915","4417731.0"
"1573038448965","4465627.0"
"1573038449013","4509884.0"
"1573038449061","4475522.0"
"1573038449112","4444066.0"
"1573038449155","4480079.0"
"1573038449211","4520218.0"
"1573038449261","4584273.0"
"1573038449308","4663220.0"
"1573038449357","4835506.0"
"1573038449407","4886501.0"
"1573038449455","4882249.0"
"1573038449506","4858300.0"
"1573038449554","4839430.0"
"1573038449601","4831571.0"
"1573038449649","4819925.0"
"1573038449700","4868354.0"
"1573038449750","4888943.0"
"1573038449801","4946598.0"
"1573038449843","4905803.0"
"1573038449897","4924097.0"
"1573038449947","4949380.0"
"1573038449995","4974754.0"
"1573038450041","5000206.0"
"1573038450087","5030316.0"
"1573038450139","5005994.0"
"1573038450188","5044632.0"
"1573038450241","5038277.0"
"1573038450286","4985642.0"
"1573038450335","4990673.0"
"1573038450388","4969642.0"
"1573038450436","4885822.0"
"1573038450487","4856470.0"
"1573038450535","4875296.0"
"1573038450583","4839814.0"
"1573038450634","4800544.0"
"1573038450684","4803496.0"
"1573038450731","4747615.0"
"1573038450779","4728246.0"
"1573038450825","4756301.0"
"1573038450877","4759489.0"
"1573038450927","4758357.0"
"1573038450976","4762778.0"
"1573038451021","4803506.0"
"1573038451074","4798780.0"
"1573038451123","4747820.0"
"1573038451167","4706391.0"
"1573038451225","4770320.0"
"1573038451272","4795570.0"
"1573038451318","4735110.0"
"1573038451370","4691397.0"
"1573038451416","4717064.0"
"1573038451466","4737859.0"
"1573038451515","4765639.0"
"1573038451558","4822434.0"
"1573038451608","4889260.0"
"1573038451660","4902105.0"
"1573038451705","4896000.0"
"1573038451754","4884772.0"
"1573038451804","4893478.0"
"1573038451851","4893285.0"
"1573038451909","4899086.0"
"1573038451956","4922142.0"
"1573038452004","4918625.0"
"1573038452055","4856401.0"
"1573038452100","4796021.0"
"1573038452149","4736717.0"
"1573038452205","4644823.0"
"1573038452252","4566454.0"
"1573038452300","4569744.0"
"1573038452349","4525409.0"
"1573038452398","4481775.0"
"1573038452449","4461490.0"
"1573038452496","4487281.0"
"1573038452539","4502952.0"
"1573038452594","4473374.0"
"1573038452642","4439826.0"
"1573038452693","4514962.0"
"1573038452742","4546507.0"
"1573038452791","4478134.0"
"1573038452840","4381074.0"
"1573038452889","4338582.0"
"1573038452937","4335744.0"
"1573038452988","4310007.0"
"1573038453035","4333255.0"
"1573038453084","4345626.0"
"1573038453134","4350307.0"
"1573038453186","4373136.0"
"1573038453233","4444562.0"
"1573038453281","4484341.0"
"1573038453330","4493431.0"
"1573038453379","4557374.0"
"1573038453429","4671372.0"
"1573038453477","4802748.0"
"1573038453523","4831390.0"
"1573038453575","4829299.0"
"1573038453627","4841736.0"
"1573038453673","4836400.0"
"1573038453723","4823893.0"
"1573038453772","4814711.0"
"1573038453819","4909364.0"
"1573038453870","4927388.0"
"1573038453917","4925184.0"
"1573038453968","4927071.0"
"1573038454016","4920817.0"
"1573038454064","4926336.0"
"1573038454115","4956243.0"
"1573038454166","4963468.0"
"1573038454213","4975681.0"
"1573038454262","4994123.0"
"1573038454312","4935596.0"
"1573038454360","4876631.0"
"1573038454409","4856435.0"
"1573038454458","4835256.0"
"1573038454508","4776246.0"
"1573038454555","4759647.0"
"1573038454606","4768105.0"
"1573038454649","4784150.0"
"1573038454705","4776313.0"
"1573038454752","4797651.0"
"1573038454802","4809431.0"
"1573038454846","4776076.0"
"1573038454900","4758458.0"
"1573038454945","4781696.0"
"1573038454998","4799685.0"
"1573038455046","4745400.0"
"1573038455095","4705712.0"
"1573038455144","4692900.0"
"1573038455194","4697797.0"
"1573038455244","4731424.0"
"1573038455286","4746802.0"
"1573038455336","4723260.0"
"1573038455389","4740073.0"
"1573038455436","4741522.0"
"1573038455489","4734669.0"
"1573038455534","4735439.0"
"1573038455584","4770614.0"
"1573038455630","4775127.0"
"1573038455688","4823972.0"
"1573038455734","4813106.0"
"1573038455782","4720308.0"
"1573038455828","4702082.0"
"1573038455881","4721881.0"
"1573038455930","4761604.0"
"1573038455979","4742448.0"
"1573038456029","4680803.0"
"1573038456076","4640572.0"
"1573038456129","4678282.0"
"1573038456170","4681232.0"
"1573038456225","4652602.0"
"1573038456273","4645885.0"
"1573038456322","4631661.0"
"1573038456372","4625251.0"
"1573038456420","4590041.0"
"1573038456466","4513582.0"
"1573038456517","4411343.0"
"1573038456565","4381210.0"
"1573038456618","4382691.0"
"1573038456662","4396101.0"
"1573038456710","4373780.0"
"1573038456760","4343850.0"
"1573038456809","4325849.0"
"1573038456857","4321519.0"
"1573038456907","4337564.0"
"1573038456960","4383142.0"
"1573038457008","4440277.0"
"1573038457058","4539802.0"
"1573038457108","4611953.0"
"1573038457151","4737653.0"
"1573038457206","4813616.0"
"1573038457255","4826721.0"
"1573038457304","4874833.0"
"1573038457351","4929716.0"
"1573038457401","4996701.0"
"1573038457448","5053700.0"
"1573038457499","5158391.0"
"1573038457549","5208787.0"
"1573038457598","5188853.0"
"1573038457642","5175612.0"
"1573038457692","5161083.0"
"1573038457745","5158540.0"
"1573038457792","5208380.0"
"1573038457843","5252524.0"
"1573038457888","5334206.0"
"1573038457941","5370276.0"
"1573038457992","5369144.0"
"1573038458038","5355554.0"
"1573038458092","5364441.0"
"1573038458137","5386920.0"
"1573038458181","5404842.0"
"1573038458235","5457273.0"
"1573038458284","5462339.0"
"1573038458328","5428315.0"
"1573038458382","5415064.0"
"1573038458431","5397243.0"
"1573038458480","5398475.0"
"1573038458533","5408540.0"
"1573038458578","5433256.0"
"1573038458634","5459850.0"
"1573038458677","5433969.0"
"1573038458726","5399753.0"
"1573038458773","5385055.0"
"1573038458824","5376347.0"
"1573038458868","5372560.0"
"1573038458922","5397120.0"
"1573038458966","5390130.0"
"1573038459020","5395604.0"
"1573038459071","5388176.0"
"1573038459118","5389555.0"
"1573038459169","5373543.0"
"1573038459217","5370762.0"
"1573038459265","5402591.0"
"1573038459313","5435743.0"
"1573038459364","5464147.0"
"1573038459408","5469190.0"
"1573038459461","5450014.0"
"1573038459513","5447005.0"
"1573038459559","5447537.0"
"1573038459608","5460065.0"
"1573038459653","5482205.0"
"1573038459708","5525829.0"
"1573038459756","5562292.0"
"1573038459805","5565200.0"
"1573038459850","5561626.0"
"1573038459904","5559320.0"
"1573038459950","5555169.0"
"1573038460001","5569225.0"
"1573038460055","5589804.0"
"1573038460099","5615041.0"
"1573038460146","5606085.0"
"1573038460191","5586468.0"
"1573038460244","5584952.0"
"1573038460290","5588028.0"
"1573038460341","5599008.0"
"1573038460390","5596633.0"
"1573038460443","5639486.0"
"1573038460489","5678157.0"
"1573038460541","5697210.0"
"1573038460594","5692686.0"
"1573038460634","5699900.0"
"1573038460682","5693421.0"
"1573038460732","5685743.0"
"1573038460783","5718670.0"
"1573038460831","5734863.0"
"1573038460881","5740550.0"
"1573038460935","5715289.0"
"1573038460982","5695232.0"
"1573038461034","5675387.0"
"1573038461080","5670412.0"
"1573038461130","5677547.0"
"1573038461174","5698318.0"
"1573038461228","5703440.0"
"1573038461276","5704921.0"
"1573038461327","5680904.0"
"1573038461373","5671068.0"
"1573038461424","5656584.0"
"1573038461475","5654028.0"
"1573038461522","5665300.0"
"1573038461576","5696633.0"
"1573038461620","5708359.0"
"1573038461665","5670016.0"
"1573038461714","5623714.0"
"1573038461765","5604051.0"
"1573038461813","5602342.0"
"1573038461863","5582159.0"
"1573038461909","5546475.0"
"1573038461964","5445400.0"
"1573038462013","5296193.0"
"1573038462062","5230090.0"
"1573038462113","5212259.0"
"1573038462157","5202602.0"
"1573038462209","5213389.0"
"1573038462258","5222560.0"
"1573038462309","5230837.0"
"1573038462357","5220559.0"
"1573038462408","5120310.0"
"1573038462451","5060087.0"
"1573038462505","5031718.0"
"1573038462557","5029162.0"
"1573038462603","5037846.0"
"1573038462648","5117834.0"
"1573038462703","5131154.0"
"1573038462750","5138696.0"
"1573038462799","5146904.0"
"1573038462847","5145173.0"
"1573038462895","5136298.0"
"1573038462947","5149641.0"
"1573038462993","5162644.0"
"1573038463044","5205859.0"
"1573038463093","5288911.0"
"1573038463141","5283482.0"
"1573038463187","5282035.0"
"1573038463241","5293976.0"
"1573038463289","5291928.0"
"1573038463338","5332035.0"
"1573038463388","5383777.0"
"1573038463430","5453541.0"
"1573038463487","5527037.0"
"1573038463535","5554356.0"
"1573038463583","5547706.0"
"1573038463632","5520887.0"
"1573038463683","5510146.0"
"1573038463734","5518522.0"
"1573038463782","5540402.0"
"1573038463830","5553903.0"
"1573038463879","5533188.0"
"1573038463929","5441308.0"
"1573038463973","5383584.0"
"1573038464027","5374967.0"
"1573038464076","5388231.0"
"1573038464124","5390539.0"
"1573038464177","5462009.0"
"1573038464221","5486071.0"
"1573038464271","5470807.0"
"1573038464320","5460337.0"
"1573038464369","5452456.0"
"1573038464417","5451235.0"
"1573038464469","5477252.0"
"1573038464514","5499617.0"
"1573038464567","5540957.0"
"1573038464616","5482522.0"
"1573038464664","5377942.0"
"1573038464714","5303304.0"
"1573038464761","5306368.0"
"1573038464812","5336478.0"
"1573038464855","5341986.0"
"1573038464909","5389848.0"
"1573038464958","5397107.0"
"1573038465011","5361491.0"
"1573038465056","5333674.0"
"1573038465106","5325714.0"
"1573038465150","5303123.0"
"1573038465202","5239509.0"
"1573038465252","5213366.0"
"1573038465297","5209478.0"
"1573038465350","5079389.0"
"1573038465396","4966036.0"
"1573038465449","4936795.0"
"1573038465494","4981697.0"
"1573038465547","5012439.0"
"1573038465597","5052716.0"
"1573038465640","5068127.0"
"1573038465695","5030056.0"
"1573038465737","4975567.0"
"1573038465791","4960008.0"
"1573038465841","4906853.0"
"1573038465890","4900307.0"
"1573038465934","4894598.0"
"1573038465988","4943569.0"
"1573038466038","5000466.0"
"1573038466087","5027049.0"
"1573038466136","5010665.0"
"1573038466184","5020862.0"
"1573038466233","5036285.0"
"1573038466282","5057204.0"
"1573038466332","5033890.0"
"1573038466375","5039215.0"
"1573038466424","4978665.0"
"1573038466476","4927150.0"
"1573038466524","4905000.0"
"1573038466576","4899256.0"
"1573038466622","4923836.0"
"1573038466668","4999923.0"
"1573038466718","5071904.0"
"1573038466769","5109138.0"
"1573038466814","5090696.0"
"1573038466868","5089509.0"
"1573038466914","5100397.0"
"1573038466970","5130973.0"
"1573038467019","5175365.0"
"1573038467067","5194302.0"
"1573038467115","5257986.0"
"1573038467165","5305758.0"
"1573038467214","5316510.0"
"1573038467263","5308708.0"
"1573038467312","5313513.0"
"1573038467359","5312067.0"
"1573038467411","5309761.0"
"1573038467457","5338447.0"
"1573038467508","5370546.0"
"1573038467559","5348849.0"
"1573038467606","5292527.0"
"1573038467651","5250669.0"
"1573038467706","5223182.0"
"1573038467753","5210372.0"
"1573038467802","5184512.0"
"1573038467851","5174731.0"
"1573038467895","5075228.0"
"1573038467950","4895197.0"
"1573038467999","4823883.0"
"1573038468047","4776675.0"
"1573038468096","4747887.0"
"1573038468141","4736457.0"
"1573038468190","4724120.0"
"1573038468244","4733346.0"
"1573038468293","4592528.0"
"1573038468337","4451573.0"
"1573038468391","4362721.0"
"1573038468437","4357566.0"
"1573038468489","4335404.0"
"1573038468537","4384534.0"
"1573038468589","4576233.0"
"1573038468631","4675646.0"
"1573038468685","4725262.0"
"1573038468727","4761376.0"
"1573038468779","4772910.0"
"1573038468828","4779637.0"
"1573038468879","4805193.0"
"1573038468925","4831288.0"
"1573038468979","4868421.0"
"1573038469024","4849550.0"
"1573038469073","4762473.0"
"1573038469122","4667359.0"
"1573038469171","4670163.0"
"1573038469219","4739317.0"
"1573038469269","4800455.0"
"1573038469318","4956186.0"
"1573038469368","5046735.0"
"1573038469418","5065878.0"
"1573038469465","5056424.0"
"1573038469514","5037756.0"
"1573038469564","5039339.0"
"1573038469610","5053734.0"
"1573038469661","5066928.0"
"1573038469711","5107612.0"
"1573038469760","5099617.0"
"1573038469813","5034036.0"
"1573038469862","4975646.0"
"1573038469912","4926370.0"
"1573038469960","4920252.0"
"1573038470008","5002467.0"
"1573038470057","5121666.0"
"1573038470109","5176212.0"
"1573038470151","5138988.0"
"1573038470200","5132442.0"
"1573038470248","5134500.0"
"1573038470298","5085710.0"
"1573038470348","5041692.0"
"1573038470402","5062710.0"
"1573038470446","5106141.0"
"1573038470498","5082498.0"
"1573038470548","4975928.0"
"1573038470596","4925419.0"
"1573038470643","4920297.0"
"1573038470689","4950692.0"
"1573038470738","4968240.0"
"1573038470787","5013187.0"
"1573038470839","5077648.0"
"1573038470888","5054705.0"
"1573038470938","5031424.0"
"1573038470987","4986977.0"
"1573038471039","4976991.0"
"1573038471089","5004208.0"
"1573038471136","5046452.0"
"1573038471186","5124754.0"
"1573038471235","5129197.0"
"1573038471282","5038096.0"
"1573038471332","4980859.0"
"1573038471385","4981073.0"
"1573038471432","5002965.0"
"1573038471481","5003326.0"
"1573038471524","5012904.0"
"1573038471571","5010710.0"
"1573038471622","4883777.0"
"1573038471669","4822751.0"
"1573038471719","4801552.0"
"1573038471768","4774097.0"
"1573038471822","4770728.0"
