time,value,value2,value3
1583177301579,5712418.0,6451917.0,0.0
1583177301622,5711162.0,6438885.0,0.0
1583177301675,5698318.0,6398380.0,0.0
1583177301722,5690945.0,6388579.0,0.0
1583177301770,5689951.0,6389843.0,0.0
1583177301818,5695774.0,6377551.0,0.0
1583177301865,5723499.0,6374161.0,0.0
1583177301913,5749347.0,6391699.0,0.0
1583177301968,5767923.0,6434771.0,0.0
1583177302015,5783946.0,6475645.0,0.0
1583177302063,5774652.0,6454448.0,0.0
1583177302111,5739893.0,6407161.0,0.0
1583177302161,5693003.0,6345765.0,0.0
1583177302203,5667393.0,6328865.0,0.0
1583177302251,5664871.0,6387414.0,0.0
1583177302300,5931188.0,6402668.0,0.0
1583177302353,6364737.0,6207704.0,0.0
1583177302437,6963866.0,5843239.0,0.0
1583177302450,7093038.0,5587520.0,0.0
1583177302518,7080962.0,5506436.0,0.0
1583177302543,7621797.0,5402200.0,0.0
1583177302590,7951572.0,5376849.0,0.0
1583177302639,7812302.0,5344770.0,0.0
1583177302687,7780398.0,5318276.0,0.0
1583177302739,7805633.0,5341993.0,0.0
1583177302784,7822472.0,5325978.0,0.0
1583177302833,7959197.0,5284488.0,0.0
1583177302881,7997633.0,5081569.0,0.0
1583177302929,7970609.0,4921291.0,0.0
1583177302984,7935825.0,4847428.0,0.0
1583177303029,7973686.0,4887823.0,0.0
1583177303083,7993542.0,4924777.0,0.0
1583177303123,8017214.0,4989576.0,0.0
1583177303175,8173053.0,5127183.0,0.0
1583177303225,8015441.0,5048408.0,0.0
1583177303272,7891600.0,4937293.0,0.0
1583177303325,7659737.0,4717376.0,0.0
1583177303367,7554312.0,4575408.0,0.0
1583177303420,7480061.0,4565976.0,0.0
1583177303466,7396504.0,4503340.0,0.0
1583177303516,7465420.0,4689741.0,0.0
1583177303563,7441805.0,4652808.0,0.0
1583177303613,7384164.0,4809611.0,0.0
1583177303665,7236482.0,4928979.0,0.0
1583177303709,7190438.0,4880072.0,0.0
1583177303759,7082781.0,4912730.0,0.0
1583177303806,7108564.0,4930551.0,0.0
1583177303855,6742097.0,5091197.0,0.0
1583177303903,6620786.0,5291636.0,0.0
1583177303952,6586926.0,5169776.0,0.0
1583177304003,6592277.0,5128302.0,0.0
1583177304049,6619588.0,5099180.0,0.0
1583177304100,6671425.0,5120478.0,0.0
1583177304146,6653962.0,5101846.0,0.0
1583177304195,6603067.0,5070982.0,0.0
1583177304243,6520270.0,5052387.0,0.0
1583177304295,6502947.0,5026460.0,0.0
1583177304346,6449990.0,4978425.0,0.0
1583177304387,6442820.0,4943214.0,0.0
1583177304438,6446442.0,4932528.0,0.0
1583177304485,6434971.0,4925073.0,0.0
1583177304535,6416811.0,4902254.0,0.0
1583177304582,6418418.0,4877075.0,0.0
1583177304630,6417222.0,4860826.0,0.0
1583177304683,6391350.0,4824178.0,0.0
1583177304726,6376829.0,4794063.0,0.0
1583177304776,6372539.0,4773552.0,0.0
1583177304824,6370404.0,4763444.0,0.0
1583177304878,6368433.0,4759232.0,0.0
1583177304921,6375434.0,4760509.0,0.0
1583177304967,6378814.0,4759280.0,0.0
1583177305016,6359946.0,4751911.0,0.0
1583177305066,6352171.0,4745880.0,0.0
1583177305121,6414613.0,4755363.0,0.0
1583177305167,6423995.0,4766711.0,0.0
1583177305217,6371706.0,4767644.0,0.0
1583177305263,6300805.0,4796974.0,0.0
1583177305313,6325738.0,4844418.0,0.0
1583177305362,6293122.0,4839040.0,0.0
1583177305410,6304337.0,4876952.0,0.0
1583177305461,6313477.0,4936324.0,0.0
1583177305502,6336514.0,5005053.0,0.0
1583177305556,6357384.0,5082760.0,0.0
1583177305603,6376390.0,5138334.0,0.0
1583177305653,6417996.0,5228546.0,0.0
1583177305701,6458250.0,5298932.0,0.0
1583177305749,6489700.0,5368461.0,0.0
1583177305800,6530606.0,5442679.0,0.0
1583177305847,6560631.0,5483751.0,0.0
1583177305895,6597416.0,5520326.0,0.0
1583177305945,6631154.0,5544792.0,0.0
1583177305992,6658829.0,5556680.0,0.0
1583177306042,6686156.0,5562734.0,0.0
1583177306088,6705949.0,5587692.0,0.0
1583177306139,6731988.0,5606091.0,0.0
1583177306189,6759407.0,5628111.0,0.0
1583177306230,6777534.0,5647051.0,0.0
1583177306284,6807102.0,5659749.0,0.0
1583177306333,6831852.0,5655254.0,0.0
1583177306382,6820910.0,5641608.0,0.0
1583177306428,7118534.0,6300126.0,0.0
1583177306478,7054090.0,6310492.0,0.0
1583177306525,7385090.0,6776035.0,0.0
1583177306575,7311052.0,6741400.0,0.0
1583177306624,7297470.0,6703020.0,0.0
1583177306671,7313598.0,6717550.0,0.0
1583177306716,7278224.0,6732987.0,0.0
1583177306764,7186769.0,6712624.0,0.0
1583177306817,7185783.0,6708989.0,0.0
1583177306867,7137982.0,6682977.0,0.0
1583177306910,7069611.0,6680273.0,0.0
1583177306965,6941690.0,6749199.0,0.0
1583177307011,6833459.0,6857500.0,0.0
1583177307065,6645765.0,6899025.0,0.0
1583177307103,6617741.0,6892014.0,0.0
1583177307157,6627638.0,6916969.0,0.0
1583177307206,6641762.0,6923098.0,0.0
1583177307254,6664042.0,6940601.0,0.0
1583177307297,6694977.0,6935159.0,0.0
1583177307346,6730169.0,6950254.0,0.0
1583177307397,6731520.0,6941387.0,0.0
1583177307443,6696962.0,6930566.0,0.0
1583177307490,6648448.0,6999123.0,0.0
1583177307546,6720544.0,7257595.0,0.0
1583177307589,6643066.0,7208196.0,0.0
1583177307637,6614707.0,7162509.0,0.0
1583177307687,6626151.0,7133082.0,0.0
1583177307740,6681608.0,7127554.0,0.0
1583177307789,6735321.0,7130809.0,0.0
1583177307836,6751479.0,7106983.0,0.0
1583177307886,6783261.0,7097366.0,0.0
1583177307933,6805877.0,7093128.0,0.0
1583177307983,6823138.0,7089677.0,0.0
1583177308024,6828459.0,7080882.0,0.0
1583177308081,6848057.0,7075824.0,0.0
1583177308126,6851859.0,7074202.0,0.0
1583177308177,6861968.0,7075136.0,0.0
1583177308226,6871290.0,7063137.0,0.0
1583177308266,6870958.0,7068171.0,0.0
1583177308319,6876081.0,7062018.0,0.0
1583177308365,6871048.0,7061687.0,0.0
1583177308415,6859770.0,7049271.0,0.0
1583177308463,6866350.0,7056381.0,0.0
1583177308511,6858362.0,7052488.0,0.0
1583177308564,6862469.0,7057377.0,0.0
1583177308611,6882794.0,7078967.0,0.0
1583177308662,6908786.0,7102302.0,0.0
1583177308707,6934097.0,7135649.0,0.0
1583177308759,6947480.0,7160101.0,0.0
1583177308806,6932082.0,7164486.0,0.0
1583177308855,6935113.0,7239037.0,0.0
1583177308905,7007621.0,7697825.0,0.0
1583177308946,6658481.0,7997748.0,0.0
1583177309003,6178826.0,8911198.0,0.0
1583177309048,6004302.0,9191914.0,0.0
1583177309098,6034630.0,8782604.0,0.0
1583177309146,6014654.0,8668220.0,0.0
1583177309195,5956316.0,8456313.0,0.0
1583177309244,5889644.0,8353072.0,0.0
1583177309288,5889614.0,8324595.0,0.0
1583177309342,5918638.0,8482313.0,0.0
1583177309391,5903983.0,8582467.0,0.0
1583177309433,6043558.0,8893406.0,0.0
1583177309486,6366962.0,9410486.0,0.0
1583177309534,6517207.0,9741915.0,0.0
1583177309583,6599857.0,1.003206E7,0.0
1583177309629,6694794.0,1.023776E7,0.0
1583177309681,6772106.0,1.0394867E7,0.0
1583177309727,6775957.0,1.1168628E7,0.0
1583177309772,7017548.0,1.0354183E7,0.0
1583177309824,6611072.0,9635068.0,0.0
1583177309873,6506689.0,9386563.0,0.0
1583177309917,6500052.0,9118260.0,0.0
1583177309968,6527030.0,8900992.0,0.0
1583177310015,6574257.0,8827580.0,0.0
1583177310071,6593004.0,8885176.0,0.0
1583177310115,6618240.0,9072207.0,0.0
1583177310165,6552644.0,9050439.0,0.0
1583177310208,6693098.0,9037556.0,0.0
1583177310262,6796146.0,9065125.0,0.0
1583177310309,6805223.0,9073404.0,0.0
1583177310359,6852861.0,9077801.0,0.0
1583177310407,6755344.0,8986872.0,0.0
1583177310456,6735626.0,8971203.0,0.0
1583177310505,6674486.0,8852762.0,0.0
1583177310546,6665422.0,8883983.0,0.0
1583177310602,6683549.0,8903341.0,0.0
1583177310649,6680910.0,8915030.0,0.0
1583177310698,6683261.0,8904745.0,0.0
1583177310746,6696023.0,8905080.0,0.0
1583177310793,6707012.0,8901413.0,0.0
1583177310845,6710587.0,8902942.0,0.0
1583177310892,6706753.0,8897705.0,0.0
1583177310941,6714210.0,8907132.0,0.0
1583177310988,6715103.0,8882115.0,0.0
1583177311037,6689506.0,8855360.0,0.0
1583177311086,6662361.0,8832587.0,0.0
1583177311134,6590292.0,8820980.0,0.0
1583177311183,6509235.0,8731034.0,0.0
1583177311230,6455734.0,8695608.0,0.0
1583177311276,6431256.0,8665103.0,0.0
1583177311327,6472148.0,8666883.0,0.0
1583177311373,6483804.0,8645135.0,0.0
1583177311426,6439334.0,8616809.0,0.0
1583177311468,6392260.0,8553054.0,0.0
1583177311518,6373041.0,8508596.0,0.0
1583177311571,6379438.0,8487664.0,0.0
1583177311620,6377981.0,8453805.0,0.0
1583177311668,6364296.0,8384037.0,0.0
1583177311715,6367025.0,8352926.0,0.0
1583177311765,6363781.0,8333921.0,0.0
1583177311809,6357931.0,8325082.0,0.0
1583177311863,6349578.0,8307606.0,0.0
1583177311910,6342879.0,8291979.0,0.0
1583177311954,6330073.0,8287220.0,0.0
1583177312007,6317826.0,8285293.0,0.0
1583177312051,6307840.0,8278610.0,0.0
1583177312106,6307627.0,8281818.0,0.0
1583177312151,6313689.0,8290887.0,0.0
1583177312202,6315067.0,8282112.0,0.0
1583177312249,6301094.0,8261974.0,0.0
1583177312294,6292153.0,8253635.0,0.0
1583177312346,6287515.0,8259271.0,0.0
1583177312389,6271174.0,8266104.0,0.0
1583177312444,6261476.0,8274296.0,0.0
1583177312492,6256928.0,8275508.0,0.0
1583177312542,6254714.0,8277018.0,0.0
1583177312589,6261277.0,8281502.0,0.0
1583177312638,6251653.0,8285440.0,0.0
1583177312686,6259627.0,8289170.0,0.0
1583177312730,6269249.0,8289046.0,0.0
1583177312784,6267612.0,8289528.0,0.0
1583177312831,6262323.0,8254768.0,0.0
1583177312881,6246470.0,8222211.0,0.0
1583177312928,6241013.0,8208090.0,0.0
1583177312978,6235209.0,8202262.0,0.0
1583177313022,6232633.0,8196860.0,0.0
1583177313075,6228874.0,8192858.0,0.0
1583177313123,6226570.0,8182550.0,0.0
1583177313171,6200243.0,8163422.0,0.0
1583177313220,6137875.0,8121246.0,0.0
1583177313268,6083676.0,8077854.0,0.0
1583177313316,6085858.0,8045025.0,0.0
1583177313361,6100561.0,8024512.0,0.0
1583177313412,6114020.0,7982904.0,0.0
1583177313457,6127752.0,7926144.0,0.0
1583177313505,6119884.0,7883907.0,0.0
1583177313556,6081721.0,7878336.0,0.0
1583177313605,6044149.0,7901967.0,0.0
1583177313657,6033903.0,7962142.0,0.0
1583177313705,6054212.0,7998595.0,0.0
1583177313752,6082647.0,8021285.0,0.0
1583177313802,6090738.0,8045168.0,0.0
1583177313851,6090466.0,8060882.0,0.0
1583177313901,6088148.0,8072952.0,0.0
1583177313947,6087388.0,8075719.0,0.0
1583177313993,6074961.0,8070272.0,0.0
1583177314044,6089406.0,8054851.0,0.0
1583177314093,6114459.0,8104399.0,0.0
1583177314142,6145331.0,8138383.0,0.0
1583177314185,6126357.0,8167171.0,0.0
1583177314235,6122596.0,8182610.0,0.0
1583177314287,6150865.0,8125982.0,0.0
1583177314333,6223310.0,8077330.0,0.0
1583177314385,6271795.0,8044792.0,0.0
1583177314432,6311399.0,7994300.0,0.0
1583177314477,6364857.0,7966080.0,0.0
1583177314525,6415084.0,7939659.0,0.0
1583177314573,6437667.0,7897524.0,0.0
1583177314623,6465843.0,7825600.0,0.0
1583177314674,6519162.0,7825035.0,0.0
1583177314724,6517133.0,7830083.0,0.0
1583177314771,6522937.0,7859290.0,0.0
1583177314821,6521147.0,7919484.0,0.0
1583177314868,6525287.0,7907207.0,0.0
1583177314912,6571634.0,7898322.0,0.0
1583177314959,6585229.0,7897464.0,0.0
1583177315008,6594777.0,7893440.0,0.0
1583177315059,6588426.0,7896248.0,0.0
1583177315110,6589671.0,8005278.0,0.0
1583177315161,6561555.0,8124054.0,0.0
1583177315208,6483014.0,8143495.0,0.0
1583177315255,6428149.0,8108340.0,0.0
1583177315306,6408279.0,8125353.0,0.0
1583177315353,6411234.0,8151457.0,0.0
1583177315404,6389653.0,8185942.0,0.0
1583177315450,6426983.0,8205827.0,0.0
1583177315496,6507114.0,8269330.0,0.0
1583177315547,6557371.0,8330130.0,0.0
1583177315597,6611995.0,8386992.0,0.0
1583177315646,6627834.0,8455107.0,0.0
1583177315693,6589246.0,8497848.0,0.0
1583177315743,6615829.0,8532690.0,0.0
1583177315790,6604160.0,8582196.0,0.0
1583177315834,6595597.0,8557872.0,0.0
1583177315887,6527272.0,8474319.0,0.0
1583177315935,6489017.0,8445071.0,0.0
1583177315984,6464313.0,8435915.0,0.0
1583177316027,6428952.0,8421394.0,0.0
1583177316081,6389046.0,8396901.0,0.0
1583177316129,6351929.0,8365225.0,0.0
1583177316175,6370829.0,8366942.0,0.0
1583177316226,6399003.0,8386364.0,0.0
1583177316276,6361826.0,8360176.0,0.0
1583177316325,6351972.0,8343936.0,0.0
1583177316370,6351866.0,8340837.0,0.0
1583177316422,6338028.0,8326128.0,0.0
1583177316469,6336059.0,8325018.0,0.0
1583177316516,6316236.0,8303416.0,0.0
1583177316566,6304171.0,8293255.0,0.0
1583177316614,6311113.0,8313389.0,0.0
1583177316664,6319553.0,8330676.0,0.0
1583177316711,6321176.0,8338868.0,0.0
1583177316755,6309961.0,8328432.0,0.0
1583177316808,6322829.0,8337652.0,0.0
1583177316857,6334785.0,8355064.0,0.0
1583177316906,6380514.0,8406727.0,0.0
1583177316953,6440744.0,8452758.0,0.0
1583177317003,6447308.0,8468348.0,0.0
1583177317050,6407233.0,8456112.0,0.0
1583177317098,6410735.0,8452506.0,0.0
1583177317148,6458523.0,8475553.0,0.0
1583177317196,6480498.0,8496045.0,0.0
1583177317246,6441668.0,8498202.0,0.0
1583177317294,6395835.0,8435832.0,0.0
1583177317341,6357506.0,8390806.0,0.0
1583177317389,6351793.0,8371930.0,0.0
1583177317437,6334406.0,8372412.0,0.0
1583177317487,6336484.0,8358625.0,0.0
1583177317535,6358386.0,8362059.0,0.0
1583177317586,6351882.0,8365854.0,0.0
1583177317632,6357945.0,8374799.0,0.0
1583177317677,6356763.0,8371531.0,0.0
1583177317728,6326299.0,8354477.0,0.0
1583177317777,6306535.0,8340126.0,0.0
1583177317827,6285998.0,8321938.0,0.0
1583177317875,6258216.0,8305242.0,0.0
1583177317923,6228828.0,8261327.0,0.0
1583177317971,6195287.0,8230339.0,0.0
1583177318016,6168491.0,8207461.0,0.0
1583177318069,6155683.0,8198200.0,0.0
1583177318118,6142605.0,8181123.0,0.0
1583177318166,6130298.0,8166396.0,0.0
1583177318213,6116686.0,8151247.0,0.0
1583177318259,6103138.0,8133398.0,0.0
1583177318311,6096710.0,8126923.0,0.0
1583177318357,6085934.0,8123090.0,0.0
1583177318408,6071840.0,8119235.0,0.0
1583177318456,6073945.0,8113347.0,0.0
1583177318507,6070808.0,8114752.0,0.0
1583177318554,6058259.0,8089882.0,0.0
1583177318601,6026052.0,8030799.0,0.0
1583177318649,5987859.0,7975194.0,0.0
1583177318699,5964622.0,7932766.0,0.0
1583177318749,5947694.0,7895536.0,0.0
1583177318796,5927217.0,7872929.0,0.0
1583177318844,5909531.0,7844370.0,0.0
1583177318892,5897436.0,7815815.0,0.0
1583177318939,5877324.0,7786631.0,0.0
1583177318990,5865531.0,7768233.0,0.0
1583177319036,5857391.0,7751220.0,0.0
1583177319081,5848935.0,7741835.0,0.0
1583177319221,5843720.0,7740389.0,0.0
1583177319221,5841933.0,7714872.0,0.0
1583177319242,5835340.0,7718851.0,0.0
1583177319340,5820061.0,7677202.0,0.0
1583177319341,5782506.0,7591969.0,0.0
1583177319378,5749250.0,7532739.0,0.0
1583177319426,5730731.0,7492114.0,0.0
1583177319475,5711937.0,7452792.0,0.0
1583177319522,5703995.0,7434770.0,0.0
1583177319571,5688066.0,7404581.0,0.0
1583177319622,5674425.0,7371248.0,0.0
1583177319668,5667712.0,7349583.0,0.0
1583177319717,5661892.0,7340950.0,0.0
1583177319761,5664541.0,7335314.0,0.0
1583177319808,5662178.0,7330160.0,0.0
1583177319861,5659465.0,7324988.0,0.0
1583177320067,5669256.0,7327751.0,0.0
1583177320068,5652403.0,7313381.0,0.0
1583177320071,5648582.0,7292092.0,0.0
1583177320072,5612889.0,7218322.0,0.0
1583177320112,5584321.0,7152598.0,0.0
1583177320167,5577213.0,7130913.0,0.0
1583177320205,5587170.0,7132694.0,0.0
1583177320250,5610934.0,7153584.0,0.0
1583177320300,5621787.0,7168918.0,0.0
1583177320342,5600825.0,7147990.0,0.0
1583177320391,5584669.0,7133406.0,0.0
1583177320445,5572681.0,7116393.0,0.0
1583177320493,5558114.0,7102294.0,0.0
1583177320547,5550551.0,7101624.0,0.0
1583177320588,5554946.0,7101289.0,0.0
1583177320638,5555052.0,7100596.0,0.0
1583177320682,5546822.0,7082473.0,0.0
1583177320736,5516979.0,7006569.0,0.0
1583177320787,5496973.0,6955696.0,0.0
1583177320832,5487335.0,6930661.0,0.0
1583177320882,5475148.0,6915030.0,0.0
1583177320930,5472239.0,6904451.0,0.0
1583177320979,5464935.0,6891399.0,0.0
1583177321022,5458628.0,6875433.0,0.0
1583177321075,5449839.0,6870027.0,0.0
1583177321125,5447489.0,6862569.0,0.0
1583177321172,5442775.0,6863616.0,0.0
1583177321218,5447489.0,6873042.0,0.0
1583177321265,5450308.0,6876167.0,0.0
1583177321319,5462508.0,6888527.0,0.0
1583177321361,5460493.0,6882179.0,0.0
1583177321415,5440517.0,6827892.0,0.0
1583177321466,5413114.0,6767469.0,0.0
1583177321507,5401823.0,6738368.0,0.0
1583177321562,5393214.0,6727243.0,0.0
1583177321608,5392016.0,6292979.0,0.0
1583177321657,5393851.0,6338405.0,0.0
1583177321702,5389001.0,6326458.0,0.0
1583177321754,5388742.0,6319202.0,0.0
1583177321804,5388364.0,6318589.0,0.0
1583177321851,5405461.0,6335799.0,0.0
1583177321901,5419707.0,6352456.0,0.0
1583177321947,5422314.0,6364907.0,0.0
1583177321999,5427801.0,6377114.0,0.0
1583177322042,5433213.0,6378507.0,0.0
1583177322096,5414721.0,6331589.0,0.0
1583177322143,5393941.0,6282891.0,0.0
1583177322192,5387424.0,6258897.0,0.0
1583177322242,5380937.0,6251319.0,0.0
1583177322287,5389243.0,6255060.0,0.0
1583177322338,5384104.0,6250914.0,0.0
1583177322383,5388546.0,6240861.0,0.0
1583177322513,5379785.0,6238368.0,0.0
1583177322515,5378361.0,6234304.0,0.0
1583177322537,5384091.0,6246577.0,0.0
1583177322630,5389380.0,6253975.0,0.0
1583177322630,5399080.0,6264578.0,0.0
1583177322678,5403081.0,6275572.0,0.0
1583177322722,5410521.0,6276285.0,0.0
1583177322774,5401640.0,6257376.0,0.0
1583177322823,5382059.0,6203447.0,0.0
1583177322871,5372494.0,6179226.0,0.0
1583177322921,5366206.0,6167264.0,0.0
1583177322966,5361476.0,6157664.0,0.0
1583177323017,5355520.0,6137053.0,0.0
1583177323062,5344411.0,6114906.0,0.0
1583177323114,5343153.0,6106050.0,0.0
1583177323163,5345274.0,6112558.0,0.0
1583177323210,5351778.0,6123470.0,0.0
1583177323260,5364145.0,6145600.0,0.0
1583177323302,5373115.0,6161547.0,0.0
1583177323352,5383560.0,6175956.0,0.0
1583177323403,5394200.0,6194996.0,0.0
1583177323452,5404127.0,6201617.0,0.0
1583177323502,5389894.0,6160834.0,0.0
1583177323549,5371784.0,6122208.0,0.0
1583177323599,5364477.0,6105824.0,0.0
1583177323643,5362900.0,6096756.0,0.0
1583177323696,5365964.0,6096206.0,0.0
1583177323744,5366312.0,6096369.0,0.0
1583177323793,5361446.0,6086656.0,0.0
1583177323843,5364795.0,6089794.0,0.0
1583177323888,5359975.0,6094958.0,0.0
1583177323939,5369934.0,6103848.0,0.0
1583177323985,5374739.0,6121024.0,0.0
1583177324030,5380755.0,6137184.0,0.0
1583177324088,5387212.0,6152628.0,0.0
1583177324132,5395488.0,6164512.0,0.0
1583177324182,5394336.0,6156061.0,0.0
1583177324223,5378377.0,6114338.0,0.0
1583177324278,5369191.0,6085829.0,0.0
1583177324323,5361887.0,6073751.0,0.0
1583177324374,5357840.0,6072942.0,0.0
1583177324424,5357475.0,6073474.0,0.0
1583177324471,5361203.0,6079482.0,0.0
1583177324516,5360748.0,6070513.0,0.0
1583177324563,5358507.0,6080000.0,0.0
1583177324617,5365479.0,6085844.0,0.0
1583177324666,5372116.0,6096174.0,0.0
1583177324714,5375572.0,6112168.0,0.0
1583177324762,5386803.0,6126432.0,0.0
1583177324809,5393865.0,6143156.0,0.0
1583177324860,5403582.0,6160802.0,0.0
1583177324903,5400398.0,6142330.0,0.0
1583177324950,5390562.0,6106356.0,0.0
1583177325002,5377922.0,6085521.0,0.0
1583177325049,5372465.0,6077637.0,0.0
1583177325099,5377860.0,6082187.0,0.0
1583177325145,5380452.0,6086266.0,0.0
1583177325200,5378407.0,6087624.0,0.0
1583177325245,5379589.0,6089681.0,0.0
1583177325295,5382590.0,6095284.0,0.0
1583177325346,5382318.0,6105370.0,0.0
1583177325393,5391123.0,6118289.0,0.0
1583177325437,5393546.0,6132520.0,0.0
1583177325483,5404824.0,6151365.0,0.0
1583177325539,5412918.0,6168282.0,0.0
1583177325587,5411766.0,6167636.0,0.0
1583177325635,5400276.0,6135418.0,0.0
1583177325685,5386591.0,6105597.0,0.0
1583177325726,5383560.0,6103831.0,0.0
1583177325775,5380286.0,6108058.0,0.0
1583177325826,5386545.0,6117172.0,0.0
1583177325878,5391866.0,6122353.0,0.0
1583177325926,5390986.0,6122644.0,0.0
1583177325975,5388652.0,6124602.0,0.0
1583177326025,5391760.0,6138347.0,0.0
1583177326068,5398035.0,6154036.0,0.0
1583177326122,5405415.0,6165611.0,0.0
1583177326167,5410750.0,6187566.0,0.0
1583177326217,5418419.0,6203074.0,0.0
1583177326266,5427028.0,6212546.0,0.0
1583177326315,5420282.0,6195546.0,0.0
1583177326363,5405203.0,6160058.0,0.0
1583177326406,5393683.0,6151947.0,0.0
1583177326461,5403672.0,6157274.0,0.0
1583177326506,5422374.0,6173026.0,0.0
1583177326557,5454066.0,6208724.0,0.0
1583177326607,5471496.0,6233899.0,0.0
1583177326655,5500429.0,6263234.0,0.0
1583177326703,5520315.0,6298789.0,0.0
1583177326745,5527786.0,6323947.0,0.0
1583177326801,5526331.0,6334455.0,0.0
1583177326847,5514087.0,6338970.0,0.0
1583177326988,5505977.0,6338938.0,0.0
1583177326988,5501415.0,6341044.0,0.0
1583177327006,5490064.0,6318216.0,0.0
1583177327105,5469875.0,6289512.0,0.0
1583177327105,5463342.0,6289009.0,0.0
1583177327149,5459690.0,6290644.0,0.0
1583177327187,5452535.0,6295584.0,0.0
1583177327235,5457007.0,6303403.0,0.0
1583177327284,5449444.0,6302432.0,0.0
1583177327331,5450460.0,6303095.0,0.0
1583177327384,5454188.0,6318961.0,0.0
1583177327429,5465237.0,6335118.0,0.0
1583177327478,5487684.0,6366737.0,0.0
1583177327526,5514692.0,6399441.0,0.0
1583177327576,5540700.0,6429117.0,0.0
1583177327625,5553053.0,6443412.0,0.0
1583177327666,5553143.0,6428581.0,0.0
1583177327722,5558585.0,6418478.0,0.0
1583177327769,5572847.0,6432514.0,0.0
1583177327818,5582714.0,6451991.0,0.0
1583177327866,5626408.0,6497323.0,0.0
1583177327910,5620482.0,6511328.0,0.0
1583177327964,5632746.0,6513757.0,0.0
1583177328009,5656480.0,6532957.0,0.0
1583177328061,5682775.0,6539287.0,0.0
1583177328111,5729108.0,6567424.0,0.0
1583177328158,5754329.0,6615671.0,0.0
1583177328206,5769000.0,6662926.0,0.0
1583177328250,5782596.0,6684264.0,0.0
1583177328304,5772410.0,6682306.0,0.0
1583177328351,5814909.0,6737239.0,0.0
1583177328401,6054318.0,6931549.0,0.0
1583177328447,6142785.0,7049457.0,0.0
1583177328497,6172522.0,7128948.0,0.0
1583177328546,6106318.0,7142257.0,0.0
1583177328593,6142695.0,7156552.0,0.0
1583177328644,6180463.0,7152311.0,0.0
1583177328690,6271599.0,7152974.0,0.0
1583177328741,6373207.0,7188704.0,0.0
1583177328788,6359780.0,7188657.0,0.0
1583177328837,6348094.0,7195246.0,0.0
1583177328886,6353702.0,7193384.0,0.0
1583177328930,6365902.0,7200654.0,0.0
1583177328984,6395185.0,7203226.0,0.0
1583177329029,6437365.0,7230848.0,0.0
1583177329081,6429045.0,7238909.0,0.0
1583177329129,6432212.0,7233178.0,0.0
1583177329177,6449685.0,7237614.0,0.0
1583177329225,6468496.0,7237128.0,0.0
1583177329268,6498641.0,7241693.0,0.0
1583177329323,6506781.0,7244203.0,0.0
1583177329370,6508189.0,7247232.0,0.0
1583177329421,6503113.0,7241760.0,0.0
1583177329467,6495504.0,7240689.0,0.0
1583177329512,6501476.0,7243328.0,0.0
1583177329567,6489638.0,7242359.0,0.0
1583177329611,6485454.0,7234667.0,0.0
1583177329662,6475544.0,7200654.0,0.0
1583177329709,6463479.0,7175671.0,0.0
1583177329755,6446883.0,7163642.0,0.0
1583177329808,6423876.0,7149832.0,0.0
1583177329855,6409932.0,7141690.0,0.0
1583177329905,6402156.0,7126132.0,0.0
1583177329954,6387379.0,7109876.0,0.0
1583177330001,6385560.0,7107156.0,0.0
1583177330043,6378618.0,7106720.0,0.0
1583177330099,6379876.0,7106283.0,0.0
1583177330147,6384136.0,7112014.0,0.0
1583177330190,6387515.0,7117486.0,0.0
1583177330245,6391622.0,7119607.0,0.0
1583177330291,6385331.0,7092797.0,0.0
1583177330343,6374664.0,7069210.0,0.0
1583177330471,6376739.0,7064482.0,0.0
1583177330471,6393531.0,7071621.0,0.0
1583177330496,6400520.0,7085317.0,0.0
1583177330765,6420708.0,7106932.0,0.0
1583177330765,6470103.0,7148715.0,0.0
1583177330765,6586534.0,7230894.0,0.0
1583177330765,6673470.0,7301271.0,0.0
1583177330765,6725139.0,7348869.0,0.0
1583177330804,6765878.0,7402685.0,0.0
1583177330871,6850799.0,7485122.0,0.0
1583177330880,6885811.0,7541332.0,0.0
1583177330924,6855301.0,7506283.0,0.0
1583177330971,6817819.0,7469661.0,0.0
1583177331016,6798766.0,7462717.0,0.0
1583177331063,6769713.0,7448081.0,0.0
1583177331113,6762588.0,7447950.0,0.0
1583177331160,6768438.0,7447741.0,0.0
1583177331211,6764029.0,7451464.0,0.0
1583177331257,6767545.0,7455787.0,0.0
1583177331305,6771259.0,7457373.0,0.0
1583177331355,6759208.0,7466746.0,0.0
1583177331401,6741901.0,7469774.0,0.0
1583177331452,6729670.0,7475863.0,0.0
1583177331499,6728638.0,7485463.0,0.0
1583177331552,6716195.0,7495112.0,0.0
1583177331599,6709163.0,7493169.0,0.0
1583177331647,6705767.0,7475863.0,0.0
1583177331701,6706434.0,7481108.0,0.0
1583177331748,6736430.0,7494754.0,0.0
1583177331794,6800495.0,7540346.0,0.0
1583177331846,6885566.0,7606885.0,0.0
1583177331894,6886658.0,7629809.0,0.0
1583177331942,6847131.0,7615581.0,0.0
1583177331990,6819456.0,7609038.0,0.0
1583177332036,6832748.0,7613021.0,0.0
1583177332087,6900346.0,7640026.0,0.0
1583177332138,6932703.0,7657250.0,0.0
1583177332186,6949103.0,7670205.0,0.0
1583177332232,6967592.0,7694309.0,0.0
1583177332283,6944010.0,7711261.0,0.0
1583177332329,6853392.0,7694181.0,0.0
1583177332376,6777093.0,7622266.0,0.0
1583177332426,6851178.0,7608133.0,0.0
1583177332474,6961865.0,7687220.0,0.0
1583177332520,7001575.0,7719421.0,0.0
1583177332567,6980643.0,7720116.0,0.0
1583177332618,6857877.0,7682993.0,0.0
1583177332665,6863014.0,7674478.0,0.0
1583177332712,7020247.0,7752820.0,0.0
1583177332763,7060003.0,7797568.0,0.0
1583177332811,7071975.0,7822353.0,0.0
1583177332860,7075036.0,7829786.0,0.0
1583177332911,7078220.0,7842155.0,0.0
1583177332962,7072762.0,7849262.0,0.0
1583177333009,7043420.0,7843205.0,0.0
1583177333056,7004878.0,7827002.0,0.0
1583177333106,6978279.0,7820218.0,0.0
1583177333155,6954833.0,7786786.0,0.0
1583177333204,6934781.0,7737358.0,0.0
1583177333250,6922866.0,7703246.0,0.0
1583177333299,6910651.0,7683624.0,0.0
1583177333349,6886386.0,7665800.0,0.0
1583177333399,6868834.0,7643586.0,0.0
1583177333446,6840902.0,7622993.0,0.0
1583177333494,6815485.0,7595002.0,0.0
1583177333542,6792597.0,7572805.0,0.0
1583177333591,6812059.0,7575688.0,0.0
1583177333636,6822852.0,7600165.0,0.0
1583177333688,6822988.0,7612439.0,0.0
1583177333738,6822427.0,7624663.0,0.0
1583177333785,6816454.0,7622429.0,0.0
1583177333834,6831384.0,7639912.0,0.0
1583177333883,6906166.0,7688157.0,0.0
1583177333930,7009015.0,7753434.0,0.0
1583177333973,7043905.0,7792032.0,0.0
1583177334028,7094179.0,7826676.0,0.0
1583177334075,7165764.0,7911592.0,0.0
1583177334127,7171826.0,7934306.0,0.0
1583177334173,7120868.0,7926050.0,0.0
1583177334224,7054515.0,7901815.0,0.0
1583177334269,6969335.0,7859185.0,0.0
1583177334315,6924293.0,7829527.0,0.0
1583177334367,6954833.0,7844567.0,0.0
1583177334415,6945040.0,7849536.0,0.0
1583177334465,6948011.0,7864820.0,0.0
1583177334512,6897070.0,7859252.0,0.0
1583177334563,6846281.0,7841329.0,0.0
1583177334609,6878959.0,7872008.0,0.0
1583177334656,7062350.0,7978245.0,0.0
1583177334707,7123932.0,8049431.0,0.0
1583177334755,7027932.0,8017262.0,0.0
1583177334805,7000679.0,8017198.0,0.0
1583177334851,7104729.0,8083429.0,0.0
1583177334895,7173264.0,8120279.0,0.0
1583177334949,7156063.0,8112200.0,0.0
1583177334998,7150030.0,8103150.0,0.0
1583177335042,7120778.0,8095150.0,0.0
1583177335095,7106426.0,8086181.0,0.0
1583177335138,7115898.0,8091461.0,0.0
1583177335192,7130874.0,8101530.0,0.0
1583177335237,7137116.0,8109899.0,0.0
1583177335289,7125114.0,8104023.0,0.0
1583177335337,7086404.0,8095426.0,0.0
1583177335387,7081009.0,8097466.0,0.0
1583177335434,7080358.0,8090196.0,0.0
1583177335479,7072413.0,8090263.0,0.0
1583177335530,7049711.0,8056247.0,0.0
1583177335578,7030568.0,8001946.0,0.0
1583177335628,7006545.0,7930373.0,0.0
1583177335677,6992147.0,7896893.0,0.0
1583177335727,6978050.0,7870455.0,0.0
1583177335773,6966822.0,7855802.0,0.0
1583177335819,6954923.0,7829428.0,0.0
1583177335870,6930810.0,7804320.0,0.0
1583177335917,6923882.0,7786283.0,0.0
1583177335968,6926853.0,7769381.0,0.0
1583177336016,6936281.0,7773445.0,0.0
1583177336066,6906771.0,7766289.0,0.0
1583177336109,6862014.0,7751217.0,0.0
1583177336159,6827882.0,7738379.0,0.0
1583177336206,6804861.0,7732290.0,0.0
1583177336255,6800343.0,7730641.0,0.0
1583177336301,6783596.0,7724957.0,0.0
1583177336356,6775350.0,7693370.0,0.0
1583177336400,6758345.0,7650938.0,0.0
1583177336446,6811664.0,7672032.0,0.0
1583177336499,6879626.0,7729117.0,0.0
1583177336544,6992541.0,7799447.0,0.0
1583177336598,7071474.0,7860448.0,0.0
1583177336647,7139573.0,7923703.0,0.0
1583177336696,7185982.0,7978181.0,0.0
1583177336741,7247289.0,8039799.0,0.0
1583177336791,7293303.0,8113041.0,0.0
1583177336841,7331270.0,8174871.0,0.0
1583177336884,7383453.0,8261338.0,0.0
1583177336934,7418419.0,8351386.0,0.0
1583177336982,7446656.0,8427316.0,0.0
1583177337030,7485290.0,8508573.0,0.0
1583177337084,7515236.0,8573623.0,0.0
1583177337132,7544126.0,8633024.0,0.0
1583177337181,7580593.0,8704436.0,0.0
1583177337229,7570135.0,8704145.0,0.0
1583177337276,7532682.0,8688992.0,0.0
1583177337321,7482212.0,8657678.0,0.0
1583177337373,7423678.0,8627130.0,0.0
1583177337419,7418466.0,8583531.0,0.0
1583177337471,7483514.0,8604674.0,0.0
1583177337516,7530956.0,8619537.0,0.0
1583177337569,7568452.0,8670938.0,0.0
1583177337617,7585623.0,8699287.0,0.0
1583177337661,7616846.0,8737122.0,0.0
1583177337708,7632746.0,8804811.0,0.0
1583177337764,7613603.0,8861669.0,0.0
1583177337807,7586140.0,8922010.0,0.0
1583177337857,7507112.0,8945178.0,0.0
1583177337904,7408599.0,8901966.0,0.0
1583177337951,7330603.0,8754606.0,0.0
1583177338000,7222993.0,8641216.0,0.0
1583177338049,7138195.0,8497856.0,0.0
1583177338104,7033706.0,8363092.0,0.0
1583177338149,6961002.0,8268625.0,0.0
1583177338200,6896601.0,8175534.0,0.0
1583177338243,6856861.0,8121914.0,0.0
1583177338297,6819137.0,8079883.0,0.0
1583177338342,6784991.0,8036043.0,0.0
1583177338387,6740962.0,8005282.0,0.0
1583177338445,6690067.0,7967170.0,0.0
1583177338490,6651598.0,7921274.0,0.0
1583177338540,6615527.0,7871037.0,0.0
1583177338582,6616679.0,7843418.0,0.0
1583177338636,6622363.0,7811863.0,0.0
1583177338686,6643189.0,7782286.0,0.0
1583177338733,6664254.0,7762679.0,0.0
1583177338782,6679001.0,7739464.0,0.0
1583177338829,6699432.0,7720942.0,0.0
1583177338879,6717333.0,7697710.0,0.0
1583177338923,6737642.0,7691217.0,0.0
1583177338976,6755586.0,7691493.0,0.0
1583177339023,6775486.0,7684660.0,0.0
1583177339072,6798523.0,7713559.0,0.0
1583177339125,6817318.0,7739933.0,0.0
1583177339166,6838552.0,7780017.0,0.0
1583177339220,6854922.0,7785312.0,0.0
1583177339263,6864547.0,7821317.0,0.0
1583177339316,6849176.0,7870795.0,0.0
1583177339363,6830292.0,7881236.0,0.0
1583177339407,6780366.0,7817157.0,0.0
1583177339462,6698523.0,7746117.0,0.0
1583177339510,6587231.0,7639784.0,0.0
1583177339558,6502705.0,7566411.0,0.0
1583177339601,6419905.0,7499741.0,0.0
1583177339655,6347397.0,7468820.0,0.0
1583177339706,6281164.0,7421271.0,0.0
1583177339751,6252366.0,7417742.0,0.0
1583177339801,6236633.0,7403333.0,0.0
1583177339847,6325057.0,7408770.0,0.0
1583177339897,6369312.0,7412820.0,0.0
1583177339945,6839236.0,7414405.0,0.0
1583177339990,6879869.0,7422274.0,0.0
1583177340044,6867213.0,7400546.0,0.0
1583177340085,6806906.0,7335837.0,0.0
1583177340135,6724910.0,7270269.0,0.0
1583177340185,6668938.0,7224337.0,0.0
1583177340238,6630350.0,7205509.0,0.0
1583177340286,6587274.0,7183313.0,0.0
1583177340333,6540320.0,7162074.0,0.0
1583177340381,6517435.0,7159677.0,0.0
1583177340430,6475680.0,7135232.0,0.0
1583177340480,6440061.0,7115607.0,0.0
1583177340522,6429377.0,7113390.0,0.0
1583177340576,6419799.0,7127799.0,0.0
1583177340625,6413464.0,7127863.0,0.0
1583177340672,6409006.0,7135828.0,0.0
1583177340717,6406459.0,7143325.0,0.0
1583177340770,6387545.0,7129451.0,0.0
1583177340819,6325844.0,7062490.0,0.0
1583177340863,6253124.0,6987159.0,0.0
1583177340915,6190513.0,6942507.0,0.0
1583177340964,6156609.0,6916328.0,0.0
1583177341013,6101986.0,6921056.0,0.0
1583177341060,6044451.0,6900008.0,0.0
1583177341107,6004681.0,6870641.0,0.0
1583177341159,5989190.0,6856523.0,0.0
1583177341207,5980021.0,6865751.0,0.0
1583177341255,5981279.0,6895880.0,0.0
1583177341299,5991116.0,6938752.0,0.0
1583177341351,6001179.0,6976701.0,0.0
1583177341397,6020610.0,7010309.0,0.0
1583177341445,6054045.0,7065096.0,0.0
1583177341493,6082796.0,7117536.0,0.0
1583177341548,6101514.0,7191586.0,0.0
1583177341595,6104213.0,7306370.0,0.0
1583177341643,6128280.0,7443109.0,0.0
1583177341692,6136965.0,7523685.0,0.0
1583177341742,6129601.0,7571901.0,0.0
1583177341784,6094330.0,7561003.0,0.0
1583177341838,6056320.0,7536962.0,0.0
1583177341886,6015972.0,7507514.0,0.0
1583177341934,5958408.0,7460514.0,0.0
1583177341982,5899010.0,7403220.0,0.0
1583177342030,5850692.0,7333925.0,0.0
1583177342076,5815636.0,7286248.0,0.0
1583177342125,5828686.0,7278106.0,0.0
1583177342177,5867683.0,7309789.0,0.0
1583177342226,5912091.0,7403784.0,0.0
1583177342273,5979370.0,7467200.0,0.0
1583177342323,6080841.0,7559077.0,0.0
1583177342367,6149819.0,7656360.0,0.0
1583177342420,6203729.0,7746586.0,0.0
1583177342466,6257715.0,7821803.0,0.0
1583177342512,6282147.0,7885495.0,0.0
1583177342565,6304669.0,7930987.0,0.0
1583177342614,6346016.0,7985239.0,0.0
1583177342662,6413856.0,8078411.0,0.0
1583177342706,6450688.0,8138458.0,0.0
1583177342753,6479893.0,8163438.0,0.0
1583177342803,6505567.0,8185329.0,0.0
1583177342852,6527302.0,8197472.0,0.0
1583177342900,6548627.0,8205760.0,0.0
1583177342949,6567451.0,8210763.0,0.0
1583177342999,6574439.0,8185230.0,0.0
1583177343048,6586457.0,8180974.0,0.0
1583177343099,6599718.0,8180212.0,0.0
1583177343150,6609873.0,8180488.0,0.0
1583177343196,6624076.0,8179549.0,0.0
1583177343245,6635792.0,8175080.0,0.0
1583177343291,6657525.0,8176148.0,0.0
1583177343343,6710375.0,8198085.0,0.0
1583177343386,6769015.0,8224913.0,0.0
1583177343439,6852390.0,8255040.0,0.0
1583177343486,6910728.0,8277108.0,0.0
1583177343535,6952543.0,8290368.0,0.0
1583177343585,6977217.0,8304209.0,0.0
1583177343627,6993920.0,8307301.0,0.0
1583177343681,7011940.0,8303805.0,0.0
1583177343726,7025930.0,8301440.0,0.0
1583177343777,7047832.0,8296113.0,0.0
1583177343825,7058214.0,8274097.0,0.0
1583177343874,7056348.0,8271554.0,0.0
1583177343919,7064352.0,8262472.0,0.0
1583177343966,7073808.0,8268008.0,0.0
1583177344021,7082463.0,8268948.0,0.0
1583177344070,7095908.0,8284084.0,0.0
1583177344117,7121157.0,8286368.0,0.0
1583177344166,7117701.0,8285800.0,0.0
1583177344213,7126130.0,8296226.0,0.0
1583177344262,7141376.0,8304273.0,0.0
1583177344307,7155063.0,8307496.0,0.0
1583177344360,7168582.0,8303709.0,0.0
1583177344407,7170445.0,8299563.0,0.0
1583177344456,7182237.0,8295627.0,0.0
1583177344505,7189877.0,8279505.0,0.0
1583177344554,7219129.0,8272494.0,0.0
1583177344603,7242863.0,8274647.0,0.0
1583177344650,7252896.0,8269984.0,0.0
1583177344699,7270007.0,8265355.0,0.0
1583177344748,7291394.0,8274048.0,0.0
1583177344797,7312234.0,8275959.0,0.0
1583177344844,7330756.0,8294155.0,0.0
1583177344891,7329587.0,8291872.0,0.0
1583177344941,7328209.0,8282272.0,0.0
1583177344991,7331148.0,8285573.0,0.0
1583177345032,7331875.0,8278030.0,0.0
1583177345087,7330679.0,8273320.0,0.0
1583177345135,7332877.0,8265387.0,0.0
1583177345185,7323737.0,8254408.0,0.0
1583177345227,7322114.0,8236261.0,0.0
1583177345282,7327692.0,8214647.0,0.0
1583177345328,7335968.0,8188064.0,0.0
1583177345378,7343153.0,8155813.0,0.0
1583177345426,7350868.0,8130592.0,0.0
1583177345473,7354945.0,8115956.0,0.0
1583177345519,7381907.0,8124034.0,0.0
1583177345569,7395047.0,8142149.0,0.0
1583177345621,7360187.0,8098324.0,0.0
1583177345668,7339408.0,8085568.0,0.0
1583177345717,7317234.0,8078056.0,0.0
1583177345765,7289303.0,8069457.0,0.0
1583177345813,7266840.0,8071159.0,0.0
1583177345862,7246349.0,8087557.0,0.0
1583177345909,7255914.0,8141518.0,0.0
1583177345960,7264838.0,8172165.0,0.0
1583177346007,7286209.0,8206554.0,0.0
1583177346052,7306261.0,8232570.0,0.0
1583177346105,7298668.0,8256369.0,0.0
1583177346149,7274220.0,8210795.0,0.0
1583177346201,7265339.0,8182801.0,0.0
1583177346244,7295425.0,8188128.0,0.0
1583177346300,7331254.0,8246170.0,0.0
1583177346343,7365386.0,8290077.0,0.0
1583177346395,7386757.0,8334144.0,0.0
1583177346444,7406627.0,8376820.0,0.0
1583177346490,7442200.0,8425922.0,0.0
1583177346541,7474102.0,8477454.0,0.0
1583177346589,7492488.0,8527723.0,0.0
1583177346638,7513251.0,8567761.0,0.0
1583177346686,7468631.0,8512197.0,0.0
1583177346731,7459265.0,8485178.0,0.0
1583177346784,7482969.0,8519938.0,0.0
1583177346830,7536607.0,8599624.0,0.0
1583177346882,7560646.0,8652872.0,0.0
1583177346929,7580364.0,8694187.0,0.0
1583177346978,7599961.0,8736247.0,0.0
1583177347026,7629881.0,8776674.0,0.0
1583177347070,7601841.0,8756145.0,0.0
1583177347123,7608902.0,8745024.0,0.0
1583177347171,7616285.0,8752194.0,0.0
1583177347221,7615163.0,8766443.0,0.0
1583177347268,7580091.0,8753344.0,0.0
1583177347316,7567694.0,8728817.0,0.0
1583177347366,7610087.0,8748017.0,0.0
1583177347411,7613557.0,8764532.0,0.0
1583177347463,7595141.0,8764791.0,0.0
1583177347510,7583744.0,8758865.0,0.0
1583177347561,7564979.0,8752552.0,0.0
1583177347608,7552356.0,8758315.0,0.0
1583177347653,7565573.0,8753442.0,0.0
1583177347705,7610572.0,8765844.0,0.0
1583177347754,7627500.0,8775394.0,0.0
1583177347802,7600582.0,8751758.0,0.0
1583177347850,7589474.0,8569509.0,0.0
1583177347900,7728640.0,8662341.0,0.0
1583177347948,7797070.0,8819851.0,0.0
1583177347997,7722441.0,8796101.0,0.0
1583177348046,7701675.0,8781143.0,0.0
1583177348092,7722926.0,8802853.0,0.0
1583177348142,7712588.0,8817585.0,0.0
1583177348190,7701479.0,8827380.0,0.0
1583177348240,7659070.0,8822199.0,0.0
1583177348288,7550946.0,8716253.0,0.0
1583177348333,7445866.0,8593794.0,0.0
1583177348385,7440501.0,8577992.0,0.0
1583177348432,7540079.0,8625803.0,0.0
1583177348482,7588381.0,8672363.0,0.0
1583177348530,7585443.0,8702283.0,0.0
1583177348580,7594338.0,8736523.0,0.0
1583177348628,7590914.0,8763269.0,0.0
1583177348671,7607571.0,8819025.0,0.0
1583177348726,7590413.0,8846080.0,0.0
1583177348772,7593491.0,8868843.0,0.0
1583177348824,7595854.0,8876596.0,0.0
1583177348869,7595672.0,8905221.0,0.0
1583177348920,7577817.0,8897579.0,0.0
1583177348967,7588199.0,8912424.0,0.0
1583177349013,7593292.0,8924177.0,0.0
1583177349060,7588580.0,8925602.0,0.0
1583177349113,7585563.0,8928064.0,0.0
1583177349163,7578607.0,8932096.0,0.0
1583177349210,7580288.0,8940337.0,0.0
1583177349260,7583365.0,8952526.0,0.0
1583177349308,7584501.0,8950519.0,0.0
1583177349357,7584228.0,8950746.0,0.0
1583177349405,7582273.0,8951118.0,0.0
1583177349452,7574922.0,8926152.0,0.0
1583177349502,7565132.0,8921038.0,0.0
1583177349549,7565268.0,8911389.0,0.0
1583177349600,7544960.0,8867741.0,0.0
1583177349646,7483819.0,8814557.0,0.0
1583177349694,7394336.0,8745477.0,0.0
1583177349745,7291544.0,8631857.0,0.0
1583177349792,7181434.0,8508069.0,0.0
1583177349842,7097725.0,8411368.0,0.0
1583177349889,7046043.0,8359287.0,0.0
1583177349933,6991784.0,8319298.0,0.0
1583177349986,6937613.0,8274955.0,0.0
1583177350034,6900011.0,8256320.0,0.0
1583177350084,6862137.0,8244794.0,0.0
1583177350132,6817971.0,8226708.0,0.0
1583177350183,6774593.0,8209597.0,0.0
1583177350229,6745749.0,8205338.0,0.0
1583177350272,6708725.0,8200482.0,0.0
1583177350327,6682912.0,8200288.0,0.0
1583177350375,6646356.0,8188776.0,0.0
1583177350424,6551249.0,8099150.0,0.0
1583177350471,6453672.0,8000619.0,0.0
1583177350517,6381118.0,7944084.0,0.0
1583177350570,6323692.0,7902592.0,0.0
1583177350614,6275872.0,7883956.0,0.0
1583177350666,6236726.0,7877204.0,0.0
1583177350715,6189118.0,7860157.0,0.0
1583177350763,6141619.0,7844584.0,0.0
1583177350811,6119293.0,7864692.0,0.0
1583177350860,6104532.0,7874746.0,0.0
1583177350903,6086707.0,7893088.0,0.0
1583177350954,6074702.0,7903287.0,0.0
1583177351006,6070702.0,7919072.0,0.0
1583177351055,6069474.0,7935342.0,0.0
1583177351105,6030477.0,7926132.0,0.0
1583177351151,5949968.0,7881608.0,0.0
1583177351203,5886158.0,7837605.0,0.0
1583177351248,5850555.0,7820267.0,0.0
1583177351295,5833703.0,7834981.0,0.0
1583177351346,5812907.0,7836343.0,0.0
1583177351395,5780003.0,7830158.0,0.0
1583177351444,5747191.0,7822501.0,0.0
1583177351491,5727836.0,7824864.0,0.0
1583177351540,5711223.0,7829867.0,0.0
1583177351589,5702538.0,7830839.0,0.0
1583177351636,5704586.0,7833605.0,0.0
1583177351781,5702054.0,7841038.0,0.0
1583177351781,5704055.0,7851982.0,0.0
1583177351799,5661587.0,7840439.0,0.0
1583177351886,5595974.0,7791837.0,0.0
1583177351886,5549886.0,7750536.0,0.0
1583177351927,5522467.0,7734266.0,0.0
1583177351976,5508204.0,7729442.0,0.0
1583177352026,5493988.0,7737422.0,0.0
1583177352072,5476787.0,7738589.0,0.0
1583177352124,5459251.0,7738929.0,0.0
1583177352171,5439850.0,7731854.0,0.0
1583177352215,5432725.0,7731028.0,0.0
1583177352267,5423784.0,7737099.0,0.0
1583177352318,5424057.0,7737472.0,0.0
1583177352365,5430285.0,7745873.0,0.0
1583177352413,5433349.0,7747720.0,0.0
1583177352462,5413964.0,7736290.0,0.0
1583177352510,5334421.0,7631444.0,0.0
1583177352556,5239483.0,7474065.0,0.0
1583177352607,5187739.0,7369236.0,0.0
1583177352655,5155276.0,7306891.0,0.0
1583177352705,5138102.0,7262013.0,0.0
1583177352753,5126432.0,7227723.0,0.0
1583177352802,5112080.0,7169536.0,0.0
1583177352849,5092180.0,7118167.0,0.0
1583177352897,5084601.0,7080800.0,0.0
1583177352947,5094846.0,7066018.0,0.0
1583177352996,5104743.0,7058653.0,0.0
1583177353046,5111715.0,7046624.0,0.0
1583177353093,5118096.0,7035697.0,0.0
1583177353138,5123869.0,7021466.0,0.0
1583177353190,5133102.0,7015880.0,0.0
1583177353239,5157623.0,7024040.0,0.0
1583177353287,5160913.0,7019927.0,0.0
1583177353335,5095603.0,6905256.0,0.0
1583177353380,5052347.0,6812084.0,0.0
1583177353432,5037102.0,6761344.0,0.0
1583177353478,5040163.0,6735991.0,0.0
1583177353528,5042723.0,6719461.0,0.0
1583177353577,5034419.0,6681431.0,0.0
1583177353627,5029144.0,6650219.0,0.0
1583177353675,5019460.0,6618519.0,0.0
1583177353722,5035070.0,6612933.0,0.0
1583177353770,5044801.0,6606362.0,0.0
1583177353818,5060488.0,6610522.0,0.0
1583177353868,5077961.0,6616576.0,0.0
1583177353913,5083781.0,6617678.0,0.0
1583177353966,5095211.0,6626225.0,0.0
1583177354013,5112837.0,6639988.0,0.0
1583177354061,5122265.0,6651854.0,0.0
1583177354111,5066792.0,6564834.0,0.0
1583177354164,5001954.0,6456800.0,0.0
1583177354209,4976247.0,6398615.0,0.0
1583177354256,4966593.0,6368776.0,0.0
1583177354304,4967290.0,6353786.0,0.0
1583177354354,4963306.0,6345981.0,0.0
1583177354399,4958728.0,6319429.0,0.0
1583177354449,4949239.0,6293576.0,0.0
1583177354499,4954694.0,6286775.0,0.0
1583177354544,4963532.0,6285643.0,0.0
1583177354596,4978658.0,6298754.0,0.0
1583177354641,4987236.0,6309893.0,0.0
1583177354693,5004819.0,6326344.0,0.0
1583177354740,5023035.0,6339360.0,0.0
1583177354790,5035116.0,6360861.0,0.0
1583177354839,5053257.0,6379607.0,0.0
1583177354885,5064502.0,6404168.0,0.0
1583177354936,5071975.0,6421620.0,0.0
1583177354979,5016153.0,6343083.0,0.0
1583177355032,4943828.0,6222632.0,0.0
1583177355083,4914668.0,6167749.0,0.0
1583177355128,4902195.0,6145003.0,0.0
1583177355181,4894131.0,6126205.0,0.0
1583177355226,4632680.0,6144046.0,0.0
1583177355276,4570890.0,6174353.0,0.0
1583177355322,4577907.0,6189134.0,0.0
1583177355371,4584343.0,6228800.0,0.0
1583177355421,4606191.0,6285140.0,0.0
1583177355467,4629548.0,6341739.0,0.0
1583177355513,4650030.0,6428936.0,0.0
1583177355560,4666063.0,6483706.0,0.0
1583177355616,4705523.0,6558068.0,0.0
1583177355664,4738736.0,6632020.0,0.0
1583177355711,4775579.0,6697946.0,0.0
1583177355761,4812340.0,6760535.0,0.0
1583177355807,4854918.0,6822801.0,0.0
1583177355857,4899632.0,6885213.0,0.0
1583177355900,4916973.0,6918612.0,0.0
1583177355954,4913248.0,6944482.0,0.0
1583177356003,4921236.0,6970126.0,0.0
1583177356050,4928652.0,6978094.0,0.0
1583177356101,4938928.0,6980066.0,0.0
1583177356147,4938063.0,6975697.0,0.0
1583177356198,4913481.0,6959685.0,0.0
1583177356240,4899772.0,6952433.0,0.0
1583177356294,4896667.0,6944759.0,0.0
1583177356342,4891796.0,6945259.0,0.0
1583177356390,4894879.0,6945131.0,0.0
1583177356441,4897191.0,6956125.0,0.0
1583177356487,4900578.0,6961675.0,0.0
1583177356537,4905774.0,6966306.0,0.0
1583177356580,4909547.0,6967845.0,0.0
1583177356629,4918234.0,6985038.0,0.0
1583177356684,4923559.0,6989652.0,0.0
1583177356731,4903614.0,6979793.0,0.0
1583177356788,4844267.0,6876276.0,0.0
1583177356867,4807787.0,6797221.0,0.0
1583177356879,4789346.0,6751566.0,0.0
1583177356922,4786870.0,6732930.0,0.0
1583177356974,4786883.0,6717794.0,0.0
1583177357023,4773313.0,6691502.0,0.0
1583177357066,4761390.0,6662408.0,0.0
1583177357123,4748930.0,6643581.0,0.0
1583177357168,4747062.0,6635502.0,0.0
1583177357218,4753426.0,6635048.0,0.0
1583177357263,4761914.0,6646106.0,0.0
1583177357315,4768268.0,6656709.0,0.0
1583177357364,4773126.0,6662993.0,0.0
1583177357411,4780168.0,6672608.0,0.0
1583177357460,4779211.0,6679360.0,0.0
1583177357503,4793690.0,6691034.0,0.0
1583177357556,4798443.0,6699953.0,0.0
1583177357602,4747564.0,6619441.0,0.0
1583177357653,4682063.0,6497986.0,0.0
1583177357703,4648057.0,6426347.0,0.0
1583177357750,4631755.0,6392235.0,0.0
1583177357800,4619014.0,6363173.0,0.0
1583177357844,4611984.0,6350740.0,0.0
1583177357896,4602466.0,6321309.0,0.0
1583177357942,4584693.0,6289835.0,0.0
1583177357993,4578853.0,6273565.0,0.0
1583177358042,4579250.0,6271298.0,0.0
1583177358089,4588499.0,6282016.0,0.0
1583177358139,4597749.0,6284477.0,0.0
1583177358183,4607639.0,6296974.0,0.0
1583177358236,4617648.0,6311173.0,0.0
1583177358285,4628320.0,6328285.0,0.0
1583177358332,4637020.0,6345285.0,0.0
1583177358382,4648254.0,6365035.0,0.0
1583177358427,4664907.0,6380450.0,0.0
1583177358478,4643456.0,6346952.0,0.0
1583177358522,4579134.0,6232410.0,0.0
1583177358571,4541964.0,6165207.0,0.0
1583177358624,4531430.0,6147575.0,0.0
1583177358671,4522368.0,6136258.0,0.0
1583177358717,4526583.0,6133120.0,0.0
1583177358767,4518876.0,6119083.0,0.0
1583177358818,4509278.0,6099799.0,0.0
1583177358864,4502993.0,6090280.0,0.0
1583177358914,4508227.0,6098763.0,0.0
1583177358964,4515793.0,6116282.0,0.0
1583177359011,4535692.0,6148029.0,0.0
1583177359060,4556747.0,6202394.0,0.0
1583177359104,4579332.0,6253326.0,0.0
1583177359156,4597036.0,6294094.0,0.0
1583177359205,4618126.0,6342484.0,0.0
1583177359253,4636191.0,6383362.0,0.0
1583177359301,4648978.0,6415386.0,0.0
1583177359350,4639227.0,6406304.0,0.0
1583177359400,4579858.0,6303968.0,0.0
1583177359443,4554132.0,6245914.0,0.0
1583177359496,4547311.0,6229076.0,0.0
1583177359545,4551178.0,6237850.0,0.0
1583177359593,4557087.0,6241073.0,0.0
1583177359641,4553327.0,6235229.0,0.0
1583177359686,4540946.0,6217646.0,0.0
1583177359739,4540562.0,6214277.0,0.0
1583177359785,4548725.0,6223505.0,0.0
1583177359835,4559773.0,6239921.0,0.0
1583177359885,4571146.0,6263301.0,0.0
1583177359931,4582240.0,6276916.0,0.0
1583177359983,4594933.0,6296829.0,0.0
1583177360047,4608830.0,6314071.0,0.0
1583177360073,4619960.0,6333256.0,0.0
1583177360126,4626056.0,6344264.0,0.0
1583177360174,4575584.0,6240910.0,0.0
1583177360224,4530228.0,6156061.0,0.0
1583177360270,4508902.0,6119275.0,0.0
1583177360321,4512151.0,6111197.0,0.0
1583177360365,4512056.0,6106164.0,0.0
1583177360419,4507257.0,6097227.0,0.0
1583177360466,4497798.0,6073169.0,0.0
1583177360510,4490101.0,6052477.0,0.0
1583177360564,4495299.0,6052494.0,0.0
1583177360605,4504068.0,6066222.0,0.0
1583177360660,4518572.0,6121364.0,0.0
1583177360705,4540972.0,6175909.0,0.0
1583177360756,4560765.0,6214277.0,0.0
1583177360805,4571379.0,6240814.0,0.0
1583177360853,4588243.0,6273111.0,0.0
1583177360904,4602829.0,6301297.0,0.0
1583177360945,4619843.0,6335313.0,0.0
1583177361000,4606472.0,6343374.0,0.0
1583177361047,4583174.0,6313457.0,0.0
1583177361096,4576763.0,6315837.0,0.0
1583177361146,4592155.0,6352814.0,0.0
1583177361189,4605280.0,6395636.0,0.0
1583177361239,4624176.0,6438504.0,0.0
1583177361284,4631077.0,6479805.0,0.0
1583177361340,4637209.0,6504462.0,0.0
1583177361387,4648827.0,6545373.0,0.0
1583177361432,4664101.0,6584279.0,0.0
1583177361481,4682634.0,6623051.0,0.0
1583177361528,4702113.0,6652113.0,0.0
1583177361576,4718065.0,6688750.0,0.0
1583177361626,4739319.0,6720061.0,0.0
1583177361676,4753613.0,6759418.0,0.0
1583177361724,4770708.0,6785224.0,0.0
1583177361772,4787537.0,6811194.0,0.0
1583177361825,4791740.0,6828142.0,0.0
1583177361871,4754045.0,6791232.0,0.0
1583177361917,4727430.0,6723476.0,0.0
1583177361966,4718707.0,6695307.0,0.0
1583177362017,4719349.0,6680462.0,0.0
1583177362066,4720377.0,6677483.0,0.0
1583177362115,4718077.0,6671086.0,0.0
1583177362164,4709073.0,6644907.0,0.0
1583177362207,4702755.0,6630679.0,0.0
1583177362261,4702720.0,6623845.0,0.0
1583177362307,4709552.0,6627328.0,0.0
1583177362357,4719746.0,6640066.0,0.0
1583177362405,4725890.0,6644456.0,0.0
1583177362454,4737275.0,6659869.0,0.0
1583177362504,4747937.0,6674391.0,0.0
1583177362546,4756788.0,6692456.0,0.0
1583177362602,4761134.0,6701960.0,0.0
1583177362647,4723262.0,6618941.0,0.0
1583177362698,4679447.0,6518612.0,0.0
1583177362746,4661369.0,6470786.0,0.0
1583177362795,4660996.0,6461172.0,0.0
1583177362843,4661999.0,6454402.0,0.0
1583177362887,4657246.0,6439767.0,0.0
1583177362940,4649692.0,6407371.0,0.0
1583177362988,4637721.0,6376578.0,0.0
1583177363037,4644471.0,6368014.0,0.0
1583177363085,4650403.0,6370379.0,0.0
1583177363132,4657691.0,6378667.0,0.0
1583177363179,4666437.0,6390356.0,0.0
1583177363229,4680918.0,6411857.0,0.0
1583177363280,4692666.0,6420971.0,0.0
1583177363327,4704029.0,6431706.0,0.0
1583177363376,4712437.0,6435543.0,0.0
1583177363426,4686172.0,6378394.0,0.0
1583177363467,4628345.0,6246382.0,0.0
1583177363518,4598110.0,6175130.0,0.0
1583177363570,4583163.0,6144418.0,0.0
1583177363619,4579986.0,6115732.0,0.0
1583177363667,4578083.0,6107863.0,0.0
1583177363714,4569488.0,6088890.0,0.0
1583177363764,4564887.0,6068183.0,0.0
1583177363808,4559504.0,6051717.0,0.0
1583177363862,4560799.0,6054370.0,0.0
1583177363908,4569967.0,6061853.0,0.0
1583177363958,4583793.0,6073896.0,0.0
1583177364006,4593999.0,6090752.0,0.0
1583177364051,4606017.0,6110746.0,0.0
1583177364104,4617975.0,6120087.0,0.0
1583177364150,4636554.0,6142589.0,0.0
1583177364202,4649027.0,6164494.0,0.0
1583177364249,4623357.0,6117853.0,0.0
1583177364298,4581153.0,6023822.0,0.0
1583177364346,4564840.0,6006321.0,0.0
1583177364388,4565552.0,6031432.0,0.0
1583177364443,4568892.0,6035738.0,0.0
1583177364490,4571438.0,6053757.0,0.0
1583177364540,4573868.0,6065786.0,0.0
1583177364588,4570842.0,6069800.0,0.0
1583177364635,4571392.0,6078641.0,0.0
1583177364685,4580805.0,6103944.0,0.0
1583177364731,4596043.0,6137329.0,0.0
1583177364783,4608037.0,6169108.0,0.0
1583177364830,4625892.0,6201826.0,0.0
1583177364880,4643619.0,6232378.0,0.0
1583177364927,4655238.0,6262603.0,0.0
1583177364975,4675464.0,6300197.0,0.0
1583177365024,4692152.0,6340363.0,0.0
1583177365071,4674297.0,6310138.0,0.0
1583177365121,4634638.0,6225675.0,0.0
1583177365169,4620766.0,6197248.0,0.0
1583177365220,4618044.0,6192357.0,0.0
1583177365266,4626627.0,6202411.0,0.0
1583177365314,4635012.0,6215671.0,0.0
1583177365364,4629957.0,6212919.0,0.0
1583177365406,4629044.0,6210944.0,0.0
1583177365462,4634966.0,6221806.0,0.0
1583177365504,4650147.0,6249669.0,0.0
1583177365554,4662257.0,6279813.0,0.0
1583177365607,4681150.0,6307595.0,0.0
1583177365651,4693319.0,6330146.0,0.0
1583177365703,4709646.0,6359336.0,0.0
1583177365750,4726473.0,6393029.0,0.0
1583177365801,4742553.0,6424000.0,0.0
1583177365847,4716067.0,6375365.0,0.0
1583177365896,4671062.0,6278923.0,0.0
1583177365946,4655962.0,6250560.0,0.0
1583177365992,4649679.0,6234013.0,0.0
1583177366042,4650907.0,6243467.0,0.0
1583177366090,4655378.0,6249506.0,0.0
1583177366139,4649774.0,6236084.0,0.0
1583177366190,4644062.0,6227488.0,0.0
1583177366230,4644670.0,6234484.0,0.0
1583177366285,4652038.0,6247645.0,0.0
1583177366333,4662607.0,6267979.0,0.0
1583177366382,4675827.0,6287618.0,0.0
1583177366430,4691556.0,6317309.0,0.0
1583177366475,4704006.0,6342062.0,0.0
1583177366523,4715752.0,6366074.0,0.0
1583177366571,4706096.0,6345821.0,0.0
1583177366625,4656394.0,6236605.0,0.0
1583177366672,4628987.0,6180864.0,0.0
1583177366722,4629279.0,6206912.0,0.0
1583177366769,4642614.0,6247694.0,0.0
1583177366817,4666519.0,6309666.0,0.0
1583177366866,4701622.0,6419322.0,0.0
1583177366913,4739483.0,6509367.0,0.0
1583177366964,4785819.0,6593570.0,0.0
1583177367011,4813322.0,6653181.0,0.0
1583177367171,4914767.0,6838554.0,0.0
1583177367252,4948224.0,6878737.0,0.0
1583177367270,4991758.0,6935077.0,0.0
1583177367306,5014192.0,6980343.0,0.0
1583177367351,5032561.0,6986545.0,0.0
1583177367401,5059688.0,7041864.0,0.0
1583177367449,5096462.0,7096797.0,0.0
1583177367493,5136272.0,7177533.0,0.0
1583177367545,5178989.0,7244285.0,0.0
1583177367593,5225782.0,7311569.0,0.0
1583177367643,5255864.0,7362746.0,0.0
1583177367690,5285468.0,7412122.0,0.0
1583177367741,5316822.0,7453358.0,0.0
1583177367783,5343601.0,7488296.0,0.0
1583177367835,5378574.0,7525192.0,0.0
1583177367882,5420978.0,7574248.0,0.0
1583177367929,5470140.0,7632384.0,0.0
1583177367978,5529814.0,7687202.0,0.0
1583177368026,5580835.0,7732276.0,0.0
1583177368075,5626833.0,7776180.0,0.0
1583177368127,5680973.0,7798603.0,0.0
1583177368175,5730604.0,7800256.0,0.0
1583177368227,5782429.0,7813710.0,0.0
1583177368272,5836288.0,7820314.0,0.0
1583177368323,5881843.0,7807022.0,0.0
1583177368369,5929255.0,7779112.0,0.0
1583177368414,5958882.0,7770743.0,0.0
1583177368466,5951257.0,7746877.0,0.0
1583177368515,5929862.0,7735042.0,0.0
1583177368564,5962525.0,7767406.0,0.0
1583177368611,6063259.0,7836974.0,0.0
1583177368661,6115504.0,7919217.0,0.0
1583177368709,6136699.0,7969131.0,0.0
1583177368756,6159087.0,8004715.0,0.0
1583177368805,6167331.0,8045952.0,0.0
1583177368855,6169117.0,8079447.0,0.0
1583177368905,6175867.0,8118644.0,0.0
1583177368951,6176965.0,8122432.0,0.0
1583177368994,6170028.0,8112750.0,0.0
1583177369047,6170892.0,8132064.0,0.0
1583177369096,6161831.0,8135479.0,0.0
1583177369145,6167308.0,8160413.0,0.0
1583177369193,6174957.0,8198539.0,0.0
1583177369236,6187112.0,8221253.0,0.0
1583177369290,6163653.0,8214955.0,0.0
1583177369336,6117514.0,8159328.0,0.0
1583177369387,6060292.0,8069669.0,0.0
1583177369435,6010976.0,7983345.0,0.0
1583177369484,5989944.0,7915185.0,0.0
1583177369531,5976422.0,7874016.0,0.0
1583177369576,5977134.0,7834027.0,0.0
1583177369628,5988404.0,7824136.0,0.0
1583177369676,6000747.0,7810958.0,0.0
1583177369726,5984058.0,7767197.0,0.0
1583177369775,5936589.0,7659778.0,0.0
1583177369823,5914670.0,7593239.0,0.0
1583177369872,5909636.0,7550853.0,0.0
1583177369919,5928250.0,7538466.0,0.0
1583177369968,5944716.0,7535278.0,0.0
1583177370018,5937779.0,7518068.0,0.0
1583177370066,5920111.0,7507400.0,0.0
1583177370114,5894572.0,7485576.0,0.0
1583177370161,5878257.0,7482984.0,0.0
1583177370211,5864489.0,7482452.0,0.0
1583177370258,5853035.0,7481026.0,0.0
1583177370308,5844824.0,7468770.0,0.0
1583177370357,5835331.0,7470065.0,0.0
1583177370408,5835282.0,7462132.0,0.0
1583177370453,5828030.0,7455383.0,0.0
1583177370499,5789517.0,7376247.0,0.0
1583177370550,5763407.0,7286522.0,0.0
1583177370597,5760849.0,7251182.0,0.0
1583177370647,5751564.0,7221666.0,0.0
1583177370697,5755897.0,7221134.0,0.0
1583177370746,5791036.0,7259115.0,0.0
1583177370792,5821960.0,7302891.0,0.0
1583177370842,5854142.0,7349745.0,0.0
1583177370889,5871041.0,7383581.0,0.0
1583177370940,5885591.0,7393035.0,0.0
1583177370987,5895927.0,7398976.0,0.0
1583177371035,5901030.0,7398865.0,0.0
1583177371080,5907873.0,7402766.0,0.0
1583177371133,5932466.0,7401922.0,0.0
1583177371178,5945312.0,7397634.0,0.0
1583177371231,5951653.0,7399642.0,0.0
1583177371277,5927631.0,7354941.0,0.0
1583177371327,5892786.0,7276226.0,0.0
1583177371376,5907546.0,7238990.0,0.0
1583177371418,5940244.0,7226752.0,0.0
1583177371472,5942217.0,7225602.0,0.0
1583177371522,5964336.0,7247749.0,0.0
1583177371564,5995037.0,7280677.0,0.0
1583177371614,6006983.0,7297451.0,0.0
1583177371662,6038804.0,7328471.0,0.0
1583177371711,6064461.0,7350391.0,0.0
1583177371762,6098045.0,7377396.0,0.0
1583177371807,6134773.0,7418373.0,0.0
1583177371857,6147151.0,7433541.0,0.0
1583177371904,6169784.0,7458816.0,0.0
1583177371957,6178658.0,7496488.0,0.0
1583177372000,6168464.0,7490286.0,0.0
1583177372054,6117361.0,7478516.0,0.0
1583177372104,6116637.0,7457146.0,0.0
1583177372151,6129647.0,7453940.0,0.0
1583177372200,6140191.0,7462426.0,0.0
1583177372248,6141475.0,7462554.0,0.0
1583177372296,6152536.0,7470696.0,0.0
1583177372348,6157171.0,7465969.0,0.0
1583177372393,6180528.0,7475200.0,0.0
1583177372446,6204911.0,7493218.0,0.0
1583177372489,6230754.0,7511220.0,0.0
1583177372539,6258629.0,7522973.0,0.0
1583177372582,6270621.0,7540509.0,0.0
1583177372635,6461028.0,7564727.0,0.0
1583177372686,7469865.0,7656005.0,0.0
1583177372732,7686956.0,7664733.0,0.0
1583177372783,7533007.0,7567578.0,0.0
1583177372828,7637455.0,7480541.0,0.0
1583177372873,7546015.0,7421594.0,0.0
1583177372922,7481701.0,7377056.0,0.0
1583177372971,7424828.0,7314062.0,0.0
1583177373022,7338736.0,7227624.0,0.0
1583177373067,7281196.0,7159255.0,0.0
1583177373117,7257631.0,7121291.0,0.0
1583177373162,7232626.0,7090176.0,0.0
1583177373217,7227828.0,7088814.0,0.0
1583177373260,7243297.0,7095744.0,0.0
1583177373314,7251902.0,7099031.0,0.0
1583177373367,7259360.0,7104890.0,0.0
1583177373410,7223175.0,7072398.0,0.0
1583177373460,7129046.0,6944096.0,0.0
1583177373502,7649175.0,6886571.0,0.0
1583177373556,8650838.0,7879973.0,0.0
1583177373605,9432181.0,8921620.0,0.0
1583177373654,9156939.0,8816791.0,0.0
1583177373702,8493785.0,8482263.0,0.0
1583177373749,8257783.0,8342222.0,0.0
1583177373799,8052313.0,8197826.0,0.0
1583177373841,7958331.0,8172392.0,0.0
1583177373895,7861733.0,8124648.0,0.0
1583177373945,7733396.0,8057204.0,0.0
1583177373992,7723904.0,8082897.0,0.0
1583177374041,7756174.0,8142635.0,0.0
1583177374084,7762601.0,8173800.0,0.0
1583177374138,7752248.0,8200110.0,0.0
1583177374182,7731970.0,8241198.0,0.0
1583177374230,7662341.0,8296325.0,0.0
1583177374284,7585327.0,8310362.0,0.0
1583177374331,7553518.0,8342368.0,0.0
1583177374381,7550139.0,8364808.0,0.0
1583177374426,7590810.0,8378664.0,0.0
1583177374477,7628746.0,8435831.0,0.0
1583177374521,7660371.0,8503133.0,0.0
1583177374573,7655784.0,8519386.0,0.0
1583177374623,7716381.0,8592064.0,0.0
1583177374670,7757633.0,8675374.0,0.0
1583177374720,7780161.0,8713518.0,0.0
1583177374766,7792619.0,8729675.0,0.0
1583177374817,7829578.0,8764596.0,0.0
1583177374865,7865463.0,8798400.0,0.0
1583177374914,7886833.0,8839005.0,0.0
1583177374962,7898394.0,8856634.0,0.0
1583177375010,7916404.0,8885696.0,0.0
1583177375059,7937857.0,8922510.0,0.0
1583177375108,7951904.0,8943136.0,0.0
1583177375156,7968470.0,8962903.0,0.0
1583177375205,7987902.0,8979758.0,0.0
1583177375252,8003970.0,9002114.0,0.0
1583177375301,8016330.0,9018402.0,0.0
1583177375345,8028207.0,9026385.0,0.0
1583177375399,8047523.0,9054539.0,0.0
1583177375445,8059219.0,9057873.0,0.0
1583177375495,8072954.0,9077204.0,0.0
1583177375545,8090531.0,9091936.0,0.0
1583177375593,8102325.0,9105163.0,0.0
1583177375643,8103682.0,9115362.0,0.0
1583177375689,8103849.0,9131732.0,0.0
1583177375738,8105457.0,9157099.0,0.0
1583177375784,8123612.0,9175458.0,0.0
1583177375834,8119373.0,9180267.0,0.0
1583177375884,8129229.0,9193690.0,0.0
1583177375931,8134694.0,9192232.0,0.0
1583177375981,8143675.0,9214266.0,0.0
1583177376023,8147518.0,9230068.0,0.0
1583177376078,8159047.0,9245981.0,0.0
1583177376124,8166983.0,9260407.0,0.0
1583177376174,8178696.0,9267627.0,0.0
1583177376227,8184742.0,9278312.0,0.0
1583177376264,8195991.0,9289483.0,0.0
1583177376322,8200230.0,9301771.0,0.0
1583177376370,8190059.0,9292640.0,0.0
1583177376419,8183831.0,9321716.0,0.0
1583177376466,8209890.0,9330653.0,0.0
1583177376509,8239958.0,9351813.0,0.0
1583177376557,8269841.0,9408317.0,0.0
1583177376606,8260980.0,9381248.0,0.0
1583177376656,8305958.0,9385957.0,0.0
1583177376704,8334452.0,9427354.0,0.0
1583177376752,8339304.0,9440808.0,0.0
1583177376801,8350437.0,9426577.0,0.0
1583177376849,8325506.0,9381230.0,0.0
1583177376899,8300972.0,9267578.0,0.0
1583177376946,8339685.0,9278830.0,0.0
1583177376996,8393477.0,9294405.0,0.0
1583177377047,8304565.0,9203630.0,0.0
1583177377092,8262950.0,9197559.0,0.0
1583177377145,8261194.0,9096421.0,0.0
1583177377193,8299332.0,9060270.0,0.0
1583177377244,8345817.0,9138612.0,0.0
1583177377288,8392418.0,9262545.0,0.0
1583177377340,8382029.0,9287232.0,0.0
1583177377385,8377043.0,9302516.0,0.0
1583177377431,8386568.0,9305041.0,0.0
1583177377484,8390909.0,9285922.0,0.0
1583177377532,8395133.0,9291554.0,0.0
1583177377582,8395880.0,9297626.0,0.0
1583177377624,8388837.0,9309608.0,0.0
1583177377679,8382660.0,9299764.0,0.0
1583177377725,8344075.0,9269844.0,0.0
1583177377775,8281472.0,9257120.0,0.0
1583177377825,8240273.0,9256375.0,0.0
1583177377873,8207124.0,9253963.0,0.0
1583177377917,8184096.0,9249364.0,0.0
1583177377965,8181197.0,9255485.0,0.0
1583177378018,8159627.0,9243732.0,0.0
1583177378066,8131069.0,9242583.0,0.0
1583177378115,8107362.0,9237934.0,0.0
1583177378163,8087962.0,9229079.0,0.0
1583177378208,8079264.0,9238161.0,0.0
1583177378262,8075272.0,9232317.0,0.0
1583177378306,8072206.0,9241530.0,0.0
1583177378357,8064488.0,9232608.0,0.0
1583177378405,8022923.0,9211531.0,0.0
1583177378454,7912361.0,9149960.0,0.0
1583177378503,7824244.0,9083810.0,0.0
1583177378545,7766462.0,9041733.0,0.0
1583177378600,7713202.0,9014065.0,0.0
1583177378649,7675397.0,9002341.0,0.0
1583177378783,7627853.0,8985797.0,0.0
1583177378783,7584282.0,8959732.0,0.0
1583177378800,7530609.0,8926964.0,0.0
1583177378948,7490104.0,8901544.0,0.0
1583177378948,7461560.0,8887168.0,0.0
1583177378948,7440720.0,8887168.0,0.0
1583177379006,7422630.0,8879738.0,0.0
1583177379035,7412756.0,8878816.0,0.0
1583177379085,7396902.0,8876046.0,0.0
1583177379133,7345631.0,8851956.0,0.0
1583177379181,7222179.0,8735406.0,0.0
1583177379227,7144266.0,8680151.0,0.0
1583177379368,7119684.0,8681154.0,0.0
1583177379368,7114248.0,8707269.0,0.0
1583177379385,7134544.0,8762897.0,0.0
1583177379507,7154357.0,8794920.0,0.0
1583177379508,7164874.0,8836866.0,0.0
1583177379530,7168571.0,8864616.0,0.0
1583177379574,7181526.0,8907828.0,0.0
1583177379620,7187506.0,8922737.0,0.0
1583177379667,7204006.0,8945015.0,0.0
1583177379717,7208793.0,8971712.0,0.0
1583177379764,7205959.0,9019633.0,0.0
1583177379812,7204718.0,9074030.0,0.0
1583177379860,7193105.0,9105518.0,0.0
1583177379908,7145492.0,9106039.0,0.0
1583177379959,7152336.0,9144730.0,0.0
1583177380007,7208826.0,9186193.0,0.0
1583177380056,7319903.0,9183764.0,0.0
1583177380098,7409062.0,9151627.0,0.0
1583177380149,7479352.0,9125888.0,0.0
1583177380201,7492771.0,9099709.0,0.0
1583177380250,7538842.0,9143226.0,0.0
1583177380299,7601032.0,9185416.0,0.0
1583177380346,7667280.0,9219656.0,0.0
1583177380395,7640576.0,9147159.0,0.0
1583177380444,7567568.0,9089233.0,0.0
1583177380487,7546445.0,9093166.0,0.0
1583177380541,7638039.0,9216677.0,0.0
1583177380589,7763976.0,9373637.0,0.0
1583177380637,7781554.0,9360605.0,0.0
1583177380685,7714161.0,9297434.0,0.0
1583177380732,7723290.0,9303633.0,0.0
1583177380784,7799212.0,9406551.0,0.0
1583177380832,7867400.0,9463813.0,0.0
1583177380881,7858122.0,9475892.0,0.0
1583177380928,7833638.0,9508709.0,0.0
1583177380977,7791693.0,9502167.0,0.0
1583177381026,7791675.0,9512983.0,0.0
1583177381070,7772758.0,9889176.0,0.0
1583177381122,7765667.0,9879088.0,0.0
1583177381169,7763694.0,9876047.0,0.0
1583177381220,7785379.0,9875082.0,0.0
1583177381267,7814685.0,9894721.0,0.0
1583177381316,7829066.0,9875411.0,0.0
1583177381365,7752960.0,9790294.0,0.0
1583177381410,7714045.0,9732151.0,0.0
1583177381462,7697544.0,9702099.0,0.0
1583177381509,7689180.0,9674855.0,0.0
1583177381559,7687805.0,9668985.0,0.0
1583177381607,7685634.0,9658412.0,0.0
1583177381655,7666053.0,9638334.0,0.0
1583177381703,7661300.0,9632864.0,0.0
1583177381750,7651988.0,9627264.0,0.0
1583177381801,7653346.0,9617117.0,0.0
1583177381849,7647020.0,9625126.0,0.0
1583177381898,7660008.0,9629208.0,0.0
1583177381946,7663851.0,9637562.0,0.0
1583177381993,7669051.0,9635386.0,0.0
1583177382044,7636003.0,9596979.0,0.0
1583177382090,7560724.0,9490743.0,0.0
1583177382141,7481257.0,9419219.0,0.0
1583177382188,7432337.0,9370125.0,0.0
1583177382238,7430001.0,9354952.0,0.0
1583177382286,7437788.0,9372339.0,0.0
1583177382330,7442342.0,9384295.0,0.0
1583177382384,7425958.0,9369337.0,0.0
1583177382434,7420228.0,9337222.0,0.0
1583177382482,7410271.0,9290112.0,0.0
1583177382528,7459622.0,9285431.0,0.0
1583177382579,7523253.0,9300583.0,0.0
1583177382627,7567833.0,9339091.0,0.0
1583177382670,7606614.0,9380424.0,0.0
1583177382724,7653182.0,9394151.0,0.0
1583177382771,7673210.0,9402451.0,0.0
1583177382821,7683366.0,9420336.0,0.0
1583177382869,7700396.0,9441127.0,0.0
1583177382920,7727729.0,9477362.0,0.0
1583177382966,7755841.0,9500966.0,0.0
1583177383011,7776982.0,9516928.0,0.0
1583177383064,7788761.0,9535716.0,0.0
1583177383108,7803055.0,9553892.0,0.0
1583177383161,7813709.0,9560015.0,0.0
1583177383209,7829462.0,9584754.0,0.0
1583177383260,7839336.0,9592340.0,0.0
1583177383306,7851942.0,9607721.0,0.0
1583177383350,7862810.0,9620006.0,0.0
1583177383404,7868674.0,9632788.0,0.0
1583177383452,7854377.0,9647076.0,0.0
1583177383501,7812500.0,9650387.0,0.0
1583177383548,7776318.0,9678322.0,0.0
1583177383597,7745669.0,9700057.0,0.0
1583177383646,7733941.0,9729397.0,0.0
1583177383693,7737403.0,9760857.0,0.0
1583177383743,7743434.0,9775142.0,0.0
1583177383791,7761741.0,9800942.0,0.0
1583177383842,7793199.0,9800883.0,0.0
1583177383888,7790202.0,9798880.0,0.0
1583177383933,7764224.0,9793470.0,0.0
1583177383985,7765384.0,9803367.0,0.0
1583177384035,7772674.0,9827874.0,0.0
1583177384083,7800456.0,9864205.0,0.0
1583177384131,7842551.0,9867769.0,0.0
1583177384182,7917246.0,9838716.0,0.0
1583177384228,7937425.0,9840235.0,0.0
1583177384273,7960933.0,9838754.0,0.0
1583177384326,7991066.0,9866226.0,0.0
1583177384374,8003607.0,9878683.0,0.0
1583177384423,8018351.0,9890428.0,0.0
1583177384470,8028290.0,9900440.0,0.0
1583177384516,8040998.0,9918962.0,0.0
1583177384562,8039489.0,9921096.0,0.0
1583177384611,8053355.0,9936615.0,0.0
1583177384665,8079663.0,9965900.0,0.0
1583177384714,8102855.0,9978509.0,0.0
1583177384762,8106716.0,9992236.0,0.0
1583177384809,8117152.0,1.0008966E7,0.0
1583177384860,8123662.0,1.0012066E7,0.0
1583177384907,8141621.0,1.003796E7,0.0
1583177384954,8125800.0,1.0035016E7,0.0
1583177385005,8087200.0,1.0036383E7,0.0
1583177385054,8076282.0,1.003486E7,0.0
1583177385098,8074064.0,1.0052054E7,0.0
1583177385151,8079148.0,1.005523E7,0.0
1583177385201,8077841.0,1.0058464E7,0.0
1583177385249,8066295.0,1.0048415E7,0.0
1583177385294,8063098.0,1.0054133E7,0.0
1583177385345,8074162.0,1.0057617E7,0.0
1583177385392,8079711.0,1.0060467E7,0.0
1583177385443,8090198.0,1.0066494E7,0.0
1583177385593,8097190.0,1.0068109E7,0.0
1583177385593,8092633.0,1.0071635E7,0.0
1583177385593,8092418.0,1.0071441E7,0.0
1583177385883,8002497.0,1.001792E7,0.0
1583177385883,8005828.0,1.0023154E7,0.0
1583177385883,8019661.0,1.00256E7,0.0
1583177385938,8022129.0,1.0020016E7,0.0
1583177386000,8008194.0,1.0004825E7,0.0
1583177386025,8001452.0,1.0001169E7,0.0
1583177386074,8000327.0,1.0005846E7,0.0
1583177386122,8004983.0,1.0013049E7,0.0
1583177386170,8009638.0,1.0012201E7,0.0
1583177386213,8014225.0,1.0015183E7,0.0
1583177386268,8012767.0,1.0014799E7,0.0
1583177386317,8009040.0,1.0014685E7,0.0
1583177386366,8018467.0,1.0013471E7,0.0
1583177386413,8006042.0,9992600.0,0.0
1583177386463,7935618.0,9976970.0,0.0
1583177386510,7872768.0,9955943.0,0.0
1583177386556,7842449.0,9953037.0,0.0
1583177386608,7827491.0,9944240.0,0.0
1583177386656,7816325.0,9946146.0,0.0
1583177386705,7807961.0,9936653.0,0.0
1583177386753,7784602.0,9929375.0,0.0
1583177386807,7769989.0,9928067.0,0.0
1583177386926,7765849.0,9927586.0,0.0
1583177386926,7764292.0,9929935.0,0.0
1583177386948,7768531.0,9930357.0,0.0
1583177387101,7777559.0,9930783.0,0.0
1583177387101,7783060.0,9922888.0,0.0
1583177387101,7779351.0,9922580.0,0.0
1583177387153,7783310.0,9920691.0,0.0
1583177387188,7776351.0,9912320.0,0.0
1583177387241,7702846.0,9886595.0,0.0
1583177387286,7630484.0,9848669.0,0.0
1583177387335,7600303.0,9818520.0,0.0
1583177387381,7576647.0,9819461.0,0.0
1583177387431,7572801.0,9813611.0,0.0
1583177387478,7565100.0,9819865.0,0.0
1583177387588,7545403.0,9815863.0,0.0
1583177387588,7593710.0,9868827.0,0.0
1583177387727,7654855.0,9927565.0,0.0
1583177387727,7718700.0,9958718.0,0.0
1583177387727,7777759.0,1.000677E7,0.0
1583177387806,7849507.0,9993101.0,0.0
1583177387820,7919285.0,1.0053766E7,0.0
1583177387867,7968568.0,1.0093889E7,0.0
1583177387916,7992474.0,1.0142252E7,0.0
1583177387966,8015419.0,1.0171575E7,0.0
1583177388012,8028424.0,1.0187997E7,0.0
1583177388058,8016047.0,1.0171748E7,0.0
1583177388104,7956110.0,1.0124443E7,0.0
1583177388159,7852555.0,1.0000705E7,0.0
1583177388208,7840413.0,9963222.0,0.0
1583177388255,7868460.0,9957638.0,0.0
1583177388298,7908783.0,9977063.0,0.0
1583177388352,7935767.0,1.0003016E7,0.0
1583177388400,7942212.0,9991271.0,0.0
1583177388449,7959706.0,1.0009063E7,0.0
1583177388498,7985217.0,1.0077872E7,0.0
1583177388547,8008096.0,1.0150742E7,0.0
1583177388594,8034089.0,1.0218973E7,0.0
1583177388638,8051747.0,1.026699E7,0.0
1583177388691,8043781.0,1.0283914E7,0.0
1583177388739,8056239.0,1.0305843E7,0.0
1583177388788,8047523.0,1.0285491E7,0.0
1583177388837,8030758.0,1.0266527E7,0.0
1583177388885,8002780.0,1.026826E7,0.0
1583177388934,7991397.0,1.0260694E7,0.0
1583177388979,7990536.0,1.026187E7,0.0
1583177389030,7999532.0,1.0269225E7,0.0
1583177389079,8013380.0,1.0284682E7,0.0
1583177389127,8017524.0,1.0282547E7,0.0
1583177389176,8019926.0,1.0288996E7,0.0
1583177389220,8027130.0,1.0288477E7,0.0
1583177389268,8035182.0,1.0297333E7,0.0
1583177389326,8051417.0,1.0304051E7,0.0
1583177389369,8069673.0,1.0316066E7,0.0
1583177389418,8078222.0,1.0327596E7,0.0
1583177389461,8095300.0,1.0341382E7,0.0
1583177389510,8099872.0,1.0345022E7,0.0
1583177389564,8104263.0,1.034735E7,0.0
1583177389611,8117384.0,1.0358403E7,0.0
1583177389664,8090397.0,1.0362637E7,0.0
1583177389707,8065928.0,1.0369068E7,0.0
1583177389758,8059237.0,1.0375942E7,0.0
1583177389811,8078603.0,1.0376883E7,0.0
1583177389927,8110824.0,1.0403376E7,0.0
1583177389927,8124374.0,1.0430464E7,0.0
1583177389986,8136552.0,1.0442364E7,0.0
1583177390095,8154856.0,1.0471012E7,0.0
1583177390095,8182587.0,1.0507091E7,0.0
1583177390118,8195360.0,1.0539184E7,0.0
1583177390304,8221487.0,1.0559225E7,0.0
1583177390306,8265204.0,1.0595535E7,0.0
1583177390306,8295983.0,1.0601177E7,0.0
1583177390306,8309768.0,1.0567524E7,0.0
1583177390402,8321381.0,1.0571433E7,0.0
1583177390402,8327825.0,1.0581867E7,0.0
1583177390447,8334452.0,1.060418E7,0.0
1583177390484,8339173.0,1.0630867E7,0.0
1583177390535,8379612.0,1.0697537E7,0.0
1583177390585,8421655.0,1.0746264E7,0.0
1583177390631,8275143.0,1.0540761E7,0.0
1583177390680,8287071.0,1.050041E7,0.0
1583177390727,8397038.0,1.0620872E7,0.0
1583177390776,8536129.0,1.0844301E7,0.0
1583177390820,8491912.0,1.0796592E7,0.0
1583177390873,8435107.0,1.0712209E7,0.0
1583177390923,8461166.0,1.0750962E7,0.0
1583177390970,8500131.0,1.0819462E7,0.0
1583177391020,8486530.0,1.0803791E7,0.0
1583177391062,8493934.0,1.0839603E7,0.0
1583177391110,8478678.0,1.0817809E7,0.0
1583177391162,8487721.0,1.0829204E7,0.0
1583177391212,8463419.0,1.0795457E7,0.0
1583177391260,8461612.0,1.0769024E7,0.0
1583177391308,8445264.0,1.0747035E7,0.0
1583177391358,8421572.0,1.0732115E7,0.0
1583177391402,8403316.0,1.0723182E7,0.0
1583177391455,8391456.0,1.0704601E7,0.0
1583177391502,8370050.0,1.0663711E7,0.0
1583177391551,8324015.0,1.0597019E7,0.0
1583177391602,8284951.0,1.0548213E7,0.0
1583177391646,8252314.0,1.0509671E7,0.0
1583177391698,8231227.0,1.0475651E7,0.0
1583177391741,8217394.0,1.0463079E7,0.0
1583177391794,8210735.0,1.0439417E7,0.0
1583177391844,8198557.0,1.0416121E7,0.0
1583177391890,8179194.0,1.0393904E7,0.0
1583177391941,8160887.0,1.0355763E7,0.0
1583177391983,8118379.0,1.028965E7,0.0
1583177392032,8066393.0,1.0180929E7,0.0
1583177392082,8021283.0,1.0102109E7,0.0
1583177392134,7983115.0,1.0027603E7,0.0
1583177392182,7936779.0,9955539.0,0.0
1583177392230,7908518.0,9911662.0,0.0
1583177392281,7859548.0,9840985.0,0.0
1583177392324,7836886.0,9789467.0,0.0
1583177392376,7809732.0,9758681.0,0.0
1583177392423,7799328.0,9726280.0,0.0
1583177392472,7790216.0,9716576.0,0.0
1583177392521,7784534.0,9712667.0,0.0
1583177392569,7784882.0,9696418.0,0.0
1583177392619,7782316.0,9695705.0,0.0
1583177392662,7779268.0,9697767.0,0.0
1583177392714,7793050.0,9709529.0,0.0
1583177392764,7778818.0,9689008.0,0.0
1583177392811,7745208.0,9629727.0,0.0
1583177392856,7705861.0,9594167.0,0.0
1583177392909,7697396.0,9569715.0,0.0
1583177392958,7684524.0,9567138.0,0.0
1583177393004,7697083.0,9576399.0,0.0
1583177393054,7700974.0,9602331.0,0.0
1583177393103,7680467.0,9612938.0,0.0
1583177393151,7637393.0,9616058.0,0.0
1583177393201,7619122.0,9622047.0,0.0
1583177393242,7622784.0,9644917.0,0.0
1583177393297,7650911.0,9683251.0,0.0
1583177393349,7678014.0,9701078.0,0.0
1583177393393,7703608.0,9714729.0,0.0
1583177393442,7720787.0,9707872.0,0.0
1583177393490,7722311.0,9689700.0,0.0
1583177393540,7687557.0,9665577.0,0.0
1583177393584,7648312.0,9654697.0,0.0
1583177393636,7634461.0,9653659.0,0.0
1583177393685,7634958.0,9666867.0,0.0
1583177393733,7632607.0,9664345.0,0.0
1583177393782,7625847.0,9656873.0,0.0
1583177393827,7610787.0,9661744.0,0.0
1583177393879,7608385.0,9663207.0,0.0
1583177393927,7610972.0,9666463.0,0.0
1583177393974,7616768.0,9669331.0,0.0
1583177394023,7625349.0,9669676.0,0.0
1583177394067,7627901.0,9672333.0,0.0
1583177394120,7630600.0,9672430.0,0.0
1583177394163,7638620.0,9676243.0,0.0
1583177394217,7652203.0,9677280.0,0.0
1583177394376,7607194.0,9652542.0,0.0
1583177394376,7522723.0,9611879.0,0.0
1583177394376,7478608.0,9593956.0,0.0
1583177394531,7459920.0,9601311.0,0.0
1583177394531,7462834.0,9616366.0,0.0
1583177394531,7480263.0,9645419.0,0.0
1583177394561,7495090.0,9662035.0,0.0
1583177394788,7543927.0,9700521.0,0.0
1583177394788,7600071.0,9735347.0,0.0
1583177394788,7672647.0,9764822.0,0.0
1583177394788,7735599.0,9796341.0,0.0
1583177394822,7765236.0,9802482.0,0.0
1583177394922,7791127.0,9835924.0,0.0
1583177394922,7786722.0,9825179.0,0.0
1583177394946,7820136.0,9835018.0,0.0
1583177394994,7852969.0,9847513.0,0.0
1583177395042,7855404.0,9852540.0,0.0
1583177395083,7849989.0,9869173.0,0.0
1583177395139,7855488.0,9881146.0,0.0
1583177395188,7867168.0,9885094.0,0.0
1583177395235,7874589.0,9907023.0,0.0
1583177395286,7884430.0,9918574.0,0.0
1583177395330,7876462.0,9922445.0,0.0
1583177395380,7858949.0,9928569.0,0.0
1583177395426,7854461.0,9909756.0,0.0
1583177395478,7900002.0,9921252.0,0.0
1583177395520,7920544.0,9994392.0,0.0
1583177395575,7939447.0,1.0045163E7,0.0
1583177395624,7945293.0,1.0065895E7,0.0
1583177395665,8019095.0,1.0091329E7,0.0
1583177395721,8094041.0,1.0105036E7,0.0
1583177395766,8016363.0,9836751.0,0.0
1583177395816,8051965.0,9868094.0,0.0
1583177395866,8132890.0,9902173.0,0.0
1583177395909,8197679.0,9959621.0,0.0
1583177395963,8196471.0,9940445.0,0.0
1583177396005,8075058.0,9799150.0,0.0
1583177396060,8084319.0,9802520.0,0.0
1583177396107,8154391.0,9828895.0,0.0
1583177396151,8196405.0,9850267.0,0.0
1583177396204,8198956.0,9864918.0,0.0
1583177396253,8190639.0,9867284.0,0.0
1583177396301,8183236.0,9898226.0,0.0
1583177396346,8171805.0,9895202.0,0.0
1583177396399,8155552.0,9874812.0,0.0
1583177396446,8121013.0,9819232.0,0.0
1583177396495,8023933.0,9602812.0,0.0
1583177396545,7843973.0,9323457.0,0.0
1583177396586,7655682.0,9101744.0,0.0
1583177396641,7672001.0,9179291.0,0.0
1583177396690,7741663.0,9286645.0,0.0
1583177396737,7798882.0,9374322.0,0.0
1583177396786,7836669.0,9453163.0,0.0
1583177396835,7874241.0,9529056.0,0.0
1583177396883,7891470.0,9578824.0,0.0
1583177396926,7906247.0,9631961.0,0.0
1583177396981,7880403.0,9663169.0,0.0
1583177397028,7853633.0,9685964.0,0.0
1583177397073,7859316.0,9733209.0,0.0
1583177397121,7876875.0,9794182.0,0.0
1583177397170,7892447.0,9827836.0,0.0
1583177397220,7901809.0,9828165.0,0.0
1583177397266,7903613.0,9823640.0,0.0
1583177397320,7876346.0,9793664.0,0.0
1583177397368,7831153.0,9789159.0,0.0
1583177397417,7803984.0,9798476.0,0.0
1583177397463,7801019.0,9806294.0,0.0
1583177397510,7787037.0,9801596.0,0.0
1583177397563,7788957.0,9811317.0,0.0
1583177397607,7781486.0,9812936.0,0.0
1583177397660,7756157.0,9808605.0,0.0
1583177397708,7731274.0,9803347.0,0.0
1583177397756,7730479.0,9812666.0,0.0
1583177397806,7732170.0,9816420.0,0.0
1583177397850,7737123.0,9812051.0,0.0
1583177397903,7734885.0,9813531.0,0.0
1583177397948,7734024.0,9809625.0,0.0
1583177398002,7734920.0,9811165.0,0.0
1583177398047,7743368.0,9832091.0,0.0
1583177398097,7767456.0,9863244.0,0.0
1583177398145,7770951.0,9858719.0,0.0
1583177398199,7775490.0,9885962.0,0.0
1583177398323,7785876.0,9906829.0,0.0
1583177398323,7805806.0,9936460.0,0.0
1583177398453,7829331.0,9951920.0,0.0
1583177398453,7872735.0,9962665.0,0.0
1583177398453,7890542.0,9951477.0,0.0
1583177398492,7878102.0,9926853.0,0.0
1583177398661,7863340.0,9898167.0,0.0
1583177398661,7873348.0,9885325.0,0.0
1583177398661,7877489.0,9880320.0,0.0
1583177398689,7892861.0,9864707.0,0.0
1583177398802,7909760.0,9879282.0,0.0
1583177398803,7920062.0,9880704.0,0.0
1583177398833,7938220.0,9898513.0,0.0
1583177398876,7935056.0,9902806.0,0.0
1583177398922,7919467.0,9901073.0,0.0
1583177398968,7867963.0,9899246.0,0.0
1583177399018,7845864.0,9918557.0,0.0
1583177399065,7822770.0,9918806.0,0.0
1583177399108,7806005.0,9919325.0,0.0
1583177399162,7774398.0,9921404.0,0.0
1583177399210,7731524.0,9888290.0,0.0
1583177399260,7667759.0,9870252.0,0.0
1583177399307,7757550.0,9904252.0,0.0
1583177399355,7839851.0,9986269.0,0.0
1583177399405,7860872.0,1.0021905E7,0.0
1583177399451,7879078.0,1.0035978E7,0.0
1583177399501,7889068.0,1.006199E7,0.0
1583177399549,7911796.0,1.0066992E7,0.0
1583177399599,7944317.0,1.0117763E7,0.0
1583177399647,7935952.0,1.0116511E7,0.0
1583177399691,7945344.0,1.0136015E7,0.0
1583177399744,7957768.0,1.0139575E7,0.0
1583177399793,7904690.0,1.0106212E7,0.0
1583177399841,7863325.0,1.0110176E7,0.0
1583177399889,7830209.0,1.0108059E7,0.0
1583177399939,7803901.0,1.0101244E7,0.0
1583177399986,7772541.0,1.0086476E7,0.0
1583177400030,7689876.0,1.0039154E7,0.0
1583177400078,7270965.0,9840449.0,0.0
1583177400130,6941231.0,9625454.0,0.0
1583177400176,6821855.0,9491283.0,0.0
1583177400229,6751234.0,9374380.0,0.0
1583177400279,6713858.0,9320281.0,0.0
1583177400326,6672907.0,9295155.0,0.0
1583177400372,6641780.0,9258748.0,0.0
1583177400424,6587326.0,9201608.0,0.0
1583177400470,6522835.0,9129793.0,0.0
1583177400517,6474760.0,9092829.0,0.0
1583177400567,6395374.0,8981625.0,0.0
1583177400616,6258554.0,8768384.0,0.0
1583177400666,6116730.0,8596919.0,0.0
1583177400716,6049274.0,8518908.0,0.0
1583177400763,6016139.0,8485773.0,0.0
1583177400809,6009150.0,8504506.0,0.0
1583177400860,5989733.0,8526204.0,0.0
1583177400907,5919276.0,8441378.0,0.0
1583177400951,5851374.0,8362094.0,0.0
1583177401004,5850743.0,8447692.0,0.0
1583177401054,5882168.0,8517310.0,0.0
1583177401103,5926632.0,8545574.0,0.0
1583177401149,5990560.0,8598036.0,0.0
1583177401195,6037542.0,8649731.0,0.0
1583177401247,6115057.0,8781976.0,0.0
1583177401295,6224592.0,8947203.0,0.0
1583177401344,6308369.0,9036554.0,0.0
1583177401392,6344879.0,9097759.0,0.0
1583177401442,6391233.0,9152512.0,0.0
1583177401489,6448205.0,9207939.0,0.0
1583177401540,6518843.0,9242731.0,0.0
1583177401586,6586632.0,9288686.0,0.0
1583177401636,6632090.0,9310422.0,0.0
1583177401684,6670124.0,9330867.0,0.0
1583177401731,6734699.0,9366642.0,0.0
1583177401781,6799922.0,9419392.0,0.0
1583177401829,6840906.0,9443864.0,0.0
1583177401877,6880631.0,9470702.0,0.0
1583177401926,6907799.0,9487086.0,0.0
1583177401975,6937537.0,9501235.0,0.0
1583177402025,6967703.0,9507456.0,0.0
1583177402071,7002162.0,9533291.0,0.0
1583177402117,7023467.0,9539760.0,0.0
1583177402169,7033257.0,9534965.0,0.0
1583177402215,7044405.0,9552833.0,0.0
1583177402267,7058503.0,9568408.0,0.0
1583177402316,7071940.0,9573760.0,0.0
1583177402364,7078334.0,9578323.0,0.0
1583177402411,7089166.0,9575877.0,0.0
1583177402461,7105154.0,9575724.0,0.0
1583177402509,7121256.0,9574202.0,0.0
1583177402552,7131993.0,9589161.0,0.0
1583177402606,7156759.0,9596440.0,0.0
1583177402654,7170607.0,9609184.0,0.0
1583177402704,7186792.0,9624413.0,0.0
1583177402751,7198124.0,9626935.0,0.0
1583177402802,7206888.0,9638794.0,0.0
1583177402848,7220390.0,9634366.0,0.0
1583177402895,7224049.0,9629900.0,0.0
1583177402946,7198868.0,9617695.0,0.0
1583177402993,7180546.0,9609513.0,0.0
1583177403043,7175081.0,9610956.0,0.0
1583177403090,7174533.0,9604739.0,0.0
1583177403134,7176141.0,9600020.0,0.0
1583177403186,7191248.0,9596402.0,0.0
1583177403239,7199017.0,9602601.0,0.0
1583177403285,7209388.0,9621929.0,0.0
1583177403333,7224183.0,9621199.0,0.0
1583177403382,7247773.0,9650982.0,0.0
1583177403429,7261806.0,9673413.0,0.0
1583177403474,7278321.0,9682172.0,0.0
1583177403521,7287284.0,9683480.0,0.0
1583177403576,7305671.0,9708336.0,0.0
1583177403620,7313458.0,9713477.0,0.0
1583177403672,7306070.0,9697380.0,0.0
1583177403722,7277493.0,9688544.0,0.0
1583177403769,7257183.0,9693512.0,0.0
1583177403815,7242969.0,9696148.0,0.0
1583177403866,7231687.0,9691547.0,0.0
1583177403916,7223040.0,9687465.0,0.0
1583177403964,7201536.0,9678111.0,0.0
1583177404013,7174301.0,9673932.0,0.0
1583177404057,7162043.0,9669465.0,0.0
1583177404109,7163302.0,9669967.0,0.0
1583177404156,7163005.0,9667500.0,0.0
1583177404206,7160171.0,9665999.0,0.0
1583177404345,7162772.0,9665712.0,0.0
1583177404347,7158414.0,9665518.0,0.0
1583177404376,7160951.0,9669254.0,0.0
1583177404522,7128977.0,9657703.0,0.0
1583177404522,7081001.0,9649269.0,0.0
1583177404522,7054958.0,9640029.0,0.0
1583177404555,7048778.0,9648768.0,0.0
1583177404596,7052773.0,9650521.0,0.0
1583177404645,7058056.0,9646304.0,0.0
1583177404691,7049293.0,9654292.0,0.0
1583177404734,7043860.0,9654064.0,0.0
1583177404788,7046045.0,9659955.0,0.0
1583177404838,7055074.0,9664709.0,0.0
1583177404886,7058935.0,9664034.0,0.0
1583177404935,7075831.0,9671216.0,0.0
1583177404977,7084165.0,9675973.0,0.0
1583177405024,7103779.0,9682539.0,0.0
1583177405079,7122086.0,9689008.0,0.0
1583177405123,7131097.0,9697190.0,0.0
1583177405177,7110920.0,9690585.0,0.0
1583177405227,7055720.0,9681615.0,0.0
1583177405273,7036770.0,9682999.0,0.0
1583177405320,7022687.0,9676627.0,0.0
1583177405370,7030804.0,9688295.0,0.0
1583177405416,7037448.0,9692530.0,0.0
1583177405468,7051630.0,9707046.0,0.0
1583177405517,7056964.0,9718424.0,0.0
1583177405567,7061801.0,9712262.0,0.0
1583177405614,7063623.0,9720832.0,0.0
1583177405658,7070580.0,9725163.0,0.0
1583177405710,7073925.0,9729169.0,0.0
1583177405758,7082954.0,9726394.0,0.0
1583177405807,7093989.0,9733517.0,0.0
1583177405856,7098612.0,9733673.0,0.0
1583177405905,7091884.0,9725125.0,0.0
1583177405953,7030408.0,9721641.0,0.0
1583177405998,6955362.0,9688468.0,0.0
1583177406049,6914908.0,9679975.0,0.0
1583177406099,6890076.0,9669791.0,0.0
1583177406147,6865077.0,9664574.0,0.0
1583177406196,6836980.0,9661554.0,0.0
1583177406245,6810391.0,9668251.0,0.0
1583177406294,6791819.0,9677128.0,0.0
1583177406513,6758971.0,9693301.0,0.0
1583177406514,6739057.0,9733019.0,0.0
1583177406514,6716561.0,9773391.0,0.0
1583177406515,6695123.0,9828760.0,0.0
1583177406548,6677498.0,9877355.0,0.0
1583177406638,6684853.0,9941313.0,0.0
1583177406642,6750255.0,1.0010527E7,0.0
1583177406678,6793644.0,1.0094121E7,0.0
1583177406724,6806117.0,1.0132877E7,0.0
1583177406777,6784994.0,1.0166742E7,0.0
1583177406819,6764502.0,1.0173751E7,0.0
1583177406874,6757480.0,1.0195947E7,0.0
1583177406925,6731668.0,1.0200876E7,0.0
1583177406970,6698189.0,1.0175387E7,0.0
1583177407020,6658080.0,1.01549E7,0.0
1583177407066,6635600.0,1.0145158E7,0.0
1583177407116,6638452.0,1.0138326E7,0.0
1583177407159,6652067.0,1.012583E7,0.0
1583177407213,6664989.0,1.0121267E7,0.0
1583177407263,6704797.0,1.013559E7,0.0
1583177407304,6753288.0,1.0138596E7,0.0
1583177407359,6796609.0,1.0160619E7,0.0
1583177407401,6808453.0,1.0175771E7,0.0
1583177407454,6742155.0,1.0138461E7,0.0
1583177407503,6877931.0,1.0020729E7,0.0
1583177407551,6976419.0,1.0071922E7,0.0
1583177407597,6997789.0,1.012683E7,0.0
1583177407647,7062530.0,1.0126003E7,0.0
1583177407698,7112028.0,1.0157211E7,0.0
1583177407739,7127385.0,1.0231507E7,0.0
1583177407794,7100067.0,1.031435E7,0.0
1583177407842,7041690.0,1.034791E7,0.0
1583177407890,6977943.0,1.0336664E7,0.0
1583177407940,6924564.0,1.0318951E7,0.0
1583177407986,6841519.0,1.0243155E7,0.0
1583177408036,6784384.0,1.016185E7,0.0
1583177408079,6722161.0,1.0087209E7,0.0
1583177408128,6637124.0,9883959.0,0.0
1583177408182,6555138.0,9672759.0,0.0
1583177408230,6480211.0,9533253.0,0.0
1583177408279,6369565.0,9283874.0,0.0
1583177408321,6181902.0,8913664.0,0.0
1583177408375,6027389.0,8623121.0,0.0
1583177408421,5919327.0,8409631.0,0.0
1583177408473,5836695.0,8237512.0,0.0
1583177408521,5763902.0,8079138.0,0.0
1583177408568,5680226.0,7917550.0,0.0
1583177408619,5604634.0,7766282.0,0.0
1583177408661,5551109.0,7648764.0,0.0
1583177408714,5529126.0,7591296.0,0.0
1583177408765,5524122.0,7555698.0,0.0
1583177408811,5534279.0,7548094.0,0.0
1583177408860,5551324.0,7564132.0,0.0
1583177408909,5568768.0,7599477.0,0.0
1583177408958,5627216.0,7708834.0,0.0
1583177409000,5703552.0,7826487.0,0.0
1583177409054,5762744.0,7936148.0,0.0
1583177409104,5778979.0,7960448.0,0.0
1583177409148,5757309.0,7880240.0,0.0
1583177409197,5727654.0,7813009.0,0.0
1583177409243,5703519.0,7742813.0,0.0
1583177409293,5732575.0,7802364.0,0.0
1583177409341,5789946.0,7918301.0,0.0
1583177409389,5862670.0,8041634.0,0.0
1583177409439,5885249.0,8112736.0,0.0
1583177409486,5876271.0,8068376.0,0.0
1583177409536,6062874.0,8194442.0,0.0
1583177409583,6181521.0,8360825.0,0.0
1583177409632,6247007.0,8433964.0,0.0
1583177409681,6269803.0,8444267.0,0.0
1583177409728,6272503.0,8441395.0,0.0
1583177409778,6250752.0,8402065.0,0.0
1583177409825,6218579.0,8296946.0,0.0
1583177409875,6188692.0,8169800.0,0.0
1583177409923,6167340.0,8131200.0,0.0
1583177409970,6155130.0,8107748.0,0.0
1583177410023,6161029.0,8108844.0,0.0
1583177410071,6150194.0,8089689.0,0.0
1583177410122,6129056.0,8046872.0,0.0
1583177410162,6115122.0,8019628.0,0.0
1583177410214,6115438.0,8017857.0,0.0
1583177410261,6104769.0,8019919.0,0.0
1583177410310,6098473.0,8011890.0,0.0
1583177410360,6114429.0,8023711.0,0.0
1583177410407,6124832.0,8028042.0,0.0
1583177410457,6136379.0,8039420.0,0.0
1583177410504,6146351.0,8063543.0,0.0
1583177410553,6145905.0,8046969.0,0.0
1583177410602,6123954.0,7932820.0,0.0
1583177410653,6109457.0,7876120.0,0.0
1583177410703,6132533.0,7940943.0,0.0
1583177410750,6187186.0,8045062.0,0.0
1583177410801,6303779.0,8151586.0,0.0
1583177410843,6438545.0,8244365.0,0.0
1583177410896,6530390.0,8274476.0,0.0
1583177410945,6601954.0,8333716.0,0.0
1583177410993,6663019.0,8375669.0,0.0
1583177411042,6709122.0,8408091.0,0.0
1583177411088,6758024.0,8436255.0,0.0
1583177411138,6784845.0,8518908.0,0.0
1583177411184,6781252.0,8680669.0,0.0
1583177411235,6830452.0,8839887.0,0.0
1583177411282,6890737.0,9003765.0,0.0
1583177411332,6997274.0,9157057.0,0.0
1583177411380,6934042.0,9083820.0,0.0
1583177411423,6868125.0,9030548.0,0.0
1583177411478,7021678.0,9075272.0,0.0
1583177411527,7107673.0,9195232.0,0.0
1583177411575,7118160.0,9225191.0,0.0
1583177411624,7132505.0,9281968.0,0.0
1583177411671,7151755.0,9293076.0,0.0
1583177411721,7158447.0,9270725.0,0.0
1583177411767,7152699.0,9224112.0,0.0
1583177411818,7159608.0,9152550.0,0.0
1583177411865,7153527.0,9120494.0,0.0
1583177411909,7160784.0,9115682.0,0.0
1583177411963,7166946.0,9106788.0,0.0
1583177412007,7168005.0,9103920.0,0.0
1583177412056,7167791.0,9120747.0,0.0
1583177412105,7166216.0,9129388.0,0.0
1583177412156,7154024.0,9137629.0,0.0
1583177412205,7128114.0,9131488.0,0.0
1583177412253,7105702.0,9123788.0,0.0
1583177412304,7094667.0,9125133.0,0.0
1583177412343,7075584.0,9122189.0,0.0
1583177412399,7055422.0,9107653.0,0.0
1583177412445,7039154.0,9098741.0,0.0
1583177412495,7047554.0,9115834.0,0.0
1583177412545,7077438.0,9149817.0,0.0
1583177412593,7094188.0,9181526.0,0.0
1583177412642,7097930.0,9206766.0,0.0
1583177412684,7088023.0,9217681.0,0.0
1583177412738,7161894.0,9270569.0,0.0
1583177412786,7174849.0,9385565.0,0.0
1583177412834,7198175.0,9438491.0,0.0
1583177412883,7156709.0,9408110.0,0.0
1583177412926,7028435.0,9271859.0,0.0
1583177412982,6933843.0,9090480.0,0.0
1583177413029,6833253.0,8884594.0,0.0
1583177413077,6759617.0,8710240.0,0.0
1583177413125,6692938.0,8574221.0,0.0
1583177413173,6646072.0,8469486.0,0.0
1583177413223,6620112.0,8457724.0,0.0
1583177413264,6640836.0,8521603.0,0.0
1583177413321,6646402.0,8645590.0,0.0
1583177413367,6619400.0,8761665.0,0.0
1583177413416,6567182.0,8833228.0,0.0
1583177413464,6495517.0,8840389.0,0.0
1583177413509,6461788.0,8866418.0,0.0
1583177413561,6440037.0,8917130.0,0.0
1583177413606,6459636.0,8985766.0,0.0
1583177413659,6502176.0,9058521.0,0.0
1583177413707,6570114.0,9121958.0,0.0
1583177413754,6715549.0,9151221.0,0.0
1583177413805,6722027.0,9134491.0,0.0
1583177413847,6579491.0,9094368.0,0.0
1583177413901,6671633.0,9105594.0,0.0
1583177413947,6696879.0,9126559.0,0.0
1583177413998,6740334.0,9037768.0,0.0
1583177414046,6627518.0,8998586.0,0.0
1583177414094,6584709.0,8951091.0,0.0
1583177414143,6569070.0,8943757.0,0.0
1583177414185,6609509.0,9012469.0,0.0
1583177414237,6583418.0,9043774.0,0.0
1583177414281,6567447.0,9038131.0,0.0
1583177414333,6562643.0,9035976.0,0.0
1583177414381,6542216.0,9020035.0,0.0
1583177414429,6463410.0,8940599.0,0.0
1583177414479,6359706.0,8730496.0,0.0
1583177414527,6256616.0,8512633.0,0.0
1583177414575,6164539.0,8311787.0,0.0
1583177414623,6042100.0,8104745.0,0.0
1583177414671,5880364.0,7880067.0,0.0
1583177414725,5686158.0,7659644.0,0.0
1583177414769,5556179.0,7461995.0,0.0
1583177414820,5482972.0,7279788.0,0.0
1583177414867,5479031.0,7108189.0,0.0
1583177414918,5490527.0,6940941.0,0.0
1583177414965,5463688.0,6790905.0,0.0
1583177415015,5383557.0,6672539.0,0.0
1583177415063,5273311.0,6500462.0,0.0
1583177415106,5151249.0,6280095.0,0.0
1583177415160,5031296.0,6098656.0,0.0
1583177415208,4650945.0,5958441.0,0.0
1583177415258,4427977.0,5843732.0,0.0
1583177415308,4283727.0,5413304.0,0.0
1583177415350,4219818.0,5136483.0,0.0
1583177415404,4162113.0,5092147.0,0.0
1583177415448,4128544.0,5034058.0,0.0
1583177415500,4109850.0,4992714.0,0.0
1583177415548,4088159.0,4958017.0,0.0
1583177415597,4050064.0,4941891.0,0.0
1583177415644,4030984.0,4922880.0,0.0
1583177415690,4007952.0,4904603.0,0.0
1583177415743,3960543.0,4841295.0,0.0
1583177415788,3899834.0,4757031.0,0.0
1583177415840,3841609.0,4690278.0,0.0
1583177415887,3812819.0,4653819.0,0.0
1583177415937,3779963.0,4646825.0,0.0
1583177415985,3760729.0,4633795.0,0.0
1583177416028,3730523.0,4616441.0,0.0
1583177416082,3701038.0,4600962.0,0.0
1583177416130,3678500.0,4600108.0,0.0
1583177416180,3665594.0,4604678.0,0.0
1583177416227,3658668.0,4617048.0,0.0
1583177416276,3659093.0,4633355.0,0.0
1583177416324,3656606.0,4643353.0,0.0
1583177416369,3651232.0,4651203.0,0.0
1583177416421,3624801.0,4607439.0,0.0
1583177416469,3580544.0,4544467.0,0.0
1583177416514,3549750.0,4508848.0,0.0
1583177416566,3543344.0,4501517.0,0.0
1583177416614,3535370.0,4503254.0,0.0
1583177416664,3539588.0,4509614.0,0.0
1583177416709,3530130.0,4502555.0,0.0
1583177416760,3513494.0,4495366.0,0.0
1583177416808,3515026.0,4501273.0,0.0
1583177416858,3526345.0,4519456.0,0.0
1583177416905,3533742.0,4538419.0,0.0
1583177416949,3544297.0,4559634.0,0.0
1583177417003,3550943.0,4580098.0,0.0
1583177417050,3557138.0,4597946.0,0.0
1583177417101,3553564.0,4584073.0,0.0
1583177417147,3519995.0,4524404.0,0.0
1583177417196,3496293.0,4485017.0,0.0
1583177417246,3483326.0,4475601.0,0.0
1583177417291,3493566.0,4480330.0,0.0
1583177417343,3494578.0,4494810.0,0.0
1583177417389,3494645.0,4496311.0,0.0
1583177417440,3492882.0,4504110.0,0.0
1583177417486,3494481.0,4514380.0,0.0
1583177417530,3509304.0,4536552.0,0.0
1583177417585,3522645.0,4559166.0,0.0
1583177417634,3561356.0,4582972.0,0.0
1583177417680,3572453.0,4598800.0,0.0
1583177417728,3570478.0,4622475.0,0.0
1583177417779,3570352.0,4645310.0,0.0
1583177417827,3550309.0,4620376.0,0.0
1583177417872,3516424.0,4558480.0,0.0
1583177417919,3486650.0,4532966.0,0.0
1583177417972,3481498.0,4532796.0,0.0
1583177418020,3483771.0,4539429.0,0.0
1583177418067,3521594.0,4551773.0,0.0
1583177418117,3561155.0,4575448.0,0.0
1583177418166,3606146.0,4619354.0,0.0
1583177418212,3639962.0,4680615.0,0.0
1583177418262,3667067.0,4755386.0,0.0
1583177418313,3725813.0,4875708.0,0.0
1583177418360,3803408.0,5054170.0,0.0
1583177418408,3902000.0,5258214.0,0.0
1583177418451,4023249.0,5462942.0,0.0
1583177418505,4102172.0,5587085.0,0.0
1583177418553,4164106.0,5656233.0,0.0
1583177418602,4198753.0,5695776.0,0.0
1583177418649,4227013.0,5690400.0,0.0
1583177418699,4303693.0,5771713.0,0.0
1583177418747,4358509.0,5895261.0,0.0
1583177418794,4447681.0,6061898.0,0.0
1583177418844,4564884.0,6209042.0,0.0
1583177418892,4667089.0,6330167.0,0.0
1583177418941,4744163.0,6462003.0,0.0
1583177418989,4795694.0,6622282.0,0.0
1583177419034,4846175.0,6772847.0,0.0
1583177419086,4893614.0,6888648.0,0.0
1583177419136,4930726.0,6980801.0,0.0
1583177419182,4961576.0,7043293.0,0.0
1583177419231,4982786.0,7070789.0,0.0
1583177419277,4986697.0,7111847.0,0.0
1583177419329,4996551.0,7166838.0,0.0
1583177419372,5010978.0,7225369.0,0.0
1583177419426,5023731.0,7259689.0,0.0
1583177419474,5037062.0,7281177.0,0.0
1583177419519,5046511.0,7220331.0,0.0
1583177419570,5008745.0,7256738.0,0.0
1583177419620,5010931.0,7421316.0,0.0
1583177419667,5037795.0,7539851.0,0.0
1583177419713,5043313.0,7614608.0,0.0
1583177419764,5056991.0,7686258.0,0.0
1583177419813,5070398.0,7732482.0,0.0
1583177419861,5091116.0,8224008.0,0.0
1583177419909,5115235.0,8294187.0,0.0
1583177419958,5141916.0,8314068.0,0.0
1583177420005,5156423.0,8321888.0,0.0
1583177420055,5167817.0,8324299.0,0.0
1583177420104,5180714.0,8337658.0,0.0
1583177420152,5195180.0,8340424.0,0.0
1583177420203,5206479.0,8348439.0,0.0
1583177420248,5213606.0,8342999.0,0.0
1583177420297,5222430.0,8357216.0,0.0
1583177420345,5228208.0,8366525.0,0.0
1583177420395,5239931.0,8398693.0,0.0
1583177420445,5254485.0,8415255.0,0.0
1583177420490,5259215.0,8422266.0,0.0
1583177420536,5263404.0,8434114.0,0.0
1583177420587,5267787.0,8454612.0,0.0
1583177420638,5272179.0,8476954.0,0.0
1583177420685,5277033.0,8499668.0,0.0
1583177420733,5289218.0,8533181.0,0.0
1583177420782,5294805.0,8553565.0,0.0
1583177420830,5311160.0,8584517.0,0.0
1583177420875,5316563.0,8612590.0,0.0
1583177420926,5325078.0,8644049.0,0.0
1583177420975,5334623.0,8675101.0,0.0
1583177421023,5338544.0,8695627.0,0.0
1583177421071,5349148.0,8705163.0,0.0
1583177421116,5347386.0,8713646.0,0.0
1583177421168,5354697.0,8730888.0,0.0
1583177421215,5354032.0,8744197.0,0.0
1583177421266,5360514.0,8760128.0,0.0
1583177421317,5358116.0,8772642.0,0.0
1583177421364,5364742.0,8804584.0,0.0
1583177421411,5369770.0,8825518.0,0.0
1583177421460,5378159.0,8856084.0,0.0
1583177421508,5391000.0,8873975.0,0.0
1583177421555,5401951.0,8895877.0,0.0
1583177421606,5408723.0,8908247.0,0.0
1583177421654,5425068.0,8939898.0,0.0
1583177421704,5426338.0,8943834.0,0.0
1583177421751,5427417.0,8946667.0,0.0
1583177421801,5437098.0,8967130.0,0.0
1583177421848,5439362.0,8996384.0,0.0
1583177421896,5453925.0,9024506.0,0.0
1583177421946,5456835.0,9025995.0,0.0
1583177421993,5456284.0,9030109.0,0.0
1583177422038,5452066.0,9031904.0,0.0
1583177422090,5460329.0,9032989.0,0.0
1583177422140,5461245.0,9039060.0,0.0
1583177422187,5466061.0,9043755.0,0.0
1583177422235,5473747.0,9056660.0,0.0
1583177422285,5473064.0,9064413.0,0.0
1583177422333,5479643.0,9063944.0,0.0
1583177422378,5481067.0,9083438.0,0.0
1583177422428,5481242.0,9089687.0,0.0
1583177422478,5481510.0,9103560.0,0.0
1583177422525,5486933.0,9115979.0,0.0
1583177422575,5485143.0,9122242.0,0.0
1583177422622,5487607.0,9120302.0,0.0
1583177422670,5495584.0,9121952.0,0.0
1583177422718,5493946.0,9130402.0,0.0
1583177422768,5503095.0,9143712.0,0.0
1583177422817,5503790.0,9143776.0,0.0
1583177422865,5515272.0,9156599.0,0.0
1583177422914,5521204.0,9159624.0,0.0
1583177422957,5533255.0,9158784.0,0.0
1583177423009,5544051.0,9170749.0,0.0
1583177423057,5554878.0,9178292.0,0.0
1583177423108,5558229.0,9188250.0,0.0
1583177423156,5562853.0,9195307.0,0.0
1583177423203,5570750.0,9204343.0,0.0
1583177423252,5569509.0,9212712.0,0.0
1583177423298,5568796.0,9215528.0,0.0
1583177423349,5575885.0,9224238.0,0.0
1583177423399,5581596.0,9232642.0,0.0
1583177423446,5584351.0,9247941.0,0.0
1583177423496,5587212.0,9255080.0,0.0
1583177423538,5590026.0,9259159.0,0.0
1583177423592,5600841.0,9268389.0,0.0
1583177423641,5615492.0,9276936.0,0.0
1583177423688,5627261.0,9280224.0,0.0
1583177423739,5630122.0,9284302.0,0.0
1583177423787,5633696.0,9286827.0,0.0
1583177423835,5643859.0,9293451.0,0.0
1583177423882,5647508.0,9293111.0,0.0
1583177423932,5642500.0,9287898.0,0.0
1583177423982,5632751.0,9284221.0,0.0
1583177424024,5626916.0,9263095.0,0.0
1583177424074,5628466.0,9257963.0,0.0
1583177424121,5644647.0,9288689.0,0.0
1583177424175,5639621.0,9287703.0,0.0
1583177424222,5648847.0,9302711.0,0.0
1583177424271,5660068.0,9324840.0,0.0
1583177424326,5660310.0,9337826.0,0.0
1583177424367,5733528.0,9342231.0,0.0
1583177424419,5723668.0,9328177.0,0.0
1583177424460,5724787.0,9318917.0,0.0
1583177424514,5718229.0,9288916.0,0.0
1583177424563,5710947.0,9267464.0,0.0
1583177424612,5711343.0,9266155.0,0.0
1583177424664,5705453.0,9269067.0,0.0
1583177424709,5703519.0,9259045.0,0.0
1583177424758,5701914.0,9254804.0,0.0
1583177424801,5703237.0,9251874.0,0.0
1583177424854,5695492.0,9238388.0,0.0
1583177424903,5703157.0,9225291.0,0.0
1583177424951,5719938.0,9242097.0,0.0
1583177425000,5722628.0,9246176.0,0.0
1583177425049,5733731.0,9258949.0,0.0
1583177425097,5737327.0,9269408.0,0.0
1583177425140,5740572.0,9279089.0,0.0
1583177425194,5741092.0,9278149.0,0.0
1583177425246,5731752.0,9276305.0,0.0
1583177425289,5730531.0,9274103.0,0.0
1583177425341,5728146.0,9277649.0,0.0
1583177425382,5729332.0,9271301.0,0.0
1583177425437,5731695.0,9261216.0,0.0
1583177425480,5730169.0,9260439.0,0.0
1583177425532,5731130.0,9259758.0,0.0
1583177425581,5736309.0,9260162.0,0.0
1583177425630,5736366.0,9253963.0,0.0
1583177425679,5745570.0,9262673.0,0.0
1583177425722,5743128.0,9266673.0,0.0
1583177425776,5749528.0,9259840.0,0.0
1583177425822,5745954.0,9260907.0,0.0
1583177425873,5747175.0,9264552.0,0.0
1583177425916,5745015.0,9274312.0,0.0
1583177425969,5749640.0,9269957.0,0.0
1583177426019,5752864.0,9280401.0,0.0
1583177426060,5757545.0,9280709.0,0.0
1583177426114,5759658.0,9288512.0,0.0
1583177426162,5754628.0,9283136.0,0.0
1583177426210,5764815.0,9290132.0,0.0
1583177426368,5768218.0,9295796.0,0.0
1583177426368,5780508.0,9312229.0,0.0
1583177426369,5780508.0,9327060.0,0.0
1583177426519,5776790.0,9318059.0,0.0
1583177426520,5770311.0,9319013.0,0.0
1583177426520,5767009.0,9329489.0,0.0
1583177426558,5769813.0,9333309.0,0.0
1583177426599,5767901.0,9344058.0,0.0
1583177426643,5775274.0,9350016.0,0.0
1583177426696,5772899.0,9349079.0,0.0
1583177426923,5792201.0,9377684.0,0.0
1583177426923,5792483.0,9385053.0,0.0
1583177426983,5799279.0,9392514.0,0.0
1583177426993,5800897.0,9398763.0,0.0
1583177427030,5813300.0,9404480.0,0.0
1583177427083,5819891.0,9409076.0,0.0
1583177427131,5811220.0,9409547.0,0.0
1583177427181,5815663.0,9432098.0,0.0
1583177427228,5822029.0,9435627.0,0.0
1583177427277,5825523.0,9450571.0,0.0
1583177427328,5827886.0,9450862.0,0.0
1583177427374,5829707.0,9466632.0,0.0
1583177427424,5830024.0,9466065.0,0.0
1583177427470,5836615.0,9483243.0,0.0
1583177427519,5831470.0,9481088.0,0.0
1583177427566,5838571.0,9482562.0,0.0
1583177427616,5836107.0,9493684.0,0.0
1583177427665,5838197.0,9491063.0,0.0
1583177427712,5836887.0,9498120.0,0.0
1583177427761,5834410.0,9497344.0,0.0
1583177427809,5834817.0,9495124.0,0.0
1583177427852,5830011.0,9503770.0,0.0
1583177427901,5835428.0,9507202.0,0.0
1583177427949,5837316.0,9511802.0,0.0
1583177428004,5838401.0,9914976.0,0.0
1583177428051,5841601.0,9920096.0,0.0
1583177428100,5827931.0,9890120.0,0.0
1583177428144,5785766.0,9854886.0,0.0
1583177428198,5785224.0,9835924.0,0.0
1583177428243,5812711.0,9864032.0,0.0
1583177428294,5830544.0,9923445.0,0.0
1583177428344,5809511.0,9994873.0,0.0
1583177428386,5767111.0,1.0027315E7,0.0
1583177428440,5753337.0,1.0043215E7,0.0
1583177428485,5735190.0,1.0071403E7,0.0
1583177428537,5740765.0,1.0055268E7,0.0
1583177428583,5778056.0,1.0028855E7,0.0
1583177428633,5763051.0,9999705.0,0.0
1583177428683,5735507.0,9965301.0,0.0
1583177428730,5634704.0,9870425.0,0.0
1583177428780,5663809.0,9783593.0,0.0
1583177428823,5766556.0,9811781.0,0.0
1583177428876,5757838.0,9874331.0,0.0
1583177428924,5672933.0,9848437.0,0.0
1583177428973,5632262.0,9627495.0,0.0
1583177429021,5687180.0,9621604.0,0.0
1583177429065,5709545.0,9724952.0,0.0
1583177429118,5725748.0,9805792.0,0.0
1583177429167,5762192.0,9826355.0,0.0
1583177429215,5773498.0,9872484.0,0.0
1583177429263,5792077.0,9915533.0,0.0
1583177429310,5798306.0,9994662.0,0.0
1583177429360,5781652.0,1.002718E7,0.0
1583177429406,5796666.0,1.0042544E7,0.0
1583177429458,5814532.0,1.006274E7,0.0
1583177429506,5837033.0,1.0088171E7,0.0
1583177429554,5845910.0,1.009418E7,0.0
1583177429603,5850725.0,1.0100898E7,0.0
1583177429649,5855339.0,1.0098086E7,0.0
1583177429701,5860880.0,1.0109927E7,0.0
1583177429746,5868162.0,1.0123578E7,0.0
1583177429797,5875250.0,1.0132684E7,0.0
1583177429845,5881957.0,1.0139692E7,0.0
1583177429894,5895141.0,1.0166316E7,0.0
1583177429943,5901935.0,1.0182413E7,0.0
1583177429990,5900285.0,1.0182915E7,0.0
1583177430040,5899461.0,1.0174865E7,0.0
1583177430086,5898985.0,1.0174038E7,0.0
1583177430136,5905623.0,1.0188516E7,0.0
1583177430185,5905623.0,1.0184126E7,0.0
1583177430232,5909207.0,1.0186284E7,0.0
1583177430282,5909445.0,1.0187073E7,0.0
1583177430324,5911919.0,1.0189536E7,0.0
1583177430381,5917811.0,1.0190536E7,0.0
1583177430426,5924947.0,1.0191443E7,0.0
1583177430471,5922334.0,1.0202627E7,0.0
1583177430520,5928870.0,1.0199046E7,0.0
1583177430573,5931030.0,1.0205941E7,0.0
1583177430622,5936286.0,1.0208733E7,0.0
1583177430665,5937814.0,1.0211715E7,0.0
1583177430719,5941692.0,1.021495E7,0.0
1583177430766,5937576.0,1.0222419E7,0.0
1583177430815,5938446.0,1.0212718E7,0.0
1583177430865,5932962.0,1.0217876E7,0.0
1583177430913,5936298.0,1.0208674E7,0.0
1583177430962,5935461.0,1.0205111E7,0.0
1583177431007,5929264.0,1.0211618E7,0.0
1583177431058,5931617.0,1.0208771E7,0.0
1583177431106,5931448.0,1.0210463E7,0.0
1583177431150,5922108.0,1.0208906E7,0.0
1583177431204,5919045.0,1.0199046E7,0.0
1583177431248,5923238.0,1.0199569E7,0.0
1583177431300,5928068.0,1.020261E7,0.0
1583177431347,5936514.0,1.0206882E7,0.0
1583177431397,5935993.0,1.0215334E7,0.0
1583177431445,5923216.0,1.021982E7,0.0
1583177431494,5913266.0,1.0214583E7,0.0
1583177431542,5916625.0,1.021214E7,0.0
1583177431586,5918636.0,1.0211002E7,0.0
1583177431640,5927354.0,1.0215894E7,0.0
1583177431687,5925591.0,1.0219281E7,0.0
1583177431736,5919689.0,1.0219668E7,0.0
1583177431784,5921452.0,1.021395E7,0.0
1583177431831,5927003.0,1.0215334E7,0.0
1583177431881,5919270.0,1.0213216E7,0.0
1583177431929,5921338.0,1.0213161E7,0.0
1583177431978,5922775.0,1.0201513E7,0.0
1583177432026,5942381.0,1.0199067E7,0.0
1583177432071,5956234.0,1.0207577E7,0.0
1583177432125,5958223.0,1.0228061E7,0.0
1583177432167,5961943.0,1.0231392E7,0.0
1583177432221,5965448.0,1.0242847E7,0.0
1583177432268,5962406.0,1.0253031E7,0.0
1583177432319,5961965.0,1.0251336E7,0.0
1583177432367,5973443.0,1.0257885E7,0.0
1583177432415,5986738.0,1.0258944E7,0.0
1583177432464,5992076.0,1.0277867E7,0.0
1583177432508,5994644.0,1.0274054E7,0.0
1583177432557,5998104.0,1.0294137E7,0.0
1583177432608,5950138.0,1.029662E7,0.0
1583177432658,5886480.0,1.0216088E7,0.0
1583177432706,5794202.0,1.0037517E7,0.0
1583177432755,5813050.0,9979374.0,0.0
1583177432804,5879017.0,1.001838E7,0.0
1583177432846,5919689.0,1.0002594E7,0.0
1583177432901,5935169.0,1.0037403E7,0.0
1583177432948,5952875.0,1.0051881E7,0.0
1583177432998,5956311.0,1.0071247E7,0.0
1583177433046,5961467.0,1.0078315E7,0.0
1583177433093,5960179.0,1.0094813E7,0.0
1583177433144,5951766.0,1.0089655E7,0.0
1583177433189,5947979.0,1.0085417E7,0.0
1583177433241,5937383.0,1.0080027E7,0.0
1583177433287,5938944.0,1.0075274E7,0.0
1583177433338,5942156.0,1.0057098E7,0.0
1583177433385,5956447.0,1.0075232E7,0.0
1583177433428,5972120.0,1.0092523E7,0.0
1583177433483,5961740.0,1.010159E7,0.0
1583177433529,5970560.0,1.0113584E7,0.0
1583177433579,5988244.0,1.0112276E7,0.0
1583177433627,6009896.0,1.0117417E7,0.0
1583177433671,6021634.0,1.0155554E7,0.0
1583177433723,6008720.0,1.0169496E7,0.0
1583177433769,6007600.0,1.0173768E7,0.0
1583177433821,6004006.0,1.0180313E7,0.0
1583177433869,5999697.0,1.019283E7,0.0
1583177433914,5998679.0,1.0192366E7,0.0
1583177433966,6007521.0,1.019E7,0.0
1583177434013,6016048.0,1.0201935E7,0.0
1583177434064,6024618.0,1.0206827E7,0.0
1583177434112,6029886.0,1.0235129E7,0.0
1583177434156,6021780.0,1.0223304E7,0.0
1583177434208,6016997.0,1.0228196E7,0.0
1583177434258,5998545.0,1.0225328E7,0.0
1583177434306,6004628.0,1.023168E7,0.0
1583177434349,5996283.0,1.0223979E7,0.0
1583177434403,5998000.0,1.023068E7,0.0
1583177434449,5998634.0,1.0216915E7,0.0
1583177434500,6002287.0,1.0213815E7,0.0
1583177434546,6015053.0,1.0231565E7,0.0
1583177434595,6014904.0,1.0233357E7,0.0
1583177434645,6016670.0,1.024741E7,0.0
1583177434691,6004469.0,1.0273843E7,0.0
1583177434741,6001936.0,1.0304321E7,0.0
1583177434790,6024708.0,1.0305359E7,0.0
1583177434840,6030419.0,1.0294867E7,0.0
1583177434886,6048430.0,1.0295967E7,0.0
1583177434930,6062971.0,1.0304861E7,0.0
1583177434984,6075375.0,1.0264852E7,0.0
1583177435031,6083947.0,1.0228753E7,0.0
1583177435080,6082025.0,1.0185994E7,0.0
1583177435127,6077750.0,1.0141173E7,0.0
1583177435179,6053508.0,1.0102206E7,0.0
1583177435226,6064249.0,1.0070846E7,0.0
1583177435272,6074380.0,1.0097529E7,0.0
1583177435324,6055147.0,1.0106655E7,0.0
1583177435369,6010869.0,1.0087711E7,0.0
1583177435422,5936999.0,9993485.0,0.0
1583177435467,5897301.0,9908023.0,0.0
1583177435513,5949222.0,9950322.0,0.0
1583177435565,5967122.0,9971442.0,0.0
1583177435616,5983290.0,9996066.0,0.0
1583177435663,5923622.0,9915648.0,0.0
1583177435710,5903292.0,9867056.0,0.0
1583177435760,5925239.0,9886000.0,0.0
1583177435807,5936841.0,9894991.0,0.0
1583177435853,5931030.0,9901747.0,0.0
1583177435905,5928462.0,9925178.0,0.0
1583177435952,5932070.0,9944025.0,0.0
1583177436001,5949980.0,9953190.0,0.0
1583177436049,5966250.0,9947281.0,0.0
1583177436098,5960766.0,9931167.0,0.0
1583177436146,5962406.0,9913184.0,0.0
1583177436193,5957883.0,9902941.0,0.0
1583177436244,5958958.0,9906985.0,0.0
1583177436292,5961559.0,9920750.0,0.0
1583177436342,5966612.0,9925486.0,0.0
1583177436388,6010847.0,1.0005846E7,0.0
1583177436435,6015979.0,1.0055884E7,0.0
1583177436486,6009274.0,1.0055116E7,0.0
1583177436533,6006617.0,1.0032975E7,0.0
1583177436585,6010790.0,1.0005192E7,0.0
1583177436631,6015414.0,1.001089E7,0.0
1583177436681,6017042.0,1.0025755E7,0.0
1583177436728,6022617.0,1.0021209E7,0.0
1583177436774,6024187.0,1.0020556E7,0.0
1583177436826,6035145.0,1.002223E7,0.0
1583177436872,6035630.0,1.0027315E7,0.0
1583177436922,6047548.0,1.0033975E7,0.0
1583177436970,6055395.0,1.0051438E7,0.0
1583177437020,6059580.0,1.0056828E7,0.0
1583177437066,6065448.0,1.0070112E7,0.0
1583177437117,6068931.0,1.007479E7,0.0
1583177437160,6075058.0,1.0079104E7,0.0
1583177437212,6081505.0,1.0081646E7,0.0
1583177437261,6097538.0,1.0096027E7,0.0
1583177437308,6109954.0,1.0111584E7,0.0
1583177437352,6118615.0,1.0109927E7,0.0
1583177437406,6129221.0,1.0108616E7,0.0
1583177437453,6132069.0,1.010496E7,0.0
1583177437504,6135472.0,1.0120112E7,0.0
1583177437551,6143727.0,1.0100725E7,0.0
1583177437602,6143806.0,1.0134493E7,0.0
1583177437649,6132443.0,1.0154748E7,0.0
1583177437694,6119541.0,1.017966E7,0.0
1583177437744,6088888.0,1.0172613E7,0.0
1583177437793,6030894.0,1.0093197E7,0.0
1583177437843,5993071.0,9949474.0,0.0
1583177437890,5976259.0,9799403.0,0.0
1583177437934,5959161.0,9718597.0,0.0
1583177437987,5926834.0,9635985.0,0.0
1583177438035,5900422.0,9542341.0,0.0
1583177438084,5885801.0,9494285.0,0.0
1583177438132,5898374.0,9463078.0,0.0
1583177438182,5905147.0,9459687.0,0.0
1583177438228,5894428.0,9424916.0,0.0
1583177438275,5877117.0,9309962.0,0.0
1583177438325,5849923.0,9192174.0,0.0
1583177438375,5837496.0,9144714.0,0.0
1583177438418,5827049.0,9107518.0,0.0
1583177438470,5827173.0,9097700.0,0.0
1583177438514,5820220.0,9077929.0,0.0
1583177438567,5807827.0,9021827.0,0.0
1583177438616,5793466.0,8989886.0,0.0
1583177438665,5788604.0,8970018.0,0.0
1583177438712,5780045.0,8970516.0,0.0
1583177438761,5781028.0,8978833.0,0.0
1583177438810,5775240.0,8984496.0,0.0
1583177438855,5772832.0,8984320.0,0.0
1583177438906,5767868.0,8985150.0,0.0
1583177438955,5764475.0,8988827.0,0.0
1583177439004,5752139.0,8944719.0,0.0
1583177439052,5700037.0,8796125.0,0.0
1583177439097,5611513.0,8670944.0,0.0
1583177439148,5546530.0,8604986.0,0.0
1583177439197,5498951.0,8563864.0,0.0
1583177439349,5472526.0,8528401.0,0.0
1583177439349,5441353.0,8496363.0,0.0
1583177439349,5403755.0,8440067.0,0.0
1583177439663,5321644.0,8372203.0,0.0
1583177439663,5323601.0,8363692.0,0.0
1583177439663,5324730.0,8365388.0,0.0
1583177439705,5320864.0,8361883.0,0.0
1583177439766,5325194.0,8372376.0,0.0
1583177439781,5320468.0,8355127.0,0.0
1583177439827,5263425.0,8230157.0,0.0
1583177439876,5176405.0,8115276.0,0.0
1583177439926,5124380.0,8062024.0,0.0
1583177439973,5088367.0,8031373.0,0.0
1583177440017,5059646.0,8002822.0,0.0
1583177440175,5028597.0,7970265.0,0.0
1583177440175,4993783.0,7925715.0,0.0
1583177440175,4954910.0,7892272.0,0.0
1583177440245,4923475.0,7873501.0,0.0
1583177440342,4909240.0,7870401.0,0.0
1583177440344,4896609.0,7861853.0,0.0
1583177440374,4883006.0,7859449.0,0.0
1583177440405,4878348.0,7869381.0,0.0
1583177440459,4878892.0,7869457.0,0.0
1583177440506,4889067.0,7879468.0,0.0
1583177440555,4900703.0,7902342.0,0.0
1583177440598,4906955.0,7901765.0,0.0
1583177440651,4890437.0,7800821.0,0.0
1583177440698,4877716.0,7764320.0,0.0
1583177440748,4939849.0,7888038.0,0.0
1583177440797,4999096.0,8035283.0,0.0
1583177440846,5058346.0,8153126.0,0.0
1583177440893,5095852.0,8244307.0,0.0
1583177440942,5088402.0,8282485.0,0.0
1583177440990,5073284.0,8297561.0,0.0
1583177441040,5060880.0,8303567.0,0.0
1583177441086,5057985.0,8322684.0,0.0
1583177441136,5071892.0,8354124.0,0.0
1583177441270,5115889.0,8408129.0,0.0
1583177441270,5179536.0,8486486.0,0.0
1583177441299,5217054.0,8546092.0,0.0
1583177441459,5361625.0,8667056.0,0.0
1583177441475,5377048.0,8718502.0,0.0
1583177441522,5362690.0,8637581.0,0.0
1583177441571,5445625.0,8641162.0,0.0
1583177441622,5522708.0,8740718.0,0.0
1583177441667,5563706.0,8776835.0,0.0
1583177441718,5549470.0,8729281.0,0.0
1583177441760,5561750.0,8849629.0,0.0
1583177441814,5582770.0,8952517.0,0.0
1583177441863,5582522.0,8985496.0,0.0
1583177441906,5573985.0,8990481.0,0.0
1583177441959,5577738.0,9000129.0,0.0
1583177442004,5574211.0,8993774.0,0.0
1583177442057,5581527.0,8981355.0,0.0
1583177442099,5583347.0,8978698.0,0.0
1583177442152,5594032.0,8970592.0,0.0
1583177442204,5606119.0,8978162.0,0.0
1583177442249,5636603.0,8997566.0,0.0
1583177442299,5662045.0,8999050.0,0.0
1583177442341,5687044.0,8998261.0,0.0
1583177442395,5709196.0,9015801.0,0.0
1583177442443,5713515.0,9044524.0,0.0
1583177442492,5699437.0,9022055.0,0.0
1583177442541,5691205.0,8981241.0,0.0
1583177442589,5716963.0,9011023.0,0.0
1583177442638,5735710.0,9048569.0,0.0
1583177442680,5739249.0,9087169.0,0.0
1583177442734,5733166.0,9092694.0,0.0
1583177442781,5709941.0,9070073.0,0.0
1583177442830,5698816.0,9049240.0,0.0
1583177442880,5692812.0,9048105.0,0.0
1583177442928,5695390.0,9035955.0,0.0
1583177442977,5681086.0,8985129.0,0.0
1583177443019,5659727.0,8812163.0,0.0
1583177443073,5633052.0,8631690.0,0.0
1583177443121,5652264.0,8583444.0,0.0
1583177443165,5690865.0,8599365.0,0.0
1583177443220,5724619.0,8667731.0,0.0
1583177443262,5745152.0,8684692.0,0.0
1583177443316,5727670.0,8679745.0,0.0
1583177443360,5712621.0,8698457.0,0.0
1583177443413,5747616.0,8849262.0,0.0
1583177443456,5763730.0,8947587.0,0.0
1583177443506,5755928.0,8959467.0,0.0
1583177443555,5762690.0,8953807.0,0.0
1583177443603,5761050.0,9010930.0,0.0
1583177443650,5793964.0,9099952.0,0.0
1583177443701,5833018.0,9132374.0,0.0
1583177443746,5815968.0,9099720.0,0.0
1583177443801,5834851.0,9159887.0,0.0
1583177443848,5847163.0,9188324.0,0.0
1583177443898,5835314.0,9203916.0,0.0
1583177443943,5882430.0,9317777.0,0.0
1583177443988,5895196.0,9342439.0,0.0
1583177444042,5883471.0,9382946.0,0.0
1583177444090,5883698.0,9457013.0,0.0
1583177444139,5890629.0,9545053.0,0.0
1583177444182,5904922.0,9611091.0,0.0
1583177444231,5911773.0,9645765.0,0.0
1583177444284,5922696.0,9669175.0,0.0
1583177444332,5930181.0,9686714.0,0.0
1583177444381,5912350.0,9677052.0,0.0
1583177444429,5903191.0,9655392.0,0.0
1583177444479,5900365.0,9622586.0,0.0
1583177444521,5900669.0,9638448.0,0.0
1583177444575,5907917.0,9661263.0,0.0
1583177444623,5898884.0,9631519.0,0.0
1583177444670,5865742.0,9576167.0,0.0
1583177444721,5824087.0,9544015.0,0.0
1583177444765,5802977.0,9535640.0,0.0
1583177444817,5802388.0,9556203.0,0.0
1583177444863,5799064.0,9557856.0,0.0
1583177444913,5790663.0,9549540.0,0.0
1583177444962,5782068.0,9548288.0,0.0
1583177445009,5780926.0,9540182.0,0.0
1583177445060,5776292.0,9540704.0,0.0
1583177445101,5763254.0,9538490.0,0.0
1583177445155,5756040.0,9536390.0,0.0
1583177445202,5746249.0,9527555.0,0.0
1583177445252,5751970.0,9535429.0,0.0
1583177445300,5746950.0,9537913.0,0.0
1583177445347,5753112.0,9546440.0,0.0
1583177445398,5755916.0,9544804.0,0.0
1583177445447,5747718.0,9533754.0,0.0
1583177445494,5734727.0,9519757.0,0.0
1583177445543,5721825.0,9513866.0,0.0
1583177445591,5706945.0,9510206.0,0.0
1583177445640,5697617.0,9507435.0,0.0
1583177445686,5688232.0,9495323.0,0.0
1583177445737,5666704.0,9479036.0,0.0
1583177445786,5645163.0,9461555.0,0.0
1583177445833,5624561.0,9438512.0,0.0
1583177445882,5604536.0,9422588.0,0.0
1583177445929,5592799.0,9404858.0,0.0
1583177445979,5573804.0,9384776.0,0.0
1583177446023,5552355.0,9365137.0,0.0
1583177446071,5524618.0,9343961.0,0.0
1583177446124,5511808.0,9325284.0,0.0
1583177446167,5504390.0,9321260.0,0.0
1583177446219,5447627.0,9253915.0,0.0
1583177446267,5342969.0,9092715.0,0.0
1583177446318,5264802.0,8976408.0,0.0
1583177446365,5218738.0,8911432.0,0.0
1583177446415,5180598.0,8870441.0,0.0
1583177446576,5144246.0,8823735.0,0.0
1583177446576,5099176.0,8775680.0,0.0
1583177446576,5054616.0,8727278.0,0.0
1583177446730,5016025.0,8691912.0,0.0
1583177446730,4992392.0,8677106.0,0.0
1583177446730,4970626.0,8672947.0,0.0
1583177446761,4963445.0,8681534.0,0.0
1583177446799,4958764.0,8703349.0,0.0
1583177446844,4965164.0,8732979.0,0.0
1583177446900,4972842.0,8762648.0,0.0
1583177446944,4981006.0,8794509.0,0.0
1583177446995,4984263.0,8824486.0,0.0
1583177447043,4971960.0,8829799.0,0.0
1583177447092,4949605.0,8870652.0,0.0
1583177447142,4942449.0,8907620.0,0.0
1583177447183,4977501.0,8954866.0,0.0
1583177447351,5021338.0,9007270.0,0.0
1583177447352,5058549.0,9049433.0,0.0
1583177447352,5096281.0,9090864.0,0.0
1583177447405,5141363.0,9121363.0,0.0
1583177447509,5205430.0,9120650.0,0.0
1583177447510,5263548.0,9116239.0,0.0
1583177447538,5283041.0,9106248.0,0.0
1583177447683,5285835.0,9074366.0,0.0
1583177447687,5315888.0,9073269.0,0.0
1583177447688,5354479.0,9130409.0,0.0
1583177447734,5369281.0,9158213.0,0.0
1583177447783,5377852.0,9182661.0,0.0
1583177447815,5367064.0,9177734.0,0.0
1583177447864,5355430.0,9163582.0,0.0
1583177447911,5337350.0,9163236.0,0.0
1583177447961,5340560.0,9177292.0,0.0
1583177448009,5321146.0,9156978.0,0.0
1583177448056,5312079.0,9145561.0,0.0
1583177448104,5300376.0,9134280.0,0.0
1583177448155,5271677.0,9081029.0,0.0
1583177448207,5257352.0,9016126.0,0.0
1583177448255,5299098.0,9025369.0,0.0
1583177448304,5349843.0,9041712.0,0.0
1583177448351,5404015.0,9062081.0,0.0
1583177448401,5455193.0,9063392.0,0.0
1583177448446,5458866.0,9044410.0,0.0
1583177448498,5472142.0,9039000.0,0.0
1583177448546,5508766.0,9120494.0,0.0
1583177448589,5500714.0,9143022.0,0.0
1583177448640,5472516.0,9096236.0,0.0
1583177448687,5519416.0,9118107.0,0.0
1583177448736,5568952.0,9212502.0,0.0
1583177448787,5581854.0,9233314.0,0.0
1583177448837,5562372.0,9186418.0,0.0
1583177448885,5586887.0,9260288.0,0.0
1583177448934,5595808.0,9295830.0,0.0
1583177448983,5588638.0,9291807.0,0.0
1583177449028,5564544.0,9294270.0,0.0
1583177449080,5557059.0,9291149.0,0.0
1583177449127,5556142.0,9291111.0,0.0
1583177449171,5547617.0,9297235.0,0.0
1583177449225,5542562.0,9295366.0,0.0
1583177449268,5539124.0,9291073.0,0.0
1583177449322,5536219.0,9289648.0,0.0
1583177449370,5534240.0,9289323.0,0.0
1583177449419,5529344.0,9278252.0,0.0
1583177449467,5517754.0,9272631.0,0.0
1583177449510,5491850.0,9252300.0,0.0
1583177449565,5386806.0,9178060.0,0.0
1583177449606,5275194.0,9046932.0,0.0
1583177449661,5198362.0,8921655.0,0.0
1583177449708,5137269.0,8832477.0,0.0
1583177449758,5094653.0,8765900.0,0.0
1583177449806,5041024.0,8693645.0,0.0
1583177449854,4983413.0,8606623.0,0.0
1583177449904,4929706.0,8524993.0,0.0
1583177449949,4873803.0,8456800.0,0.0
1583177450000,4828088.0,8399522.0,0.0
1583177450047,4807147.0,8379616.0,0.0
1583177450098,4788774.0,8364637.0,0.0
1583177450145,4772593.0,8354836.0,0.0
1583177450189,4750827.0,8336027.0,0.0
1583177450237,4737326.0,8325400.0,0.0
1583177450289,4734364.0,8318720.0,0.0
1583177450341,4714621.0,8301121.0,0.0
1583177450388,4633018.0,8179947.0,0.0
1583177450438,4552681.0,8076810.0,0.0
1583177450485,4558053.0,8076156.0,0.0
1583177450529,4606717.0,8103531.0,0.0
1583177450583,4668105.0,8158806.0,0.0
1583177450631,4706876.0,8217662.0,0.0
1583177450680,4688536.0,8263558.0,0.0
1583177450726,4630666.0,8256089.0,0.0
1583177450777,4524899.0,8130217.0,0.0
1583177450825,4537620.0,8167527.0,0.0
1583177450868,4615424.0,8313288.0,0.0
1583177450923,4683493.0,8374417.0,0.0
1583177450970,4749730.0,8432792.0,0.0
1583177451019,4782589.0,8477073.0,0.0
1583177451067,4797728.0,8478882.0,0.0
1583177451114,4811264.0,8485583.0,0.0
1583177451164,4832262.0,8490087.0,0.0
1583177451210,4783392.0,8444689.0,0.0
1583177451260,4655191.0,8326479.0,0.0
1583177451308,4685789.0,8352778.0,0.0
1583177451359,4807046.0,8506451.0,0.0
1583177451406,4899301.0,8600963.0,0.0
1583177451451,4959839.0,8669232.0,0.0
1583177451504,5003881.0,8721273.0,0.0
1583177451550,5031525.0,8762513.0,0.0
1583177451597,5029638.0,8766882.0,0.0
1583177451648,5020580.0,8749014.0,0.0
1583177451699,5014599.0,8744856.0,0.0
1583177451746,5001075.0,8739023.0,0.0
1583177451791,5014938.0,8728762.0,0.0
1583177451843,5039000.0,8717747.0,0.0
1583177451890,4988027.0,8696185.0,0.0
1583177451940,4933189.0,8649326.0,0.0
1583177451987,4907713.0,8632230.0,0.0
1583177452038,4971995.0,8719961.0,0.0
1583177452085,4991611.0,8789504.0,0.0
1583177452133,4993907.0,8838656.0,0.0
1583177452180,5008810.0,8882456.0,0.0
1583177452230,5034150.0,8930566.0,0.0
1583177452280,5064679.0,8947954.0,0.0
1583177452326,5112271.0,8960774.0,0.0
1583177452369,5144179.0,8978563.0,0.0
1583177452418,5183550.0,9006809.0,0.0
1583177452468,5209624.0,9033029.0,0.0
1583177452517,5224675.0,9049510.0,0.0
1583177452568,5244336.0,9057868.0,0.0
1583177452614,5302229.0,9061102.0,0.0
1583177452662,5359715.0,9066644.0,0.0
1583177452710,5412372.0,9063970.0,0.0
1583177452759,5430950.0,9028352.0,0.0
1583177452810,5410777.0,8979027.0,0.0
1583177452855,5451528.0,8982725.0,0.0
1583177452907,5452806.0,9034745.0,0.0
1583177452956,5377342.0,9025560.0,0.0
1583177453005,5264859.0,8932898.0,0.0
1583177453052,5301676.0,8942640.0,0.0
1583177453103,5381957.0,9036571.0,0.0
1583177453150,5444404.0,9105190.0,0.0
1583177453202,5376664.0,9030912.0,0.0
1583177453248,5365526.0,9033606.0,0.0
1583177453291,5398928.0,9073383.0,0.0
1583177453344,5429016.0,9102149.0,0.0
1583177453393,5426336.0,9118225.0,0.0
1583177453441,5437429.0,9148104.0,0.0
1583177453488,5433539.0,9193406.0,0.0
1583177453533,5426789.0,9202549.0,0.0
1583177453581,5442596.0,9201280.0,0.0
1583177453633,5441601.0,9213100.0,0.0
1583177453680,5454514.0,9209693.0,0.0
1583177453728,5448691.0,9225115.0,0.0
1583177453777,5428417.0,9218355.0,0.0
1583177453828,5404275.0,9215660.0,0.0
1583177453876,5398034.0,9225209.0,0.0
1583177453925,5401935.0,9247062.0,0.0
1583177453975,5395842.0,9256804.0,0.0
1583177454023,5377749.0,9264947.0,0.0
1583177454071,5329741.0,9267798.0,0.0
1583177454122,5294880.0,9256572.0,0.0
1583177454167,5275070.0,9254784.0,0.0
1583177454213,5290380.0,9272956.0,0.0
1583177454264,5295829.0,9286877.0,0.0
1583177454313,5304661.0,9293152.0,0.0
1583177454362,5307227.0,9305302.0,0.0
1583177454410,5308651.0,9313868.0,0.0
