time,value,value2,value3
1586171802238,9474614.0,5588707.0,0.0
1586171802301,9344576.0,5504729.0,0.0
1586171802394,9169916.0,5409771.0,0.0
1586171802396,8951954.0,5267053.0,0.0
1586171802494,8791302.0,5186931.0,0.0
1586171802501,8818185.0,5183234.0,0.0
1586171802532,8746288.0,5144462.0,0.0
1586171802576,8728938.0,5128405.0,0.0
1586171802622,8676071.0,5121021.0,0.0
1586171802671,8552243.0,5064803.0,0.0
1586171802721,8396239.0,4982759.0,0.0
1586171802769,8272341.0,4930385.0,0.0
1586171802819,8202803.0,4895683.0,0.0
1586171802871,8139657.0,4865978.0,0.0
1586171802915,8059196.0,4828688.0,0.0
1586171802963,7964065.0,4784613.0,0.0
1586171803010,7889590.0,4746339.0,0.0
1586171803061,7839521.0,4726505.0,0.0
1586171803108,7794998.0,4704558.0,0.0
1586171803158,7755754.0,4685732.0,0.0
1586171803206,7723120.0,4669234.0,0.0
1586171803255,7682855.0,4649469.0,0.0
1586171803303,7644288.0,4629558.0,0.0
1586171803352,7563452.0,4588741.0,0.0
1586171803405,7464673.0,4534477.0,0.0
1586171803450,7387977.0,4496666.0,0.0
1586171803500,7356888.0,4476517.0,0.0
1586171803546,7329176.0,4460438.0,0.0
1586171803596,7290657.0,4439757.0,0.0
1586171803643,7236062.0,4413118.0,0.0
1586171803692,7196629.0,4391635.0,0.0
1586171803743,7173595.0,4377681.0,0.0
1586171803790,7158890.0,4366149.0,0.0
1586171803849,7154276.0,4359907.0,0.0
1586171803890,7151445.0,4348972.0,0.0
1586171803935,7153496.0,4344890.0,0.0
1586171803987,7120609.0,4322887.0,0.0
1586171804035,7047628.0,4276652.0,0.0
1586171804083,7008499.0,4251211.0,0.0
1586171804133,6999408.0,4239939.0,0.0
1586171804180,7011163.0,4239815.0,0.0
1586171804230,7002529.0,4224085.0,0.0
1586171804279,6986977.0,4212293.0,0.0
1586171804327,6970185.0,4198645.0,0.0
1586171804380,6977206.0,4195512.0,0.0
1586171804425,6985264.0,4194799.0,0.0
1586171804473,6996559.0,4191114.0,0.0
1586171804526,7012147.0,4194167.0,0.0
1586171804569,7024103.0,4192312.0,0.0
1586171804620,6971425.0,4158561.0,0.0
1586171804664,6924766.0,4124424.0,0.0
1586171804717,6909772.0,4111829.0,0.0
1586171804760,6921712.0,4111433.0,0.0
1586171804813,6932772.0,4109952.0,0.0
1586171804866,6918677.0,4103507.0,0.0
1586171804915,6926140.0,4099730.0,0.0
1586171804959,6949952.0,4099514.0,0.0
1586171805001,6903734.0,4068896.0,0.0
1586171805051,6865862.0,4043908.0,0.0
1586171805105,6951393.0,4122355.0,0.0
1586171805153,6878275.0,4085223.0,0.0
1586171805203,7002614.0,4201640.0,0.0
1586171805244,6866115.0,4084713.0,0.0
1586171805295,6853869.0,4091487.0,0.0
1586171805345,6830140.0,4092255.0,0.0
1586171805395,6818794.0,4075408.0,0.0
1586171805440,6805107.0,4052455.0,0.0
1586171805493,6798613.0,4025624.0,0.0
1586171805546,6836924.0,4053394.0,0.0
1586171805585,6710704.0,3933346.0,0.0
1586171805638,6685638.0,3939712.0,0.0
1586171805684,6893878.0,4119507.0,0.0
1586171805736,6843370.0,4123475.0,0.0
1586171805783,6651462.0,4037711.0,0.0
1586171805828,6620236.0,4103098.0,0.0
1586171805891,6543914.0,4066533.0,0.0
1586171805925,6698715.0,4229197.0,0.0
1586171805980,7042812.0,4326572.0,0.0
1586171806022,7246305.0,4345762.0,0.0
1586171806076,7327174.0,4383538.0,0.0
1586171806128,7331160.0,4418352.0,0.0
1586171806173,7369185.0,4432284.0,0.0
1586171806222,7359637.0,4434058.0,0.0
1586171806269,7391862.0,4463026.0,0.0
1586171806320,7400716.0,4485290.0,0.0
1586171806364,7088079.0,4324323.0,0.0
1586171806413,6997510.0,4297705.0,0.0
1586171806460,6949580.0,4294676.0,0.0
1586171806510,6993389.0,4415481.0,0.0
1586171806558,7706160.0,4669269.0,0.0
1586171806610,8066998.0,4699176.0,0.0
1586171806659,8303192.0,4800556.0,0.0
1586171806706,8395629.0,4861151.0,0.0
1586171806756,8416048.0,4892359.0,0.0
1586171806806,8410977.0,4908210.0,0.0
1586171806856,8396220.0,4884297.0,0.0
1586171806902,8369609.0,4853485.0,0.0
1586171806950,8228141.0,4852750.0,0.0
1586171807000,7891964.0,4655181.0,0.0
1586171807043,7818185.0,4624188.0,0.0
1586171807096,7762215.0,4624030.0,0.0
1586171807147,7990521.0,4854558.0,0.0
1586171807194,8174698.0,4899425.0,0.0
1586171807238,8326208.0,4959997.0,0.0
1586171807284,8307193.0,4992483.0,0.0
1586171807340,8274258.0,4996599.0,0.0
1586171807384,8266508.0,5002489.0,0.0
1586171807433,8257161.0,5000590.0,0.0
1586171807482,8241676.0,4978846.0,0.0
1586171807527,8268269.0,4975047.0,0.0
1586171807577,8066590.0,4833200.0,0.0
1586171807630,7784009.0,4716420.0,0.0
1586171807681,7759890.0,4736828.0,0.0
1586171807726,7716065.0,4744960.0,0.0
1586171807777,8095899.0,5117856.0,0.0
1586171807828,8607567.0,5368047.0,0.0
1586171807872,8866761.0,5382985.0,0.0
1586171807917,8946901.0,5471711.0,0.0
1586171807971,9048173.0,5529559.0,0.0
1586171808021,9140998.0,5552457.0,0.0
1586171808069,9197001.0,5564103.0,0.0
1586171808118,9228327.0,5577648.0,0.0
1586171808168,9173732.0,5573792.0,0.0
1586171808210,9042355.0,5541398.0,0.0
1586171808264,8648801.0,5272074.0,0.0
1586171808306,8580330.0,5212643.0,0.0
1586171808362,8536283.0,5194949.0,0.0
1586171808405,8532787.0,5206674.0,0.0
1586171808457,8584027.0,5252286.0,0.0
1586171808507,8648274.0,5308832.0,0.0
1586171808549,8623646.0,5301008.0,0.0
1586171808604,8562044.0,5254129.0,0.0
1586171808651,8421491.0,5147142.0,0.0
1586171808701,8321136.0,5089985.0,0.0
1586171808742,8183570.0,5020501.0,0.0
1586171808798,8051123.0,4954932.0,0.0
1586171808860,7977158.0,4927343.0,0.0
1586171808894,7905057.0,4898883.0,0.0
1586171808938,7840268.0,4874662.0,0.0
1586171808993,7768356.0,4854989.0,0.0
1586171809038,7698291.0,4837213.0,0.0
1586171809083,7637080.0,4826290.0,0.0
1586171809138,7577139.0,4792539.0,0.0
1586171809189,7540742.0,4791442.0,0.0
1586171809235,7505584.0,4795422.0,0.0
1586171809284,7344643.0,4735540.0,0.0
1586171809335,7189504.0,4683798.0,0.0
1586171809377,7096527.0,4658809.0,0.0
1586171809423,7007110.0,4632927.0,0.0
1586171809478,6930108.0,4612994.0,0.0
1586171809528,6857874.0,4589836.0,0.0
1586171809569,6801173.0,4572062.0,0.0
1586171809625,6757686.0,4562088.0,0.0
1586171809672,6729923.0,4556052.0,0.0
1586171809722,6719966.0,4557429.0,0.0
1586171809764,6719472.0,4560993.0,0.0
1586171809820,6706752.0,4560597.0,0.0
1586171809870,6583771.0,4494833.0,0.0
1586171809911,6472441.0,4432522.0,0.0
1586171809958,6412842.0,4401470.0,0.0
1586171810006,6369371.0,4373260.0,0.0
1586171810055,6361788.0,4362587.0,0.0
1586171810104,6361773.0,4364814.0,0.0
1586171810155,6346931.0,4351144.0,0.0
1586171810207,6341726.0,4347808.0,0.0
1586171810251,6342540.0,4340504.0,0.0
1586171810300,6345508.0,4329864.0,0.0
1586171810358,6359722.0,4329908.0,0.0
1586171810404,6347203.0,4323000.0,0.0
1586171810447,6269915.0,4285403.0,0.0
1586171810499,6209721.0,4250646.0,0.0
1586171810544,6182311.0,4222277.0,0.0
1586171810590,6168286.0,4200850.0,0.0
1586171810642,6163824.0,4200295.0,0.0
1586171810693,6163385.0,4194564.0,0.0
1586171810741,6178276.0,4200951.0,0.0
1586171810789,6212537.0,4206898.0,0.0
1586171810835,6234806.0,4216476.0,0.0
1586171810889,6273612.0,4233821.0,0.0
1586171810930,6321965.0,4264622.0,0.0
1586171810985,6367996.0,4291984.0,0.0
1586171811031,6322898.0,4267822.0,0.0
1586171811081,6289063.0,4243907.0,0.0
1586171811131,6288892.0,4234341.0,0.0
1586171811174,6300071.0,4233516.0,0.0
1586171811227,6327460.0,4245682.0,0.0
1586171811274,6369252.0,4263988.0,0.0
1586171811325,6420931.0,4283934.0,0.0
1586171811371,6465148.0,4290787.0,0.0
1586171811415,6499139.0,4301257.0,0.0
1586171811466,6547221.0,4324583.0,0.0
1586171811515,6601072.0,4350069.0,0.0
1586171811563,6672103.0,4378959.0,0.0
1586171811611,6698169.0,4372343.0,0.0
1586171811664,6573952.0,4289408.0,0.0
1586171811711,6575750.0,4314961.0,0.0
1586171811761,6566540.0,4289101.0,0.0
1586171811810,6626191.0,4311342.0,0.0
1586171811859,6634669.0,4297502.0,0.0
1586171811902,6678445.0,4307486.0,0.0
1586171811954,6706023.0,4308266.0,0.0
1586171812004,6729005.0,4316759.0,0.0
1586171812047,6735975.0,4307238.0,0.0
1586171812098,6768100.0,4336558.0,0.0
1586171812150,6778462.0,4313955.0,0.0
1586171812199,6785161.0,4299832.0,0.0
1586171812241,6817846.0,4320241.0,0.0
1586171812290,6766726.0,4279547.0,0.0
1586171812344,6713843.0,4215740.0,0.0
1586171812391,6733126.0,4213571.0,0.0
1586171812438,6778733.0,4239158.0,0.0
1586171812489,6815335.0,4246564.0,0.0
1586171812538,6859907.0,4282170.0,0.0
1586171812586,6877022.0,4291961.0,0.0
1586171812635,6889453.0,4302195.0,0.0
1586171812683,6920051.0,4300432.0,0.0
1586171812733,6966912.0,4331481.0,0.0
1586171812782,7024902.0,4368103.0,0.0
1586171812829,7084839.0,4405530.0,0.0
1586171812873,7129295.0,4439113.0,0.0
1586171812920,7122511.0,4452772.0,0.0
1586171812968,7096118.0,4456559.0,0.0
1586171813025,7056975.0,4481288.0,0.0
1586171813072,7330465.0,4627139.0,0.0
1586171813121,7622494.0,4721576.0,0.0
1586171813168,7712996.0,4774842.0,0.0
1586171813218,7803361.0,4826981.0,0.0
1586171813265,7810892.0,4818478.0,0.0
1586171813312,7804870.0,4815798.0,0.0
1586171813363,7802852.0,4804230.0,0.0
1586171813415,7747730.0,4769405.0,0.0
1586171813462,7738419.0,4762666.0,0.0
1586171813503,7715608.0,4744801.0,0.0
1586171813558,7622509.0,4682351.0,0.0
1586171813601,7556397.0,4635676.0,0.0
1586171813650,7535113.0,4603020.0,0.0
1586171813704,7550954.0,4593115.0,0.0
1586171813752,7585569.0,4587710.0,0.0
1586171813801,7613723.0,4589328.0,0.0
1586171813854,7578581.0,4557769.0,0.0
1586171813894,7508196.0,4521587.0,0.0
1586171813942,7466608.0,4497773.0,0.0
1586171813989,7446220.0,4493251.0,0.0
1586171814043,7438808.0,4498679.0,0.0
1586171814095,7420440.0,4497887.0,0.0
1586171814143,7417676.0,4502296.0,0.0
1586171814188,7405449.0,4497989.0,0.0
1586171814237,7336740.0,4447028.0,0.0
1586171814285,7285519.0,4402297.0,0.0
1586171814334,7256871.0,4373780.0,0.0
1586171814386,7232128.0,4354173.0,0.0
1586171814436,7230649.0,4346802.0,0.0
1586171814482,7223256.0,4338763.0,0.0
1586171814528,7197696.0,4310347.0,0.0
1586171814574,7169356.0,4287778.0,0.0
1586171814626,7160636.0,4275228.0,0.0
1586171814669,7171221.0,4287077.0,0.0
1586171814724,7175021.0,4283379.0,0.0
1586171814774,7171425.0,4278178.0,0.0
1586171814821,7152463.0,4263265.0,0.0
1586171814876,7108501.0,4226685.0,0.0
1586171814912,7058093.0,4189588.0,0.0
1586171814966,7037470.0,4175782.0,0.0
1586171815011,7040777.0,4171044.0,0.0
1586171815058,7040268.0,4171259.0,0.0
1586171815111,7030854.0,4153370.0,0.0
1586171815161,7010672.0,4134623.0,0.0
1586171815208,7006616.0,4121010.0,0.0
1586171815258,7002614.0,4113219.0,0.0
1586171815306,7002410.0,4102625.0,0.0
1586171815354,6993014.0,4089939.0,0.0
1586171815409,6987571.0,4075487.0,0.0
1586171815451,7001429.0,4077184.0,0.0
1586171815501,6967015.0,4056458.0,0.0
1586171815547,6923087.0,4022186.0,0.0
1586171815597,6906599.0,3999932.0,0.0
1586171815645,6904801.0,3987835.0,0.0
1586171815697,6907212.0,3987281.0,0.0
1586171815742,6914572.0,3987033.0,0.0
1586171815790,6925104.0,3990922.0,0.0
1586171815842,6920813.0,3982295.0,0.0
1586171815891,6920323.0,3976460.0,0.0
1586171815933,6934738.0,3973225.0,0.0
1586171815986,6945490.0,3975521.0,0.0
1586171816037,6953328.0,3975600.0,0.0
1586171816085,6933415.0,3959635.0,0.0
1586171816132,6862570.0,3911070.0,0.0
1586171816180,6812790.0,3877873.0,0.0
1586171816228,6807667.0,3869675.0,0.0
1586171816274,6808518.0,3876323.0,0.0
1586171816325,6798424.0,3864338.0,0.0
1586171816383,6790521.0,3852726.0,0.0
1586171816424,6779294.0,3843139.0,0.0
1586171816465,6775750.0,3842527.0,0.0
1586171816516,6780431.0,3843907.0,0.0
1586171816565,6782144.0,3842562.0,0.0
1586171816613,6785078.0,3841192.0,0.0
1586171816661,6791420.0,3834997.0,0.0
1586171816712,6759451.0,3817155.0,0.0
1586171816763,6696932.0,3775374.0,0.0
1586171816811,6654208.0,3756639.0,0.0
1586171816858,6676918.0,3774843.0,0.0
1586171816909,6714758.0,3790638.0,0.0
1586171816952,6718744.0,3775307.0,0.0
1586171817006,6724544.0,3770162.0,0.0
1586171817055,6730346.0,3772852.0,0.0
1586171817104,6731821.0,3765865.0,0.0
1586171817151,6733363.0,3770784.0,0.0
1586171817203,6749443.0,3774821.0,0.0
1586171817248,6764894.0,3783131.0,0.0
1586171817297,6789997.0,3796575.0,0.0
1586171817342,6775987.0,3785167.0,0.0
1586171817394,6703853.0,3741610.0,0.0
1586171817440,6650681.0,3713783.0,0.0
1586171817486,6639707.0,3705801.0,0.0
1586171817541,6630412.0,3700872.0,0.0
1586171817583,6645272.0,3709340.0,0.0
1586171817638,6651971.0,3715809.0,0.0
1586171817686,6653616.0,3719688.0,0.0
1586171817733,6667303.0,3723983.0,0.0
1586171817784,6686503.0,3736252.0,0.0
1586171817834,6808804.0,3869821.0,0.0
1586171817889,6921575.0,3926981.0,0.0
1586171817923,6996525.0,3964101.0,0.0
1586171817975,7042218.0,4013230.0,0.0
1586171818019,7026005.0,3983244.0,0.0
1586171818068,6976496.0,3939451.0,0.0
1586171818120,6944557.0,3888650.0,0.0
1586171818164,6927597.0,3861128.0,0.0
1586171818217,6921222.0,3850081.0,0.0
1586171818264,6896865.0,3829174.0,0.0
1586171818318,6864435.0,3807634.0,0.0
1586171818366,6859044.0,3801969.0,0.0
1586171818416,6861638.0,3797808.0,0.0
1586171818464,6851666.0,3789858.0,0.0
1586171818511,6850105.0,3792087.0,0.0
1586171818555,6836909.0,3805360.0,0.0
1586171818603,6842846.0,3829185.0,0.0
1586171818659,6809907.0,3810551.0,0.0
1586171818701,6817353.0,3803337.0,0.0
1586171818752,6833804.0,3795671.0,0.0
1586171818803,6838570.0,3793511.0,0.0
1586171818856,6836486.0,3791475.0,0.0
1586171818903,6833703.0,3793578.0,0.0
1586171818944,6836739.0,3795287.0,0.0
1586171818999,6839198.0,3802884.0,0.0
1586171819046,6840673.0,3797888.0,0.0
1586171819094,6853394.0,3795015.0,0.0
1586171819144,6879872.0,3814452.0,0.0
1586171819192,6857551.0,3795049.0,0.0
1586171819238,6789418.0,3756005.0,0.0
1586171819288,6761874.0,3742403.0,0.0
1586171819341,6733144.0,3724344.0,0.0
1586171819388,6707260.0,3709691.0,0.0
1586171819436,6725190.0,3707034.0,0.0
1586171819478,6730904.0,3704445.0,0.0
1586171819526,6725595.0,3695829.0,0.0
1586171819579,6716574.0,3692017.0,0.0
1586171819628,6725903.0,3693161.0,0.0
1586171819680,6742116.0,3706333.0,0.0
1586171819726,6748458.0,3709691.0,0.0
1586171819774,6753852.0,3715321.0,0.0
1586171819820,6727393.0,3704275.0,0.0
1586171819878,6706413.0,3695083.0,0.0
1586171819918,6703868.0,3693295.0,0.0
1586171819969,6697950.0,3687868.0,0.0
1586171820012,6695780.0,3687529.0,0.0
1586171820060,6679497.0,3678744.0,0.0
1586171820108,6654854.0,3666531.0,0.0
1586171820162,6672813.0,3661196.0,0.0
1586171820212,6693915.0,3670568.0,0.0
1586171820258,6708178.0,3611231.0,0.0
1586171820308,6710500.0,3609815.0,0.0
1586171820360,6728106.0,3622767.0,0.0
1586171820405,6696560.0,3607968.0,0.0
1586171820454,6659245.0,3589077.0,0.0
1586171820500,6651239.0,3582407.0,0.0
1586171820545,6662332.0,3587147.0,0.0
1586171820600,6706465.0,3609587.0,0.0
1586171820648,6723797.0,3635443.0,0.0
1586171820699,6767320.0,3694687.0,0.0
1586171820746,6779870.0,3743855.0,0.0
1586171820794,6796239.0,3803326.0,0.0
1586171820845,6811672.0,3848535.0,0.0
1586171820893,6837808.0,3922570.0,0.0
1586171820942,6726174.0,3975891.0,0.0
1586171820989,7095814.0,4208891.0,0.0
1586171821037,6830058.0,4051419.0,0.0
1586171821082,7276089.0,4363176.0,0.0
1586171821128,7284943.0,4337757.0,0.0
1586171821180,7492608.0,4500406.0,0.0
1586171821227,7627718.0,4598593.0,0.0
1586171821279,7720137.0,4677944.0,0.0
1586171821325,7578038.0,4577637.0,0.0
1586171821379,7590726.0,4537327.0,0.0
1586171821423,7595763.0,4472175.0,0.0
1586171821474,7611961.0,4438402.0,0.0
1586171821521,7614844.0,4418854.0,0.0
1586171821571,7704548.0,4506018.0,0.0
1586171821624,7757449.0,4534893.0,0.0
1586171821668,7685162.0,4516018.0,0.0
1586171821718,7864201.0,4692417.0,0.0
1586171821760,8014707.0,4787549.0,0.0
1586171821814,8070747.0,4861340.0,0.0
1586171821865,8172239.0,4919763.0,0.0
1586171821907,8321103.0,4967202.0,0.0
1586171821962,8548937.0,5073125.0,0.0
1586171822007,8735908.0,5199583.0,0.0
1586171822053,8910095.0,5327896.0,0.0
1586171822100,9028294.0,5438299.0,0.0
1586171822155,9203227.0,5511241.0,0.0
1586171822207,9288673.0,5525569.0,0.0
1586171822251,9348952.0,5600544.0,0.0
1586171822306,9413878.0,5604898.0,0.0
1586171822348,9440658.0,5638221.0,0.0
1586171822399,9488167.0,5684014.0,0.0
1586171822444,9521901.0,5690357.0,0.0
1586171822492,9567085.0,5740911.0,0.0
1586171822546,9609145.0,5744993.0,0.0
1586171822592,9646189.0,5784047.0,0.0
1586171822646,9682992.0,5767710.0,0.0
1586171822683,9685080.0,5778497.0,0.0
1586171822740,9634605.0,5764916.0,0.0
1586171822781,9619629.0,5789533.0,0.0
1586171822832,9545746.0,5761672.0,0.0
1586171822888,9550802.0,5780577.0,0.0
1586171822933,9560216.0,5781018.0,0.0
1586171822981,9616423.0,5831787.0,0.0
1586171823025,9652583.0,5854492.0,0.0
1586171823079,9642032.0,5860677.0,0.0
1586171823122,9679262.0,5873024.0,0.0
1586171823174,9604397.0,5846588.0,0.0
1586171823225,9649206.0,5868253.0,0.0
1586171823272,9381872.0,5620547.0,0.0
1586171823321,9440100.0,5695061.0,0.0
1586171823369,9401209.0,5665324.0,0.0
1586171823420,9364641.0,5655588.0,0.0
1586171823462,9263046.0,5622753.0,0.0
1586171823516,9053174.0,5514567.0,0.0
1586171823564,8907754.0,5467109.0,0.0
1586171823612,8784027.0,5411456.0,0.0
1586171823660,8650291.0,5355351.0,0.0
1586171823709,8544950.0,5351720.0,0.0
1586171823758,8551497.0,5399753.0,0.0
1586171823806,8683059.0,5486728.0,0.0
1586171823859,8774275.0,5526631.0,0.0
1586171823905,8852513.0,5587258.0,0.0
1586171823947,8810944.0,5563694.0,0.0
1586171824000,8746288.0,5508075.0,0.0
1586171824044,8710960.0,5522572.0,0.0
1586171824098,8711893.0,5509286.0,0.0
1586171824140,8713030.0,5525851.0,0.0
1586171824195,8623122.0,5483845.0,0.0
1586171824247,8522069.0,5411116.0,0.0
1586171824292,8463198.0,5370174.0,0.0
1586171824347,8430278.0,5323522.0,0.0
1586171824385,8378922.0,5256978.0,0.0
1586171824439,8369219.0,5231459.0,0.0
1586171824483,8299190.0,5169733.0,0.0
1586171824535,8278226.0,5133279.0,0.0
1586171824587,8254768.0,5122753.0,0.0
1586171824632,8219745.0,5092177.0,0.0
1586171824679,8165945.0,5058098.0,0.0
1586171824728,8097459.0,5017776.0,0.0
1586171824777,8041404.0,4982702.0,0.0
1586171824822,7905904.0,4908844.0,0.0
1586171824876,7724970.0,4807137.0,0.0
1586171824927,7584975.0,4726076.0,0.0
1586171824998,7482959.0,4674911.0,0.0
1586171825037,7404583.0,4632691.0,0.0
1586171825064,7341897.0,4595716.0,0.0
1586171825123,7286299.0,4569823.0,0.0
1586171825163,7229412.0,4538808.0,0.0
1586171825215,7214860.0,4525273.0,0.0
1586171825266,7189522.0,4510902.0,0.0
1586171825316,7187587.0,4507995.0,0.0
1586171825361,7197543.0,4504354.0,0.0
1586171825411,7212367.0,4506662.0,0.0
1586171825463,7262723.0,4507836.0,0.0
1586171825503,7254905.0,4491544.0,0.0
1586171825559,7193779.0,4452807.0,0.0
1586171825607,7205092.0,4480000.0,0.0
1586171825657,7336365.0,4626923.0,0.0
1586171825704,7567625.0,4852861.0,0.0
1586171825750,7835486.0,5054547.0,0.0
1586171825803,8072204.0,5191159.0,0.0
1586171825844,8235416.0,5269721.0,0.0
1586171825899,8349732.0,5345875.0,0.0
1586171825949,8464521.0,5402660.0,0.0
1586171825988,8546206.0,5441613.0,0.0
1586171826059,8602937.0,5487542.0,0.0
1586171826162,8658349.0,5544643.0,0.0
1586171826162,8747324.0,5597007.0,0.0
1586171826191,8802651.0,5648770.0,0.0
1586171826232,8808112.0,5662474.0,0.0
1586171826282,8821662.0,5662102.0,0.0
1586171826333,8869525.0,5656492.0,0.0
1586171826382,8943948.0,5684433.0,0.0
1586171826428,9027465.0,5700002.0,0.0
1586171826480,8916288.0,5645874.0,0.0
1586171826524,8775003.0,5546802.0,0.0
1586171826576,8645357.0,5425115.0,0.0
1586171826625,8563385.0,5345298.0,0.0
1586171826674,8496170.0,5270377.0,0.0
1586171826722,8475190.0,5238402.0,0.0
1586171826769,8484214.0,5246803.0,0.0
1586171826820,8448783.0,5222922.0,0.0
1586171826869,8419117.0,5194496.0,0.0
1586171826916,8365269.0,5141747.0,0.0
1586171826962,8287996.0,5067585.0,0.0
1586171827006,8256210.0,5022423.0,0.0
1586171827056,8247509.0,5007668.0,0.0
1586171827105,8204126.0,4977501.0,0.0
1586171827155,8183942.0,4964475.0,0.0
1586171827205,8249106.0,4971373.0,0.0
1586171827252,8304057.0,4982712.0,0.0
1586171827304,8323306.0,4988434.0,0.0
1586171827353,8420458.0,5061252.0,0.0
1586171827402,8557281.0,5134614.0,0.0
1586171827444,8612894.0,5164871.0,0.0
1586171827499,8656414.0,5231932.0,0.0
1586171827549,8672783.0,5255960.0,0.0
1586171827596,8609468.0,5211095.0,0.0
1586171827643,8528734.0,5115515.0,0.0
1586171827693,8530127.0,5091364.0,0.0
1586171827742,8526412.0,5073499.0,0.0
1586171827785,8494677.0,5050953.0,0.0
1586171827834,8526378.0,5119166.0,0.0
1586171827891,8662726.0,5280056.0,0.0
1586171827935,8729005.0,5371034.0,0.0
1586171827985,8950531.0,5553812.0,0.0
1586171828033,9087436.0,5660982.0,0.0
1586171828081,9186995.0,5691782.0,0.0
1586171828129,9232161.0,5702920.0,0.0
1586171828178,9220985.0,5682488.0,0.0
1586171828224,9275020.0,5696351.0,0.0
1586171828275,9289148.0,5631266.0,0.0
1586171828320,9306636.0,5713696.0,0.0
1586171828370,9393255.0,5749075.0,0.0
1586171828421,9433316.0,5684805.0,0.0
1586171828467,9469001.0,5788153.0,0.0
1586171828518,9561843.0,5659942.0,0.0
1586171828566,9605686.0,5671464.0,0.0
1586171828615,9658349.0,5700668.0,0.0
1586171828664,9771596.0,5791691.0,0.0
1586171828709,9782908.0,5828473.0,0.0
1586171828762,9820510.0,5920898.0,0.0
1586171828810,9970154.0,5951020.0,0.0
1586171828858,1.0011928E7,5920942.0,0.0
1586171828907,1.0146919E7,5900669.0,0.0
1586171828950,1.0963072E7,5868139.0,0.0
1586171829004,1.0759235E7,5924798.0,0.0
1586171829052,1.073554E7,5959298.0,0.0
1586171829097,1.0741176E7,5994089.0,0.0
1586171829151,1.0773044E7,5931471.0,0.0
1586171829198,1.0771493E7,5954096.0,0.0
1586171829246,1.0754063E7,6005713.0,0.0
1586171829293,1.0784628E7,6057862.0,0.0
1586171829344,1.0814358E7,6069124.0,0.0
1586171829391,1.0796133E7,6037237.0,0.0
1586171829440,1.0768978E7,5991285.0,0.0
1586171829492,1.0671032E7,5962768.0,0.0
1586171829539,1.066179E7,5939023.0,0.0
1586171829586,1.0614422E7,5911887.0,0.0
1586171829631,1.0633152E7,5943558.0,0.0
1586171829683,1.0601618E7,5912417.0,0.0
1586171829726,1.0381104E7,5822616.0,0.0
1586171829782,1.0442556E7,5880679.0,0.0
1586171829827,1.0487476E7,5915969.0,0.0
1586171829882,1.0529671E7,6044519.0,0.0
1586171829927,1.0590369E7,6108505.0,0.0
1586171829975,1.0659192E7,6173171.0,0.0
1586171830025,1.0691625E7,6208268.0,0.0
1586171830069,1.0666819E7,6191522.0,0.0
1586171830122,1.0525104E7,6041126.0,0.0
1586171830172,1.0583224E7,6019157.0,0.0
1586171830214,1.0650729E7,6003858.0,0.0
1586171830267,1.0692024E7,6064950.0,0.0
1586171830316,1.0737404E7,6147482.0,0.0
1586171830365,1.0807424E7,6218863.0,0.0
1586171830414,1.0897287E7,6276100.0,0.0
1586171830462,1.0882767E7,6337440.0,0.0
1586171830511,1.0957835E7,6395694.0,0.0
1586171830559,1.0951883E7,6308823.0,0.0
1586171830607,1.1095088E7,6326552.0,0.0
1586171830656,1.1168459E7,6243547.0,0.0
1586171830704,1.112888E7,6165300.0,0.0
1586171830748,1.106211E7,6255758.0,0.0
1586171830799,1.0887732E7,6217766.0,0.0
1586171830849,1.0890078E7,6325217.0,0.0
1586171830894,1.1014046E7,6417460.0,0.0
1586171830946,1.0982768E7,6371712.0,0.0
1586171830989,1.0996679E7,6390515.0,0.0
1586171831038,1.0974953E7,6401009.0,0.0
1586171831091,1.0846543E7,6319429.0,0.0
1586171831141,1.0758189E7,6285259.0,0.0
1586171831185,1.0709876E7,6228441.0,0.0
1586171831238,1.0776583E7,6297571.0,0.0
1586171831286,1.0876103E7,6329526.0,0.0
1586171831333,1.0927981E7,6352581.0,0.0
1586171831385,1.0928128E7,6362114.0,0.0
1586171831434,1.0966821E7,6372821.0,0.0
1586171831480,1.099779E7,6396113.0,0.0
1586171831529,1.0985848E7,6399053.0,0.0
1586171831579,1.101656E7,6449765.0,0.0
1586171831626,1.0882744E7,6426914.0,0.0
1586171831671,1.0682827E7,6317031.0,0.0
1586171831724,1.0607002E7,6271508.0,0.0
1586171831775,1.0807382E7,6343840.0,0.0
1586171831820,1.0848594E7,6345413.0,0.0
1586171831864,1.0890496E7,6362317.0,0.0
1586171831913,1.0919201E7,6380182.0,0.0
1586171831961,1.0852073E7,6373499.0,0.0
1586171832010,1.081746E7,6379763.0,0.0
1586171832058,1.0804261E7,6374721.0,0.0
1586171832111,1.0849035E7,6382872.0,0.0
1586171832156,1.0925778E7,6405317.0,0.0
1586171832209,1.095884E7,6408539.0,0.0
1586171832258,1.0960286E7,6378146.0,0.0
1586171832307,1.0978725E7,6354366.0,0.0
1586171832349,1.1023728E7,6341829.0,0.0
1586171832398,1.1082642E7,6332442.0,0.0
1586171832452,1.1103868E7,6303939.0,0.0
1586171832495,1.1095401E7,6237204.0,0.0
1586171832544,1.104646E7,6167799.0,0.0
1586171832595,1.0967326E7,6102853.0,0.0
1586171832643,1.0833697E7,6014850.0,0.0
1586171832694,1.0662881E7,5941658.0,0.0
1586171832743,1.0421647E7,5838571.0,0.0
1586171832796,1.0175823E7,5729909.0,0.0
1586171832837,9956547.0,5648509.0,0.0
1586171832890,9766704.0,5593376.0,0.0
1586171832940,9610262.0,5543478.0,0.0
1586171832983,9453022.0,5497786.0,0.0
1586171833031,9295928.0,5447220.0,0.0
1586171833085,9165044.0,5402093.0,0.0
1586171833138,9073298.0,5379559.0,0.0
1586171833181,8998772.0,5355259.0,0.0
1586171833229,8933782.0,5338932.0,0.0
1586171833277,8850352.0,5336015.0,0.0
1586171833327,8838140.0,5403926.0,0.0
1586171833374,8799966.0,5418806.0,0.0
1586171833425,8759529.0,5460868.0,0.0
1586171833472,8692547.0,5456367.0,0.0
1586171833517,8623179.0,5418930.0,0.0
1586171833569,8502098.0,5372017.0,0.0
1586171833620,8530616.0,5387450.0,0.0
1586171833667,8528308.0,5407849.0,0.0
1586171833714,8433588.0,5339849.0,0.0
1586171833763,8259546.0,5230667.0,0.0
1586171833814,8116239.0,5184375.0,0.0
1586171833862,8004754.0,5135213.0,0.0
1586171833904,7901842.0,5095716.0,0.0
1586171833954,7817889.0,5063899.0,0.0
1586171834007,7748393.0,5032781.0,0.0
1586171834053,7676822.0,5000523.0,0.0
1586171834104,7629033.0,4984998.0,0.0
1586171834151,7578416.0,4962338.0,0.0
1586171834201,7534795.0,4937927.0,0.0
1586171834244,7471939.0,4921961.0,0.0
1586171834292,7339779.0,4862055.0,0.0
1586171834345,7227855.0,4805768.0,0.0
1586171834398,7170157.0,4769326.0,0.0
1586171834444,7127834.0,4742074.0,0.0
1586171834492,7089829.0,4708256.0,0.0
1586171834541,7061440.0,4681266.0,0.0
1586171834588,7034096.0,4654366.0,0.0
1586171834635,7016643.0,4635597.0,0.0
1586171834684,7003068.0,4616047.0,0.0
1586171834733,6994729.0,4599775.0,0.0
1586171834778,6952176.0,4564530.0,0.0
1586171834827,6872794.0,4514994.0,0.0
1586171834877,6832105.0,4482543.0,0.0
1586171834924,6812284.0,4456242.0,0.0
1586171834976,6808304.0,4440096.0,0.0
1586171835021,6799420.0,4424515.0,0.0
1586171835070,6776060.0,4408279.0,0.0
1586171835120,6773104.0,4395457.0,0.0
1586171835167,6349680.0,4388524.0,0.0
1586171835218,6408829.0,4389938.0,0.0
1586171835265,6407502.0,4378609.0,0.0
1586171835312,6366865.0,4350602.0,0.0
1586171835362,6317294.0,4319959.0,0.0
1586171835410,6301410.0,4306661.0,0.0
1586171835460,6293867.0,4296870.0,0.0
1586171835508,6297445.0,4296598.0,0.0
1586171835559,6292878.0,4290560.0,0.0
1586171835604,6288718.0,4287642.0,0.0
1586171835655,6286129.0,4284806.0,0.0
1586171835702,6293754.0,4288434.0,0.0
1586171835751,6304017.0,4288751.0,0.0
1586171835800,6312890.0,4294800.0,0.0
1586171835846,6273175.0,4273452.0,0.0
1586171835897,6229058.0,4250160.0,0.0
1586171835945,6211249.0,4240459.0,0.0
1586171835993,6210862.0,4236535.0,0.0
1586171836041,6215217.0,4238163.0,0.0
1586171836090,6216221.0,4239678.0,0.0
1586171836140,6210990.0,4236682.0,0.0
1586171836187,6218324.0,4236127.0,0.0
1586171836237,6233690.0,4241068.0,0.0
1586171836288,6250187.0,4252580.0,0.0
1586171836340,6257489.0,4259352.0,0.0
1586171836382,6252567.0,4249673.0,0.0
1586171836435,6211703.0,4226517.0,0.0
1586171836479,6196808.0,4215785.0,0.0
1586171836528,6199432.0,4214735.0,0.0
1586171836580,6209518.0,4217244.0,0.0
1586171836624,6218033.0,4217856.0,0.0
1586171836676,6218245.0,4217709.0,0.0
1586171836722,6228800.0,4222130.0,0.0
1586171836770,6240474.0,4226178.0,0.0
1586171836820,6256759.0,4231310.0,0.0
1586171836868,6271671.0,4237846.0,0.0
1586171836918,6292945.0,4249130.0,0.0
1586171836963,6289512.0,4240288.0,0.0
1586171837020,6261794.0,4222163.0,0.0
1586171837060,6261099.0,4217323.0,0.0
1586171837109,6270068.0,4217856.0,0.0
1586171837157,6286839.0,4224367.0,0.0
1586171837206,6301038.0,4224323.0,0.0
1586171837260,6303403.0,4224402.0,0.0
1586171837305,6316759.0,4225408.0,0.0
1586171837357,6327752.0,4227386.0,0.0
1586171837402,6350466.0,4239112.0,0.0
1586171837450,6369812.0,4247785.0,0.0
1586171837499,6375025.0,4250307.0,0.0
1586171837548,6363482.0,4239136.0,0.0
1586171837599,6344637.0,4223441.0,0.0
1586171837643,6344264.0,4217346.0,0.0
1586171837697,6350693.0,4216385.0,0.0
1586171837746,6359354.0,4222616.0,0.0
1586171837795,6363709.0,4217402.0,0.0
1586171837844,6371042.0,4215176.0,0.0
1586171837893,6377632.0,4214475.0,0.0
1586171837941,6390277.0,4219790.0,0.0
1586171837989,6409268.0,4222096.0,0.0
1586171838044,6429617.0,4227307.0,0.0
1586171838087,6430784.0,4222695.0,0.0
1586171838133,6408733.0,4198916.0,0.0
1586171838183,6400023.0,4185110.0,0.0
1586171838229,6393693.0,4177692.0,0.0
1586171838279,6393288.0,4166950.0,0.0
1586171838325,6392898.0,4161410.0,0.0
1586171838374,6404750.0,4155790.0,0.0
1586171838422,6410836.0,4151834.0,0.0
1586171838471,6419386.0,4151505.0,0.0
1586171838520,6429730.0,4150477.0,0.0
1586171838568,6439202.0,4151222.0,0.0
1586171838621,6443249.0,4152421.0,0.0
1586171838668,6419287.0,4130417.0,0.0
1586171838719,6393888.0,4101018.0,0.0
1586171838761,6386228.0,4087371.0,0.0
1586171838815,6383703.0,4079784.0,0.0
1586171838862,6382603.0,4074707.0,0.0
1586171838912,6380933.0,4065129.0,0.0
1586171838965,6378376.0,4054174.0,0.0
1586171839009,6379493.0,4050454.0,0.0
1586171839053,6382813.0,4044472.0,0.0
1586171839100,6389742.0,4041973.0,0.0
1586171839154,6394161.0,4044279.0,0.0
1586171839206,6397076.0,4037847.0,0.0
1586171839251,6369911.0,4010290.0,0.0
1586171839303,6354772.0,3988219.0,0.0
1586171839349,6347066.0,3977500.0,0.0
1586171839397,6346824.0,3968318.0,0.0
1586171839442,6344928.0,3955486.0,0.0
1586171839494,6338405.0,3945049.0,0.0
1586171839545,6338728.0,3937834.0,0.0
1586171839591,6339863.0,3929604.0,0.0
1586171839645,6346548.0,3925443.0,0.0
1586171839688,6346970.0,3920071.0,0.0
1586171839735,6353672.0,3916328.0,0.0
1586171839782,6358658.0,3910042.0,0.0
1586171839829,6335618.0,3885165.0,0.0
1586171839882,6316209.0,3857804.0,0.0
1586171839927,6306914.0,3843352.0,0.0
1586171839977,6304680.0,3833673.0,0.0
1586171840024,6311173.0,3829603.0,0.0
1586171840073,6307985.0,3822208.0,0.0
1586171840122,6313003.0,3819845.0,0.0
1586171840174,6319415.0,3813615.0,0.0
1586171840225,6328238.0,3816431.0,0.0
1586171840271,6338065.0,3818725.0,0.0
1586171840324,6349041.0,3820444.0,0.0
1586171840369,6363581.0,3829071.0,0.0
1586171840417,6375947.0,3833786.0,0.0
1586171840460,6359776.0,3811433.0,0.0
1586171840513,6344410.0,3789125.0,0.0
1586171840564,6340040.0,3777286.0,0.0
1586171840604,6342597.0,3774130.0,0.0
1586171840654,6344605.0,3771960.0,0.0
1586171840708,6348701.0,3767200.0,0.0
1586171840757,6351534.0,3764384.0,0.0
1586171840799,6350920.0,3761625.0,0.0
1586171840853,6358626.0,3763378.0,0.0
1586171840901,6364744.0,3764914.0,0.0
1586171840950,6378085.0,3770762.0,0.0
1586171841000,6398306.0,3775069.0,0.0
1586171841047,6409381.0,3776404.0,0.0
1586171841096,6397789.0,3762088.0,0.0
1586171841144,6381486.0,3739983.0,0.0
1586171841193,6382149.0,3733278.0,0.0
1586171841246,6378053.0,3725125.0,0.0
1586171841286,6383866.0,3722603.0,0.0
1586171841340,6402257.0,3726006.0,0.0
1586171841387,6414414.0,3726799.0,0.0
1586171841436,6423400.0,3733652.0,0.0
1586171841484,6433632.0,3740233.0,0.0
1586171841531,6443185.0,3743589.0,0.0
1586171841582,6456605.0,3751336.0,0.0
1586171841635,6466530.0,3758390.0,0.0
1586171841674,6483968.0,3767381.0,0.0
1586171841723,6497128.0,3778234.0,0.0
1586171841773,6495412.0,3772604.0,0.0
1586171841820,6483060.0,3753585.0,0.0
1586171841867,6471063.0,3746937.0,0.0
1586171841918,6481021.0,3744528.0,0.0
1586171841965,6482202.0,3749910.0,0.0
1586171842016,6459243.0,3738412.0,0.0
1586171842063,6279732.0,3675544.0,0.0
1586171842113,5990990.0,3660346.0,0.0
1586171842163,6013460.0,3699584.0,0.0
1586171842213,6041160.0,3681231.0,0.0
1586171842262,6110923.0,3697412.0,0.0
1586171842306,6220186.0,3726900.0,0.0
1586171842360,6329661.0,3740594.0,0.0
1586171842404,6406612.0,3752104.0,0.0
1586171842456,6471322.0,3755383.0,0.0
1586171842506,6501096.0,3742888.0,0.0
1586171842552,6530641.0,3737100.0,0.0
1586171842602,6569544.0,3734838.0,0.0
1586171842645,6593344.0,3737585.0,0.0
1586171842698,6617565.0,3739361.0,0.0
1586171842745,6630484.0,3740186.0,0.0
1586171842796,6634513.0,3739192.0,0.0
1586171842847,6617792.0,3729038.0,0.0
1586171842888,6637655.0,3733367.0,0.0
1586171842941,6654266.0,3737043.0,0.0
1586171842989,6666781.0,3745875.0,0.0
1586171843039,6673483.0,3748644.0,0.0
1586171843085,6682888.0,3750601.0,0.0
1586171843136,6676107.0,3737528.0,0.0
1586171843188,6661922.0,3724255.0,0.0
1586171843233,6669986.0,3722209.0,0.0
1586171843283,6671118.0,3719064.0,0.0
1586171843325,6669015.0,3715311.0,0.0
1586171843379,6676430.0,3714836.0,0.0
1586171843428,6675767.0,3715141.0,0.0
1586171843475,6691712.0,3720478.0,0.0
1586171843524,6712404.0,3731695.0,0.0
1586171843573,6742516.0,3750521.0,0.0
1586171843621,6777550.0,3777997.0,0.0
1586171843664,6807403.0,3799582.0,0.0
1586171843718,6824549.0,3807339.0,0.0
1586171843769,6806530.0,3795649.0,0.0
1586171843815,6784203.0,3782972.0,0.0
1586171843858,6775397.0,3775916.0,0.0
1586171843906,6763092.0,3769833.0,0.0
1586171843962,6754772.0,3767052.0,0.0
1586171844005,6738923.0,3761241.0,0.0
1586171844054,6729579.0,3756401.0,0.0
1586171844107,6711368.0,3751155.0,0.0
1586171844155,6705280.0,3750838.0,0.0
1586171844204,6698301.0,3752456.0,0.0
1586171844252,6695403.0,3756141.0,0.0
1586171844300,6686856.0,3748758.0,0.0
1586171844344,6679717.0,3741793.0,0.0
1586171844398,6668366.0,3737575.0,0.0
1586171844447,6655738.0,3746100.0,0.0
1586171844494,6630938.0,3755520.0,0.0
1586171844543,6653943.0,3768691.0,0.0
1586171844592,6655092.0,3788218.0,0.0
1586171844639,6751776.0,3874232.0,0.0
1586171844685,6846373.0,3953958.0,0.0
1586171844737,6922772.0,3989926.0,0.0
1586171844786,7025998.0,4005644.0,0.0
1586171844830,7079554.0,4019856.0,0.0
1586171844880,7113454.0,4022412.0,0.0
1586171844925,7163191.0,4051777.0,0.0
1586171844975,7193093.0,4073248.0,0.0
1586171845028,7283738.0,4073711.0,0.0
1586171845078,7386414.0,4080123.0,0.0
1586171845125,7481122.0,4097015.0,0.0
1586171845174,7531991.0,4083730.0,0.0
1586171845224,7566330.0,4086422.0,0.0
1586171845272,7576820.0,4083006.0,0.0
1586171845320,7567837.0,4076336.0,0.0
1586171845370,7567092.0,4086952.0,0.0
1586171845413,7555581.0,4085778.0,0.0
1586171845466,7520887.0,4073610.0,0.0
1586171845514,7495258.0,4058471.0,0.0
1586171845563,7469029.0,4038152.0,0.0
1586171845612,7448840.0,4029649.0,0.0
1586171845656,7445021.0,4024876.0,0.0
1586171845708,7434400.0,4017277.0,0.0
1586171845757,7417498.0,4009646.0,0.0
1586171845806,7389442.0,3996948.0,0.0
1586171845854,7359877.0,3984499.0,0.0
1586171845898,7343447.0,3991826.0,0.0
1586171845948,7354487.0,4013547.0,0.0
1586171846001,7385847.0,4040061.0,0.0
1586171846048,7458394.0,4100114.0,0.0
1586171846097,7558074.0,4165786.0,0.0
1586171846143,7638891.0,4226314.0,0.0
1586171846190,7720197.0,4289814.0,0.0
1586171846242,7791124.0,4339768.0,0.0
1586171846285,7840357.0,4385653.0,0.0
1586171846341,7897847.0,4417505.0,0.0
1586171846391,7946126.0,4446236.0,0.0
1586171846437,7981079.0,4476099.0,0.0
1586171846484,8025777.0,4500760.0,0.0
1586171846532,8053154.0,4524220.0,0.0
1586171846583,8062868.0,4532622.0,0.0
1586171846628,8074152.0,4541251.0,0.0
1586171846682,8093029.0,4552884.0,0.0
1586171846727,8121995.0,4569370.0,0.0
1586171846771,8145227.0,4580575.0,0.0
1586171846819,8169722.0,4592245.0,0.0
1586171846867,8190120.0,4603123.0,0.0
1586171846920,8216008.0,4613627.0,0.0
1586171846968,8232261.0,4616724.0,0.0
1586171847014,8226385.0,4622163.0,0.0
1586171847062,8163147.0,4646237.0,0.0
1586171847114,8148480.0,4707124.0,0.0
1586171847165,8133213.0,4742369.0,0.0
1586171847212,8132695.0,4774211.0,0.0
1586171847262,8178917.0,4783719.0,0.0
1586171847311,8221189.0,4767674.0,0.0
1586171847359,8240890.0,4765334.0,0.0
1586171847408,8255365.0,4766159.0,0.0
1586171847456,8197826.0,4765876.0,0.0
1586171847500,8181021.0,4800195.0,0.0
1586171847552,8181088.0,4819246.0,0.0
1586171847597,8235371.0,4825827.0,0.0
1586171847648,8274324.0,4812824.0,0.0
1586171847696,8289477.0,4805837.0,0.0
1586171847743,8313178.0,4796633.0,0.0
1586171847792,8349442.0,4792403.0,0.0
1586171847844,8377565.0,4790865.0,0.0
1586171847889,8377224.0,4778936.0,0.0
1586171847942,8361099.0,4771677.0,0.0
1586171847994,8355950.0,4770050.0,0.0
1586171848038,8358039.0,4775647.0,0.0
1586171848086,8360209.0,4783855.0,0.0
1586171848134,8351709.0,4791895.0,0.0
1586171848185,8347013.0,4801857.0,0.0
1586171848231,8342903.0,4809431.0,0.0
1586171848280,8344034.0,4824888.0,0.0
1586171848329,8352293.0,4832373.0,0.0
1586171848379,8358784.0,4844019.0,0.0
1586171848426,8364823.0,4855192.0,0.0
1586171848475,8369908.0,4860359.0,0.0
1586171848523,8361230.0,4859623.0,0.0
1586171848571,8329530.0,4842347.0,0.0
1586171848621,8293637.0,4824391.0,0.0
1586171848664,8275214.0,4812507.0,0.0
1586171848715,8266551.0,4810280.0,0.0
1586171848766,8261777.0,4813728.0,0.0
1586171848811,8259284.0,4815097.0,0.0
1586171848859,8250039.0,4809602.0,0.0
1586171848911,8228215.0,4793500.0,0.0
1586171848961,8216154.0,4785812.0,0.0
1586171849009,8201000.0,4780281.0,0.0
1586171849053,8193553.0,4766340.0,0.0
1586171849102,8174272.0,4760665.0,0.0
1586171849153,8145437.0,4757757.0,0.0
1586171849204,8121751.0,4738173.0,0.0
1586171849253,8062981.0,4684625.0,0.0
1586171849301,8027592.0,4645128.0,0.0
1586171849344,7992314.0,4615810.0,0.0
1586171849394,7969326.0,4594155.0,0.0
1586171849442,7959790.0,4592278.0,0.0
1586171849492,7942126.0,4578462.0,0.0
1586171849539,7906752.0,4562145.0,0.0
1586171849592,7907723.0,4552285.0,0.0
1586171849637,7941949.0,4544099.0,0.0
1586171849684,7971397.0,4544213.0,0.0
1586171849733,7995650.0,4556084.0,0.0
1586171849786,7999002.0,4580102.0,0.0
1586171849832,8004488.0,4614170.0,0.0
1586171849879,8013879.0,4651765.0,0.0
1586171849930,8020500.0,4679084.0,0.0
1586171849976,7998109.0,4673091.0,0.0
1586171850028,7966458.0,4656300.0,0.0
1586171850076,7953751.0,4650363.0,0.0
1586171850126,7948424.0,4640243.0,0.0
1586171850173,7933544.0,4629130.0,0.0
1586171850223,7916093.0,4614938.0,0.0
1586171850270,7897701.0,4601856.0,0.0
1586171850321,7884459.0,4593013.0,0.0
1586171850368,7879002.0,4587733.0,0.0
1586171850418,7879810.0,4585370.0,0.0
1586171850465,7865597.0,4583822.0,0.0
1586171850514,7853698.0,4588966.0,0.0
1586171850562,7857291.0,4597323.0,0.0
1586171850610,7855575.0,4603337.0,0.0
1586171850656,7844145.0,4608820.0,0.0
1586171850707,7818016.0,4593229.0,0.0
1586171850753,7782624.0,4563265.0,0.0
1586171850799,7776215.0,4552716.0,0.0
1586171850856,7745582.0,4544642.0,0.0
1586171850904,7729733.0,4552884.0,0.0
1586171850944,7736468.0,4556921.0,0.0
1586171850995,7731400.0,4553258.0,0.0
1586171851047,7746912.0,4551336.0,0.0
1586171851091,7735042.0,4555044.0,0.0
1586171851144,7730138.0,4585823.0,0.0
1586171851196,7715648.0,4612540.0,0.0
1586171851242,7720587.0,4645863.0,0.0
1586171851289,7740305.0,4669811.0,0.0
1586171851334,7770757.0,4693489.0,0.0
1586171851387,7822242.0,4719788.0,0.0
1586171851436,7860788.0,4740152.0,0.0
1586171851484,7870650.0,4738683.0,0.0
1586171851533,7861146.0,4713039.0,0.0
1586171851582,7851496.0,4695716.0,0.0
1586171851629,7862036.0,4686829.0,0.0
1586171851679,7876104.0,4680858.0,0.0
1586171851727,7890254.0,4678564.0,0.0
1586171851777,7911383.0,4681977.0,0.0
1586171851825,7926228.0,4677908.0,0.0
1586171851873,7942676.0,4678914.0,0.0
1586171851923,7966280.0,4681898.0,0.0
1586171851970,7986487.0,4687280.0,0.0
1586171852023,8002917.0,4688558.0,0.0
1586171852067,8031072.0,4692482.0,0.0
1586171852114,8040852.0,4696407.0,0.0
1586171852165,8062658.0,4704650.0,0.0
1586171852214,8068971.0,4709906.0,0.0
1586171852262,8091412.0,4715176.0,0.0
1586171852310,8115924.0,4730678.0,0.0
1586171852362,8136322.0,4741341.0,0.0
1586171852408,8111083.0,4720603.0,0.0
1586171852456,8077099.0,4688977.0,0.0
1586171852504,8047310.0,4669494.0,0.0
1586171852549,8034990.0,4663773.0,0.0
1586171852602,8042533.0,4666985.0,0.0
1586171852650,8044171.0,4664181.0,0.0
1586171852696,8043877.0,4663367.0,0.0
1586171852748,8052686.0,4670626.0,0.0
1586171852795,8060747.0,4681085.0,0.0
1586171852845,8077149.0,4684793.0,0.0
1586171852897,8091607.0,4694641.0,0.0
1586171852939,8093614.0,4699550.0,0.0
1586171852988,8098082.0,4705259.0,0.0
1586171853037,8099653.0,4708754.0,0.0
1586171853088,8110597.0,4718002.0,0.0
1586171853139,8122932.0,4731469.0,0.0
1586171853181,8142376.0,4745841.0,0.0
1586171853229,8150341.0,4756876.0,0.0
1586171853279,8158469.0,4755260.0,0.0
1586171853327,8132145.0,4733019.0,0.0
1586171853381,8112637.0,4709680.0,0.0
1586171853424,8100866.0,4701765.0,0.0
1586171853476,8095394.0,4690369.0,0.0
1586171853525,8085050.0,4680779.0,0.0
1586171853570,8069361.0,4671949.0,0.0
1586171853623,8059662.0,4671282.0,0.0
1586171853666,8052055.0,4676246.0,0.0
1586171853716,8054336.0,4678879.0,0.0
1586171853766,8062641.0,4680699.0,0.0
1586171853813,8065556.0,4684476.0,0.0
1586171853866,8064957.0,4683278.0,0.0
1586171853916,8074638.0,4687156.0,0.0
1586171853961,8086263.0,4696486.0,0.0
1586171854010,8093954.0,4701529.0,0.0
1586171854057,8113963.0,4709477.0,0.0
1586171854106,8123904.0,4717086.0,0.0
1586171854156,8131787.0,4722706.0,0.0
1586171854205,8146458.0,4732883.0,0.0
1586171854252,8153029.0,4739734.0,0.0
1586171854301,8133245.0,4716013.0,0.0
1586171854350,8089259.0,4680553.0,0.0
1586171854396,8060992.0,4656073.0,0.0
1586171854443,8040770.0,4643025.0,0.0
1586171854492,8029568.0,4637994.0,0.0
1586171854540,8021376.0,4630532.0,0.0
1586171854588,8004407.0,4618081.0,0.0
1586171854641,8001154.0,4606606.0,0.0
1586171854685,7997608.0,4603485.0,0.0
1586171854738,7999520.0,4604887.0,0.0
1586171854782,8009719.0,4601224.0,0.0
1586171854831,8025454.0,4596124.0,0.0
1586171854885,8055357.0,4595106.0,0.0
1586171854933,8081440.0,4602524.0,0.0
1586171854982,8124552.0,4616907.0,0.0
1586171855024,8150327.0,4633358.0,0.0
1586171855083,8171630.0,4644518.0,0.0
1586171855123,8182429.0,4657204.0,0.0
1586171855174,8188485.0,4671654.0,0.0
1586171855225,8202536.0,4691171.0,0.0
1586171855271,8194167.0,4688954.0,0.0
1586171855317,8143284.0,4661670.0,0.0
1586171855368,8104541.0,4639678.0,0.0
1586171855417,8079674.0,4630995.0,0.0
1586171855466,8061736.0,4621598.0,0.0
1586171855514,8046048.0,4615334.0,0.0
1586171855562,8021085.0,4601278.0,0.0
1586171855611,7999746.0,4594596.0,0.0
1586171855659,7978001.0,4588107.0,0.0
1586171855707,7970571.0,4587993.0,0.0
1586171855758,7957748.0,4587891.0,0.0
1586171855806,7949346.0,4595388.0,0.0
1586171855854,7950464.0,4598950.0,0.0
1586171855899,7946740.0,4608934.0,0.0
1586171855950,7954769.0,4612823.0,0.0
1586171855997,7955627.0,4618987.0,0.0
1586171856048,7954365.0,4622344.0,0.0
1586171856097,7973972.0,4633234.0,0.0
1586171856142,7979330.0,4641928.0,0.0
1586171856194,7989821.0,4652590.0,0.0
1586171856241,7986455.0,4664949.0,0.0
1586171856291,7996977.0,4673531.0,0.0
1586171856343,7981792.0,4669687.0,0.0
1586171856384,7932558.0,4637145.0,0.0
1586171856437,7893687.0,4617856.0,0.0
1586171856479,7874824.0,4606039.0,0.0
1586171856534,7858880.0,4598011.0,0.0
1586171856585,7848308.0,4592709.0,0.0
1586171856631,7831470.0,4583980.0,0.0
1586171856683,7815473.0,4574029.0,0.0
1586171856728,7806359.0,4574425.0,0.0
1586171856777,7802845.0,4571032.0,0.0
1586171856825,7811944.0,4572649.0,0.0
1586171856868,7814373.0,4573826.0,0.0
1586171856924,7823633.0,4555767.0,0.0
1586171856970,7850429.0,4547423.0,0.0
1586171857020,7890530.0,4550521.0,0.0
1586171857067,7924221.0,4566170.0,0.0
1586171857116,7948407.0,4586987.0,0.0
1586171857160,7968418.0,4616543.0,0.0
1586171857213,7988267.0,4647050.0,0.0
1586171857264,8010464.0,4673475.0,0.0
1586171857310,8021131.0,4685031.0,0.0
1586171857360,7994094.0,4661331.0,0.0
1586171857406,7967915.0,4636818.0,0.0
1586171857456,7961149.0,4633957.0,0.0
1586171857500,7958365.0,4632431.0,0.0
1586171857553,7962688.0,4628687.0,0.0
1586171857604,7966539.0,4629445.0,0.0
1586171857650,7964759.0,4622118.0,0.0
1586171857699,7973128.0,4625781.0,0.0
1586171857744,7982583.0,4629625.0,0.0
1586171857797,7996864.0,4635042.0,0.0
1586171857846,8010949.0,4641340.0,0.0
1586171857894,8016744.0,4648848.0,0.0
1586171857947,8035717.0,4655451.0,0.0
1586171857985,8056424.0,4662314.0,0.0
1586171858040,8072843.0,4673135.0,0.0
1586171858084,8093355.0,4682928.0,0.0
1586171858132,8115162.0,4691669.0,0.0
1586171858181,8136954.0,4702275.0,0.0
1586171858234,8154859.0,4714430.0,0.0
1586171858281,8174222.0,4724833.0,0.0
1586171858325,8191659.0,4738954.0,0.0
1586171858375,8213448.0,4747662.0,0.0
1586171858424,8208384.0,4740152.0,0.0
1586171858472,8170190.0,4703857.0,0.0
1586171858521,8138507.0,4675273.0,0.0
1586171858570,8118350.0,4662723.0,0.0
1586171858625,8104945.0,4650951.0,0.0
1586171858670,8101789.0,4648791.0,0.0
1586171858718,8083333.0,4635993.0,0.0
1586171858767,8082071.0,4626596.0,0.0
1586171858816,8075336.0,4620964.0,0.0
1586171858861,8075109.0,4621179.0,0.0
1586171858915,8082749.0,4625036.0,0.0
1586171858958,8082071.0,4627297.0,0.0
1586171859010,8087365.0,4632045.0,0.0
1586171859055,8087883.0,4632645.0,0.0
1586171859106,8092171.0,4636501.0,0.0
1586171859156,8103586.0,4644110.0,0.0
1586171859206,8109672.0,4646678.0,0.0
1586171859253,8114109.0,4642482.0,0.0
1586171859302,8076081.0,4613310.0,0.0
1586171859349,8033710.0,4585122.0,0.0
1586171859398,8013701.0,4570953.0,0.0
1586171859443,7999906.0,4569020.0,0.0
1586171859495,7980593.0,4559975.0,0.0
1586171859546,7956666.0,4541171.0,0.0
1586171859592,7934970.0,4528438.0,0.0
1586171859643,7917986.0,4513739.0,0.0
1586171859685,7906330.0,4505825.0,0.0
1586171859738,7890077.0,4497005.0,0.0
1586171859784,7875473.0,4482826.0,0.0
1586171859830,7855802.0,4474357.0,0.0
1586171859887,7835808.0,4457589.0,0.0
1586171859932,7815037.0,4444381.0,0.0
1586171859980,7756916.0,4401448.0,0.0
1586171860029,7678734.0,4347694.0,0.0
1586171860078,7616776.0,4307295.0,0.0
1586171860126,7570376.0,4271055.0,0.0
1586171860175,7520174.0,4238017.0,0.0
1586171860224,7484733.0,4212461.0,0.0
1586171860272,7436974.0,4177771.0,0.0
1586171860319,7405341.0,4148701.0,0.0
1586171860367,7397536.0,4139611.0,0.0
1586171860418,7415022.0,4141023.0,0.0
1586171860467,7429413.0,4144483.0,0.0
1586171860514,7451837.0,4148837.0,0.0
1586171860564,7486126.0,4163017.0,0.0
1586171860612,7526746.0,4179557.0,0.0
1586171860659,7561620.0,4198135.0,0.0
1586171860705,7588704.0,4199198.0,0.0
1586171860757,7594856.0,4198385.0,0.0
1586171860806,7599569.0,4195864.0,0.0
1586171860854,7587441.0,4191284.0,0.0
1586171860904,7592704.0,4190311.0,0.0
1586171860951,7596896.0,4191386.0,0.0
1586171861000,7597221.0,4193308.0,0.0
1586171861044,7600392.0,4202670.0,0.0
1586171861097,7609314.0,4209556.0,0.0
1586171861147,7621390.0,4220942.0,0.0
1586171861194,7629291.0,4223995.0,0.0
1586171861243,7640366.0,4233910.0,0.0
1586171861290,7648477.0,4238978.0,0.0
1586171861340,7660343.0,4245784.0,0.0
1586171861386,7670074.0,4251550.0,0.0
1586171861437,7687819.0,4266317.0,0.0
1586171861489,7698504.0,4272548.0,0.0
1586171861529,7717736.0,4281866.0,0.0
1586171861583,7721719.0,4295060.0,0.0
1586171861632,7715098.0,4285980.0,0.0
1586171861679,7690830.0,4276912.0,0.0
1586171861726,7696884.0,4274086.0,0.0
1586171861776,7675936.0,4254118.0,0.0
1586171861825,7586568.0,4189610.0,0.0
1586171861873,7479505.0,4133335.0,0.0
1586171861924,7408610.0,4112270.0,0.0
1586171861964,7337570.0,4093431.0,0.0
1586171862020,7300657.0,4093240.0,0.0
1586171862063,7294376.0,4090662.0,0.0
1586171862117,7293954.0,4085550.0,0.0
1586171862166,7280340.0,4080056.0,0.0
1586171862213,7294667.0,4084713.0,0.0
1586171862261,7298292.0,4091182.0,0.0
1586171862310,7310257.0,4094075.0,0.0
1586171862360,7324343.0,4101414.0,0.0
1586171862407,7337425.0,4107633.0,0.0
1586171862457,7363490.0,4116012.0,0.0
1586171862505,7376020.0,4122593.0,0.0
1586171862553,7398507.0,4132295.0,0.0
1586171862603,7418065.0,4146633.0,0.0
1586171862647,7441765.0,4162021.0,0.0
1586171862699,7470664.0,4176731.0,0.0
1586171862748,7493218.0,4187089.0,0.0
1586171862793,7516337.0,4203847.0,0.0
1586171862845,7537675.0,4216181.0,0.0
1586171862894,7566848.0,4230282.0,0.0
1586171862943,7595796.0,4247243.0,0.0
1586171862988,7581969.0,4235245.0,0.0
1586171863040,7534565.0,4201754.0,0.0
1586171863089,7501896.0,4176449.0,0.0
1586171863137,7493218.0,4165357.0,0.0
1586171863185,7469515.0,4149233.0,0.0
1586171863234,7454929.0,4134251.0,0.0
1586171863282,7432992.0,4117471.0,0.0
1586171863325,7409582.0,4100792.0,0.0
1586171863381,7393911.0,4081932.0,0.0
1586171863425,7383450.0,4074357.0,0.0
1586171863473,7371842.0,4065741.0,0.0
1586171863521,7362632.0,4060212.0,0.0
1586171863570,7357125.0,4052116.0,0.0
1586171863619,7349824.0,4045263.0,0.0
1586171863668,7343706.0,4040582.0,0.0
1586171863717,7331255.0,4030248.0,0.0
1586171863767,7323776.0,4027014.0,0.0
1586171863813,7314484.0,4018285.0,0.0
1586171863866,7313332.0,4013287.0,0.0
1586171863915,7298795.0,4002726.0,0.0
1586171863964,7294036.0,3994392.0,0.0
1586171864008,7285585.0,3994585.0,0.0
1586171864056,7288273.0,3991657.0,0.0
1586171864109,7296983.0,4000138.0,0.0
1586171864154,7262240.0,3972232.0,0.0
1586171864206,7222946.0,3949108.0,0.0
1586171864256,7206644.0,3938694.0,0.0
1586171864303,7211208.0,3938332.0,0.0
1586171864351,7206708.0,3936321.0,0.0
1586171864402,7204878.0,3931040.0,0.0
1586171864450,7196896.0,3927342.0,0.0
1586171864498,7193838.0,3922750.0,0.0
1586171864547,7191668.0,3923984.0,0.0
1586171864595,7204523.0,3930191.0,0.0
1586171864644,7203112.0,3930768.0,0.0
1586171864687,7205867.0,3936207.0,0.0
1586171864742,7202789.0,3934250.0,0.0
1586171864794,7204491.0,3937903.0,0.0
1586171864833,7208960.0,3937225.0,0.0
1586171864886,7208375.0,3937336.0,0.0
1586171864936,7204069.0,3936952.0,0.0
1586171864984,7212730.0,3940526.0,0.0
1586171865029,7222882.0,3945083.0,0.0
1586171865082,7216826.0,3942629.0,0.0
1586171865133,7167028.0,3907181.0,0.0
1586171865178,7133675.0,3881831.0,0.0
1586171865226,7122731.0,3875815.0,0.0
1586171865275,7116578.0,3869053.0,0.0
1586171865323,7118181.0,3868318.0,0.0
1586171865368,7109762.0,3870965.0,0.0
1586171865417,7103741.0,3865967.0,0.0
1586171865471,7101943.0,3866260.0,0.0
1586171865518,7110897.0,3873836.0,0.0
1586171865563,7128997.0,3887382.0,0.0
1586171865611,7145576.0,3901539.0,0.0
1586171865663,7162007.0,3916972.0,0.0
1586171865710,7176043.0,3933854.0,0.0
1586171865762,7193367.0,3947751.0,0.0
1586171865808,7206676.0,3962292.0,0.0
1586171865854,7218074.0,3977274.0,0.0
1586171865905,7237096.0,3991736.0,0.0
1586171865954,7245189.0,3997582.0,0.0
1586171866003,7216730.0,3981956.0,0.0
1586171866050,7204782.0,3977646.0,0.0
1586171866101,7208474.0,3981775.0,0.0
1586171866151,7223659.0,3991556.0,0.0
1586171866198,7233291.0,3998429.0,0.0
1586171866246,7240610.0,4005733.0,0.0
1586171866296,7244657.0,4009262.0,0.0
1586171866344,7258077.0,4018263.0,0.0
1586171866393,7271840.0,4027625.0,0.0
1586171866436,7296724.0,4044834.0,0.0
1586171866484,7308331.0,4058006.0,0.0
1586171866534,7331354.0,4076810.0,0.0
1586171866584,7356898.0,4092324.0,0.0
1586171866631,7383013.0,4109058.0,0.0
1586171866682,7404433.0,4128032.0,0.0
1586171866731,7436197.0,4145920.0,0.0
1586171866782,7449294.0,4153370.0,0.0
1586171866830,7448145.0,4143851.0,0.0
1586171866880,7460256.0,4149142.0,0.0
1586171866923,7480264.0,4161342.0,0.0
1586171866969,7513940.0,4181504.0,0.0
1586171867022,7538647.0,4194698.0,0.0
1586171867071,7560648.0,4203971.0,0.0
1586171867118,7583185.0,4217969.0,0.0
1586171867165,7609120.0,4234093.0,0.0
1586171867219,7641646.0,4257487.0,0.0
1586171867267,7674461.0,4275600.0,0.0
1586171867315,7672648.0,4293363.0,0.0
1586171867364,7694973.0,4314305.0,0.0
1586171867414,7740709.0,4337812.0,0.0
1586171867462,7780424.0,4357827.0,0.0
1586171867509,7821090.0,4379050.0,0.0
1586171867560,7843354.0,4401574.0,0.0
1586171867606,7847351.0,4403563.0,0.0
1586171867652,7853099.0,4407159.0,0.0
1586171867700,7868526.0,4424200.0,0.0
1586171867754,7897570.0,4443365.0,0.0
1586171867801,7921274.0,4463083.0,0.0
1586171867849,7944392.0,4482442.0,0.0
1586171867894,7958673.0,4492856.0,0.0
1586171867942,7978909.0,4508097.0,0.0
1586171867992,7997140.0,4527014.0,0.0
1586171868044,8026071.0,4546824.0,0.0
1586171868096,8049966.0,4563569.0,0.0
1586171868142,8072826.0,4586321.0,0.0
1586171868188,8098941.0,4603676.0,0.0
1586171868240,8124843.0,4624132.0,0.0
1586171868286,8151930.0,4643817.0,0.0
1586171868335,8166789.0,4652885.0,0.0
1586171868384,8181832.0,4660924.0,0.0
1586171868433,8193262.0,4672310.0,0.0
1586171868478,8224506.0,4690062.0,0.0
1586171868525,8248322.0,4710743.0,0.0
1586171868574,8270146.0,4725985.0,0.0
1586171868622,8290400.0,4741126.0,0.0
1586171868673,8303869.0,4751335.0,0.0
1586171868720,8323589.0,4767370.0,0.0
1586171868768,8345818.0,4786545.0,0.0
1586171868817,8372320.0,4804096.0,0.0
1586171868865,8396037.0,4820490.0,0.0
1586171868912,8414301.0,4839102.0,0.0
1586171868967,8415936.0,4852998.0,0.0
1586171869015,8382210.0,4841465.0,0.0
1586171869058,8395083.0,4850647.0,0.0
1586171869112,8394676.0,4861027.0,0.0
1586171869161,8407354.0,4853993.0,0.0
1586171869208,8436706.0,4857409.0,0.0
1586171869257,8466592.0,4898566.0,0.0
1586171869306,8483706.0,4921553.0,0.0
1586171869357,8494487.0,4926665.0,0.0
1586171869404,8433774.0,4965922.0,0.0
1586171869453,8512311.0,5082307.0,0.0
1586171869500,8673544.0,5195853.0,0.0
1586171869548,8846874.0,5293998.0,0.0
1586171869592,8851098.0,5326652.0,0.0
1586171869646,8867223.0,5337699.0,0.0
1586171869696,8744439.0,5268874.0,0.0
1586171869744,8644421.0,5195491.0,0.0
1586171869792,8599639.0,5133415.0,0.0
1586171869837,8592904.0,5112055.0,0.0
1586171869888,8582138.0,5098938.0,0.0
1586171869936,8570045.0,5095706.0,0.0
1586171869980,8567194.0,5095275.0,0.0
1586171870034,8568279.0,5099629.0,0.0
1586171870083,8573186.0,5106062.0,0.0
1586171870131,8585117.0,5110190.0,0.0
1586171870182,8590833.0,5118579.0,0.0
1586171870229,8597259.0,5121926.0,0.0
1586171870277,8598004.0,5122084.0,0.0
1586171870326,8562775.0,5107939.0,0.0
1586171870375,8527077.0,5087575.0,0.0
1586171870422,8489242.0,5066601.0,0.0
1586171870468,8460360.0,5052117.0,0.0
1586171870519,8445285.0,5034229.0,0.0
1586171870568,8425681.0,5014237.0,0.0
1586171870615,8395746.0,4995309.0,0.0
1586171870666,8377646.0,4974222.0,0.0
1586171870714,8360096.0,4962925.0,0.0
1586171870763,8348989.0,4954400.0,0.0
1586171870811,8328544.0,4944698.0,0.0
1586171870855,8315607.0,4934184.0,0.0
1586171870908,8305698.0,4925974.0,0.0
1586171870956,8254021.0,4895987.0,0.0
1586171871000,8188549.0,4849176.0,0.0
1586171871054,8141000.0,4817245.0,0.0
1586171871098,8106807.0,4791883.0,0.0
1586171871150,8087525.0,4776754.0,0.0
1586171871199,8061073.0,4759137.0,0.0
1586171871247,8021975.0,4736400.0,0.0
1586171871301,7995261.0,4712870.0,0.0
1586171871345,7976480.0,4701133.0,0.0
1586171871393,7959691.0,4693455.0,0.0
1586171871440,7954932.0,4685563.0,0.0
1586171871490,7945541.0,4678009.0,0.0
1586171871539,7938775.0,4673633.0,0.0
1586171871584,7920983.0,4659872.0,0.0
1586171871633,7850315.0,4614802.0,0.0
1586171871679,7783482.0,4574019.0,0.0
1586171871729,7747348.0,4550341.0,0.0
1586171871780,7714062.0,4531356.0,0.0
1586171871826,7697629.0,4516985.0,0.0
1586171871879,7678656.0,4504762.0,0.0
1586171871927,7653253.0,4490187.0,0.0
1586171871976,7636820.0,4477488.0,0.0
1586171872025,7629358.0,4474605.0,0.0
1586171872072,7623074.0,4473045.0,0.0
1586171872119,7620032.0,4472198.0,0.0
1586171872170,7617716.0,4472061.0,0.0
1586171872217,7617021.0,4467992.0,0.0
1586171872267,7622961.0,4474786.0,0.0
1586171872315,7626152.0,4475715.0,0.0
1586171872365,7580657.0,4444529.0,0.0
1586171872412,7523752.0,4407058.0,0.0
1586171872458,7496974.0,4392923.0,0.0
1586171872508,7479505.0,4381899.0,0.0
1586171872558,7468349.0,4374030.0,0.0
1586171872605,7455106.0,4363050.0,0.0
1586171872656,7444162.0,4357780.0,0.0
1586171872698,7442106.0,4357057.0,0.0
1586171872753,7448500.0,4360167.0,0.0
1586171872801,7468576.0,4367053.0,0.0
1586171872848,7482711.0,4379818.0,0.0
1586171872898,7495970.0,4383164.0,0.0
1586171872947,7507482.0,4395286.0,0.0
1586171872994,7525242.0,4398882.0,0.0
1586171873039,7546772.0,4409884.0,0.0
1586171873088,7561230.0,4419913.0,0.0
1586171873140,7541998.0,4406310.0,0.0
1586171873185,7494269.0,4378971.0,0.0
1586171873234,7482629.0,4366973.0,0.0
1586171873285,7479633.0,4366307.0,0.0
1586171873334,7486094.0,4368115.0,0.0
1586171873379,7485690.0,4367900.0,0.0
1586171873431,7487453.0,4361658.0,0.0
1586171873485,7485591.0,4359340.0,0.0
1586171873522,7494336.0,4365527.0,0.0
1586171873578,7506298.0,4372571.0,0.0
1586171873619,7523234.0,4378258.0,0.0
1586171873674,7543098.0,4386750.0,0.0
1586171873724,7560049.0,4396190.0,0.0
1586171873771,7578455.0,4407893.0,0.0
1586171873825,7599665.0,4418330.0,0.0
1586171873867,7596477.0,4414791.0,0.0
1586171873919,7581111.0,4408143.0,0.0
1586171873959,7580933.0,4403823.0,0.0
1586171874013,7595229.0,4413354.0,0.0
1586171874059,7602757.0,4418013.0,0.0
1586171874110,7602952.0,4416284.0,0.0
1586171874165,7590792.0,4411511.0,0.0
1586171874208,7589466.0,4416475.0,0.0
1586171874257,7589303.0,4414520.0,0.0
1586171874300,7597058.0,4418003.0,0.0
1586171874354,7596782.0,4421282.0,0.0
1586171874403,7604375.0,4422853.0,0.0
1586171874450,7607549.0,4422322.0,0.0
1586171874505,7573696.0,4399481.0,0.0
1586171874549,7526472.0,4368873.0,0.0
1586171874598,7506606.0,4353438.0,0.0
1586171874642,7489169.0,4339407.0,0.0
1586171874694,7477512.0,4329864.0,0.0
1586171874739,7455252.0,4313207.0,0.0
1586171874787,7428587.0,4295795.0,0.0
1586171874835,7406958.0,4281242.0,0.0
1586171874888,7393957.0,4272016.0,0.0
1586171874940,7389521.0,4261636.0,0.0
1586171874982,7371389.0,4250839.0,0.0
1586171875034,7357352.0,4240050.0,0.0
1586171875085,7343543.0,4226844.0,0.0
1586171875131,7298586.0,4198068.0,0.0
1586171875180,7240770.0,4167222.0,0.0
1586171875227,7203520.0,4143297.0,0.0
1586171875277,7175965.0,4121746.0,0.0
1586171875320,7163351.0,4112540.0,0.0
1586171875373,7142353.0,4097401.0,0.0
1586171875424,7083892.0,4076832.0,0.0
1586171875471,7042772.0,4048497.0,0.0
1586171875519,6986850.0,4004083.0,0.0
1586171875568,6975115.0,3993849.0,0.0
1586171875617,7005373.0,4014112.0,0.0
1586171875660,7037169.0,4036455.0,0.0
1586171875709,7091776.0,4070117.0,0.0
1586171875763,7120142.0,4078620.0,0.0
1586171875810,7166638.0,4102670.0,0.0
1586171875860,7201236.0,4122051.0,0.0
1586171875903,7174781.0,4112891.0,0.0
1586171875958,7145137.0,4097637.0,0.0
1586171876000,7118327.0,4094224.0,0.0
1586171876049,7107968.0,4098442.0,0.0
1586171876105,7116613.0,4107792.0,0.0
1586171876151,7124384.0,4119631.0,0.0
1586171876200,7122164.0,4134001.0,0.0
1586171876248,7115979.0,4148577.0,0.0
1586171876296,7151112.0,4191906.0,0.0
1586171876344,7178312.0,4232848.0,0.0
1586171876394,7215953.0,4272774.0,0.0
1586171876443,7269506.0,4296632.0,0.0
1586171876491,7302388.0,4289960.0,0.0
1586171876541,7334106.0,4292764.0,0.0
1586171876582,7356398.0,4288729.0,0.0
1586171876633,7387886.0,4282215.0,0.0
1586171876681,7422434.0,4278076.0,0.0
1586171876732,7443581.0,4272932.0,0.0
1586171876783,7430304.0,4239735.0,0.0
1586171876827,7410990.0,4210019.0,0.0
1586171876877,7427389.0,4186534.0,0.0
1586171876931,7456986.0,4186658.0,0.0
1586171876974,7474874.0,4182702.0,0.0
1586171877022,7484087.0,4174482.0,0.0
1586171877072,7481707.0,4167527.0,0.0
1586171877120,7483342.0,4160030.0,0.0
1586171877169,7485672.0,4155237.0,0.0
1586171877221,7506298.0,4153868.0,0.0
1586171877269,7522749.0,4156921.0,0.0
1586171877318,7502542.0,4159532.0,0.0
1586171877362,7487066.0,4177907.0,0.0
1586171877415,7527330.0,4203755.0,0.0
1586171877466,7605963.0,4247027.0,0.0
1586171877511,7670868.0,4304422.0,0.0
1586171877561,7713364.0,4354763.0,0.0
1586171877610,7763214.0,4406899.0,0.0
1586171877659,7822080.0,4456242.0,0.0
1586171877705,7851610.0,4479242.0,0.0
1586171877755,7845021.0,4462971.0,0.0
1586171877809,7846234.0,4455123.0,0.0
1586171877852,7857972.0,4442313.0,0.0
1586171877901,7851269.0,4411410.0,0.0
1586171877948,7837751.0,4377364.0,0.0
1586171877999,7823179.0,4350872.0,0.0
1586171878045,7813288.0,4328913.0,0.0
1586171878095,7807944.0,4314837.0,0.0
1586171878140,7808189.0,4299243.0,0.0
1586171878192,7805047.0,4283969.0,0.0
1586171878240,7796596.0,4273995.0,0.0
1586171878287,7794248.0,4267018.0,0.0
1586171878338,7795965.0,4262371.0,0.0
1586171878389,7794766.0,4257239.0,0.0
1586171878434,7794816.0,4253665.0,0.0
1586171878484,7797181.0,4248204.0,0.0
1586171878531,7789149.0,4247277.0,0.0
1586171878581,7793521.0,4245365.0,0.0
1586171878623,7797649.0,4244246.0,0.0
1586171878678,7775889.0,4231107.0,0.0
1586171878728,7751784.0,4213310.0,0.0
1586171878774,7748433.0,4204672.0,0.0
1586171878816,7740741.0,4205519.0,0.0
1586171878873,7745373.0,4204897.0,0.0
1586171878915,7747202.0,4202737.0,0.0
1586171878963,7731368.0,4195681.0,0.0
1586171879018,7725152.0,4194811.0,0.0
1586171879068,7721605.0,4195649.0,0.0
1586171879114,7723726.0,4196597.0,0.0
1586171879164,7721687.0,4194031.0,0.0
1586171879212,7734557.0,4201742.0,0.0
1586171879261,7744465.0,4208788.0,0.0
1586171879303,7746699.0,4211468.0,0.0
1586171879357,7761335.0,4215594.0,0.0
1586171879409,7771502.0,4225137.0,0.0
1586171879454,7772587.0,4232283.0,0.0
1586171879503,7768913.0,4230926.0,0.0
1586171879550,7746667.0,4221960.0,0.0
1586171879601,7750196.0,4223961.0,0.0
1586171879643,7755508.0,4231436.0,0.0
1586171879698,7765157.0,4237214.0,0.0
1586171879745,7761838.0,4247062.0,0.0
1586171879794,7763328.0,4250680.0,0.0
1586171879841,7765172.0,4257601.0,0.0
1586171879892,7765236.0,4260833.0,0.0
1586171879941,7766888.0,4263275.0,0.0
1586171879985,7768800.0,4264157.0,0.0
1586171880043,7769122.0,4269326.0,0.0
1586171880085,7744968.0,4257001.0,0.0
1586171880128,7735220.0,4254049.0,0.0
1586171880183,7740887.0,4264102.0,0.0
1586171880230,7718353.0,4253687.0,0.0
1586171880281,7699328.0,4246428.0,0.0
1586171880328,7692238.0,4243783.0,0.0
1586171880377,7671354.0,4236003.0,0.0
1586171880425,7688578.0,4246586.0,0.0
1586171880474,7692061.0,4252285.0,0.0
1586171880523,7685178.0,4251958.0,0.0
1586171880569,7710871.0,4265888.0,0.0
1586171880620,7697093.0,4260855.0,0.0
1586171880669,7701448.0,4270874.0,0.0
1586171880713,7696884.0,4274143.0,0.0
1586171880765,7689355.0,4276437.0,0.0
1586171880814,7684206.0,4282057.0,0.0
1586171880863,7676826.0,4278586.0,0.0
1586171880907,7676613.0,4281096.0,0.0
1586171880961,7663598.0,4279298.0,0.0
1586171881006,7645952.0,4271857.0,0.0
1586171881053,7623010.0,4262022.0,0.0
1586171881105,7615354.0,4259126.0,0.0
1586171881154,7615936.0,4265571.0,0.0
1586171881204,7617620.0,4270512.0,0.0
1586171881248,7613684.0,4273814.0,0.0
1586171881300,7602530.0,4273078.0,0.0
1586171881347,7594274.0,4270626.0,0.0
1586171881397,7588072.0,4272186.0,0.0
1586171881445,7582763.0,4273519.0,0.0
1586171881494,7578004.0,4273395.0,0.0
1586171881543,7574880.0,4278314.0,0.0
1586171881592,7573922.0,4280769.0,0.0
1586171881641,7558641.0,4277274.0,0.0
1586171881690,7521178.0,4260280.0,0.0
1586171881739,7486903.0,4240040.0,0.0
1586171881786,7470973.0,4233075.0,0.0
1586171881831,7460724.0,4226866.0,0.0
1586171881884,7457730.0,4231604.0,0.0
1586171881928,7444162.0,4230158.0,0.0
1586171881978,7428410.0,4231988.0,0.0
1586171882028,7413760.0,4226143.0,0.0
1586171882074,7408384.0,4226708.0,0.0
1586171882124,7397376.0,4227783.0,0.0
1586171882172,7398507.0,4237700.0,0.0
1586171882221,7394443.0,4242155.0,0.0
1586171882269,7381006.0,4243557.0,0.0
1586171882318,7338946.0,4222943.0,0.0
1586171882372,7299749.0,4201754.0,0.0
1586171882420,7273751.0,4197187.0,0.0
1586171882467,7260264.0,4204332.0,0.0
1586171882516,7363328.0,4233165.0,0.0
1586171882565,7469501.0,4263716.0,0.0
1586171882610,7519298.0,4300464.0,0.0
1586171882662,7593140.0,4377465.0,0.0
1586171882713,7675790.0,4443036.0,0.0
1586171882759,7733684.0,4512835.0,0.0
1586171882808,7820718.0,4588751.0,0.0
1586171882858,7868043.0,4646168.0,0.0
1586171882905,7920270.0,4734567.0,0.0
1586171882952,7994385.0,4794337.0,0.0
1586171883004,8144043.0,4884240.0,0.0
1586171883049,8271133.0,4941771.0,0.0
1586171883101,8363901.0,4979842.0,0.0
1586171883148,8404811.0,4989848.0,0.0
1586171883197,8399130.0,4968433.0,0.0
1586171883249,8380398.0,4938130.0,0.0
1586171883294,8337835.0,4854038.0,0.0
1586171883343,8285477.0,4765787.0,0.0
1586171883391,8241669.0,4690007.0,0.0
1586171883440,8206714.0,4635438.0,0.0
1586171883488,8160136.0,4581605.0,0.0
1586171883538,8078978.0,4522605.0,0.0
1586171883586,8024887.0,4497310.0,0.0
1586171883633,7995066.0,4482340.0,0.0
1586171883682,7962946.0,4460450.0,0.0
1586171883733,7937966.0,4459613.0,0.0
1586171883779,7920026.0,4452782.0,0.0
1586171883824,7935586.0,4482736.0,0.0
1586171883878,7979508.0,4523408.0,0.0
1586171883921,8055016.0,4598475.0,0.0
1586171883968,8174853.0,4675941.0,0.0
1586171884024,8285349.0,4722344.0,0.0
1586171884075,8290772.0,4710337.0,0.0
1586171884120,8218420.0,4662643.0,0.0
1586171884169,8138752.0,4634861.0,0.0
1586171884213,8059371.0,4577726.0,0.0
1586171884266,7962525.0,4516782.0,0.0
1586171884308,7840066.0,4488480.0,0.0
1586171884363,7746653.0,4458538.0,0.0
1586171884415,7691444.0,4431345.0,0.0
1586171884459,7679255.0,4415244.0,0.0
1586171884508,7673815.0,4387915.0,0.0
1586171884553,7655682.0,4349889.0,0.0
1586171884602,7632256.0,4321269.0,0.0
1586171884652,7553864.0,4278428.0,0.0
1586171884703,7469693.0,4238423.0,0.0
1586171884751,7421384.0,4217358.0,0.0
1586171884800,7391156.0,4205519.0,0.0
1586171884848,7360657.0,4194564.0,0.0
1586171884897,7323889.0,4172728.0,0.0
1586171884947,7286362.0,4154286.0,0.0
1586171884993,7254612.0,4139814.0,0.0
1586171885042,7232610.0,4130598.0,0.0
1586171885086,7217230.0,4122571.0,0.0
1586171885136,7212130.0,4115809.0,0.0
1586171885188,7174993.0,4098883.0,0.0
1586171885235,7101556.0,4061614.0,0.0
1586171885286,7041329.0,4032205.0,0.0
1586171885336,7014827.0,4014632.0,0.0
1586171885383,6997422.0,4006095.0,0.0
1586171885431,6974466.0,3996925.0,0.0
1586171885479,6940386.0,3978812.0,0.0
1586171885528,6908200.0,3966713.0,0.0
1586171885573,6894100.0,3960009.0,0.0
1586171885625,6876858.0,3952568.0,0.0
1586171885677,6866109.0,3947808.0,0.0
1586171885722,6852072.0,3942946.0,0.0
1586171885770,6830589.0,3935969.0,0.0
1586171885816,6767287.0,3906775.0,0.0
1586171885867,6713844.0,3881197.0,0.0
1586171885910,6680509.0,3869687.0,0.0
1586171885965,6665681.0,3864305.0,0.0
1586171886012,6651255.0,3857905.0,0.0
1586171886058,6617856.0,3845534.0,0.0
1586171886110,6593733.0,3836739.0,0.0
1586171886162,6574920.0,3832610.0,0.0
1586171886207,6566533.0,3831344.0,0.0
1586171886251,6562016.0,3836308.0,0.0
1586171886300,6508544.0,3808154.0,0.0
1586171886355,6678955.0,3861658.0,0.0
1586171886402,6766298.0,3892890.0,0.0
1586171886449,6752506.0,3912982.0,0.0
1586171886500,6770929.0,3996700.0,0.0
1586171886547,6780189.0,4082690.0,0.0
1586171886594,6802952.0,4203077.0,0.0
1586171886645,6862871.0,4355023.0,0.0
1586171886693,7086871.0,4522311.0,0.0
1586171886742,7483310.0,4683188.0,0.0
1586171886790,7769559.0,4761478.0,0.0
1586171886835,7984349.0,4839826.0,0.0
1586171886887,8086912.0,4895118.0,0.0
1586171886938,8056491.0,4922819.0,0.0
1586171886984,7948343.0,4898736.0,0.0
1586171887034,7916433.0,4845864.0,0.0
1586171887083,7852032.0,4765448.0,0.0
1586171887125,7793181.0,4695117.0,0.0
1586171887175,7760090.0,4662755.0,0.0
1586171887223,7743738.0,4634363.0,0.0
1586171887273,7744369.0,4626269.0,0.0
1586171887321,7736986.0,4612597.0,0.0
1586171887370,7736986.0,4608516.0,0.0
1586171887424,7745373.0,4601811.0,0.0
1586171887470,7747656.0,4594393.0,0.0
1586171887517,7748401.0,4590955.0,0.0
1586171887568,7769722.0,4587044.0,0.0
1586171887617,7780552.0,4584216.0,0.0
1586171887662,7786461.0,4589509.0,0.0
1586171887713,7797681.0,4595569.0,0.0
1586171887758,7806181.0,4598078.0,0.0
1586171887810,7785847.0,4578259.0,0.0
1586171887857,7759051.0,4554695.0,0.0
1586171887902,7746944.0,4545342.0,0.0
1586171887956,7724162.0,4534127.0,0.0
1586171888000,7716715.0,4531774.0,0.0
1586171888053,7708264.0,4528778.0,0.0
1586171888103,7691202.0,4529491.0,0.0
1586171888150,7693792.0,4522920.0,0.0
1586171888199,7689858.0,4514271.0,0.0
1586171888247,7680904.0,4504614.0,0.0
1586171888298,7686862.0,4503824.0,0.0
1586171888345,7698536.0,4499685.0,0.0
1586171888389,7708654.0,4504084.0,0.0
1586171888442,7716555.0,4509691.0,0.0
1586171888490,7728017.0,4512993.0,0.0
1586171888538,7744256.0,4523385.0,0.0
1586171888587,7754277.0,4527613.0,0.0
1586171888640,7772977.0,4539339.0,0.0
1586171888685,7764750.0,4530180.0,0.0
1586171888728,7728503.0,4500827.0,0.0
1586171888778,7709512.0,4481570.0,0.0
1586171888830,7700544.0,4470580.0,0.0
1586171888880,7698728.0,4460178.0,0.0
1586171888927,7698277.0,4451246.0,0.0
1586171888977,7685972.0,4438016.0,0.0
1586171889024,7677634.0,4431514.0,0.0
1586171889073,7669070.0,4422265.0,0.0
1586171889118,7671208.0,4416227.0,0.0
1586171889170,7667712.0,4411739.0,0.0
1586171889219,7664910.0,4407984.0,0.0
1586171889267,7663095.0,4401517.0,0.0
1586171889316,7667630.0,4404740.0,0.0
1586171889366,7673829.0,4398848.0,0.0
1586171889413,7677149.0,4397299.0,0.0
1586171889458,7681050.0,4402297.0,0.0
1586171889506,7683156.0,4405371.0,0.0
1586171889560,7688206.0,4407702.0,0.0
1586171889602,7665169.0,4387982.0,0.0
1586171889656,7610269.0,4351947.0,0.0
1586171889705,7583409.0,4337338.0,0.0
1586171889752,7566525.0,4320581.0,0.0
1586171889798,7545754.0,4310946.0,0.0
1586171889849,7530632.0,4298282.0,0.0
1586171889899,7507627.0,4282656.0,0.0
1586171889945,7487162.0,4273385.0,0.0
1586171889996,7479115.0,4270829.0,0.0
1586171890045,7474842.0,4267030.0,0.0
1586171890086,7466522.0,4266884.0,0.0
1586171890137,7464465.0,4264937.0,0.0
1586171890188,7465501.0,4265537.0,0.0
1586171890240,7466586.0,4270287.0,0.0
1586171890286,7467735.0,4270014.0,0.0
1586171890335,7466763.0,4274515.0,0.0
1586171890380,7471621.0,4283402.0,0.0
1586171890431,7478065.0,4290131.0,0.0
1586171890481,7485754.0,4293489.0,0.0
1586171890528,7441765.0,4266668.0,0.0
1586171890577,7390510.0,4233053.0,0.0
1586171890624,7364363.0,4219562.0,0.0
1586171890675,7341812.0,4207329.0,0.0
1586171890723,7329329.0,4200126.0,0.0
1586171890772,7317835.0,4187564.0,0.0
1586171890821,7299895.0,4182113.0,0.0
1586171890869,7303799.0,4183121.0,0.0
1586171890913,7312541.0,4192404.0,0.0
1586171890962,7324634.0,4198192.0,0.0
1586171891009,7334007.0,4204909.0,0.0
1586171891059,7339173.0,4210494.0,0.0
1586171891111,7342944.0,4211998.0,0.0
1586171891163,7357207.0,4226108.0,0.0
1586171891204,7369041.0,4233006.0,0.0
1586171891258,7380343.0,4243659.0,0.0
1586171891302,7396808.0,4255418.0,0.0
1586171891354,7415522.0,4263354.0,0.0
1586171891403,7431857.0,4274356.0,0.0
1586171891451,7433041.0,4275000.0,0.0
1586171891504,7388290.0,4242832.0,0.0
1586171891547,7353029.0,4219619.0,0.0
1586171891590,7342199.0,4209647.0,0.0
1586171891641,7336046.0,4204060.0,0.0
1586171891690,7336872.0,4199267.0,0.0
1586171891738,7326365.0,4193917.0,0.0
1586171891787,7315566.0,4187044.0,0.0
1586171891840,7325978.0,4193749.0,0.0
1586171891884,7334914.0,4197729.0,0.0
1586171891933,7347412.0,4207475.0,0.0
1586171891981,7354973.0,4217165.0,0.0
1586171892034,7368023.0,4225499.0,0.0
1586171892085,7383694.0,4234703.0,0.0
1586171892130,7394443.0,4242562.0,0.0
1586171892180,7411377.0,4258007.0,0.0
1586171892223,7433591.0,4265933.0,0.0
1586171892277,7449730.0,4282396.0,0.0
1586171892320,7468625.0,4295263.0,0.0
1586171892374,7447418.0,4281447.0,0.0
1586171892424,7414455.0,4252635.0,0.0
1586171892470,7393684.0,4241985.0,0.0
1586171892519,7400645.0,4241792.0,0.0
1586171892567,7406408.0,4249719.0,0.0
1586171892615,7404546.0,4246836.0,0.0
1586171892661,7404288.0,4238208.0,0.0
1586171892713,7400224.0,4236082.0,0.0
1586171892765,7413338.0,4244100.0,0.0
1586171892810,7425934.0,4254592.0,0.0
1586171892859,7444680.0,4263830.0,0.0
1586171892905,7455706.0,4270297.0,0.0
1586171892958,7469774.0,4278745.0,0.0
1586171892999,7486385.0,4288140.0,0.0
1586171893053,7499176.0,4300702.0,0.0
1586171893103,7522196.0,4310584.0,0.0
1586171893149,7519412.0,4310901.0,0.0
1586171893197,7476395.0,4284048.0,0.0
1586171893247,7454330.0,4266894.0,0.0
1586171893292,7450056.0,4262631.0,0.0
1586171893342,7449181.0,4261987.0,0.0
1586171893393,7458475.0,4266307.0,0.0
1586171893442,7457050.0,4265118.0,0.0
1586171893489,7456791.0,4264521.0,0.0
1586171893540,7473061.0,4273836.0,0.0
1586171893583,7490708.0,4281797.0,0.0
1586171893635,7509730.0,4293963.0,0.0
1586171893684,7526795.0,4302693.0,0.0
1586171893733,7547112.0,4314609.0,0.0
1586171893782,7566394.0,4327352.0,0.0
1586171893825,7583767.0,4338490.0,0.0
1586171893879,7603680.0,4354186.0,0.0
1586171893927,7630117.0,4365242.0,0.0
1586171893977,7629259.0,4362575.0,0.0
1586171894025,7580674.0,4334149.0,0.0
1586171894073,7560939.0,4319630.0,0.0
1586171894121,7553864.0,4316397.0,0.0
1586171894170,7547162.0,4310901.0,0.0
1586171894219,7544864.0,4307768.0,0.0
1586171894268,7544864.0,4307793.0,0.0
1586171894316,7539729.0,4302839.0,0.0
1586171894363,7550496.0,4308618.0,0.0
1586171894409,7564340.0,4314689.0,0.0
1586171894464,7576706.0,4326540.0,0.0
1586171894506,7591505.0,4336467.0,0.0
1586171894560,7603194.0,4345512.0,0.0
1586171894606,7617733.0,4357170.0,0.0
1586171894656,7642973.0,4367697.0,0.0
1586171894705,7656020.0,4380259.0,0.0
1586171894753,7680500.0,4393354.0,0.0
1586171894799,7699069.0,4410122.0,0.0
1586171894850,7721038.0,4427229.0,0.0
1586171894899,7742231.0,4440740.0,0.0
1586171894942,7760104.0,4455667.0,0.0
1586171894997,7785570.0,4471779.0,0.0
1586171895046,7805373.0,4488899.0,0.0
1586171895093,7828797.0,4506910.0,0.0
1586171895142,7829899.0,4508357.0,0.0
1586171895190,7788357.0,4480735.0,0.0
1586171895241,7748011.0,4455769.0,0.0
1586171895281,7730170.0,4443613.0,0.0
1586171895337,7710938.0,4434419.0,0.0
1586171895389,7695330.0,4424923.0,0.0
1586171895433,7691621.0,4421213.0,0.0
1586171895482,7671418.0,4413513.0,0.0
1586171895530,7665800.0,4411885.0,0.0
1586171895579,7669946.0,4413661.0,0.0
1586171895624,7668308.0,4413750.0,0.0
1586171895671,7675936.0,4420648.0,0.0
1586171895724,7677213.0,4420705.0,0.0
1586171895773,7678429.0,4423395.0,0.0
1586171895822,7685957.0,4427264.0,0.0
1586171895865,7692433.0,4434555.0,0.0
1586171895920,7698746.0,4441238.0,0.0
1586171895962,7702114.0,4449458.0,0.0
1586171896011,7717736.0,4456423.0,0.0
1586171896062,7729152.0,4462902.0,0.0
1586171896113,7741291.0,4473124.0,0.0
1586171896162,7755927.0,4484703.0,0.0
1586171896209,7774158.0,4492121.0,0.0
1586171896258,7783322.0,4505248.0,0.0
1586171896306,7749032.0,4477196.0,0.0
1586171896356,7695281.0,4449119.0,0.0
1586171896405,7668357.0,4434082.0,0.0
1586171896453,7658126.0,4425849.0,0.0
1586171896502,7646193.0,4424549.0,0.0
1586171896551,7632157.0,4412180.0,0.0
1586171896594,7609946.0,4400420.0,0.0
1586171896645,7595488.0,4393364.0,0.0
1586171896692,7597495.0,4395060.0,0.0
1586171896741,7597495.0,4393240.0,0.0
1586171896789,7593934.0,4394201.0,0.0
1586171896838,7604893.0,4396044.0,0.0
1586171896886,7606123.0,4400318.0,0.0
1586171896936,7609361.0,4403417.0,0.0
1586171896985,7616421.0,4408267.0,0.0
1586171897032,7626071.0,4411749.0,0.0
1586171897085,7633387.0,4419132.0,0.0
1586171897128,7644058.0,4430270.0,0.0
1586171897181,7645675.0,4434025.0,0.0
1586171897224,7604360.0,4405621.0,0.0
1586171897281,7545835.0,4366713.0,0.0
1586171897330,7523104.0,4356063.0,0.0
1586171897376,7510670.0,4348078.0,0.0
1586171897424,7505457.0,4344665.0,0.0
1586171897472,7490498.0,4333007.0,0.0
1586171897522,7466795.0,4322401.0,0.0
1586171897563,7460465.0,4317222.0,0.0
1586171897619,7455738.0,4314825.0,0.0
1586171897671,7451933.0,4319788.0,0.0
1586171897716,7459365.0,4323191.0,0.0
1586171897764,7459997.0,4328224.0,0.0
1586171897813,7472203.0,4333301.0,0.0
1586171897862,7471086.0,4338072.0,0.0
1586171897905,7475976.0,4344043.0,0.0
1586171897961,7487746.0,4350634.0,0.0
1586171898009,7499304.0,4358481.0,0.0
1586171898052,7481722.0,4351189.0,0.0
1586171898105,7419941.0,4313287.0,0.0
1586171898153,7383517.0,4294993.0,0.0
1586171898202,7364913.0,4286592.0,0.0
1586171898247,7356043.0,4279773.0,0.0
1586171898300,7334234.0,4272637.0,0.0
1586171898348,7328648.0,4261162.0,0.0
1586171898397,7326932.0,4255553.0,0.0
1586171898445,7332535.0,4252501.0,0.0
1586171898489,7374141.0,4301291.0,0.0
1586171898542,7435208.0,4368940.0,0.0
1586171898585,7462117.0,4385200.0,0.0
1586171898636,7459979.0,4372841.0,0.0
1586171898689,7458330.0,4363367.0,0.0
1586171898736,7469320.0,4358458.0,0.0
1586171898784,7479360.0,4365188.0,0.0
1586171898829,7491339.0,4380090.0,0.0
1586171898885,7490594.0,4381366.0,0.0
1586171898932,7438658.0,4348283.0,0.0
1586171898979,7381024.0,4317381.0,0.0
1586171899023,7347234.0,4299481.0,0.0
1586171899076,7311360.0,4295840.0,0.0
1586171899124,7291025.0,4299424.0,0.0
1586171899171,7286231.0,4312744.0,0.0
1586171899221,7299717.0,4348915.0,0.0
1586171899271,7292674.0,4381502.0,0.0
1586171899321,7279787.0,4408448.0,0.0
1586171899366,7283869.0,4419801.0,0.0
1586171899416,7214577.0,4392596.0,0.0
1586171899463,7203261.0,4413118.0,0.0
1586171899511,7210010.0,4416522.0,0.0
1586171899562,7215435.0,4423521.0,0.0
1586171899611,7249352.0,4437099.0,0.0
1586171899658,7274123.0,4440819.0,0.0
1586171899703,7284532.0,4446236.0,0.0
1586171899751,7269556.0,4433042.0,0.0
1586171899803,7211677.0,4401765.0,0.0
1586171899851,7192349.0,4378902.0,0.0
1586171899897,7211435.0,4375521.0,0.0
1586171899947,7220064.0,4369178.0,0.0
1586171899995,7215386.0,4361648.0,0.0
1586171900046,7201186.0,4340853.0,0.0
1586171900092,7187717.0,4325296.0,0.0
1586171900144,7183962.0,4310483.0,0.0
1586171900188,7182813.0,4300194.0,0.0
1586171900241,7231188.0,4318614.0,0.0
1586171900289,7289309.0,4364271.0,0.0
1586171900340,7405405.0,4443239.0,0.0
1586171900387,7458117.0,4461817.0,0.0
1586171900437,7480849.0,4431945.0,0.0
1586171900484,7526891.0,4438570.0,0.0
1586171900533,7538062.0,4434612.0,0.0
1586171900578,7518877.0,4411828.0,0.0
1586171900634,7445570.0,4373124.0,0.0
1586171900679,7417221.0,4352207.0,0.0
1586171900726,7433073.0,4367890.0,0.0
1586171900776,7445149.0,4373180.0,0.0
1586171900824,7437201.0,4368759.0,0.0
1586171900872,7415976.0,4361807.0,0.0
1586171900921,7381736.0,4345851.0,0.0
1586171900973,7362856.0,4345140.0,0.0
1586171901015,7358146.0,4350917.0,0.0
1586171901066,7358795.0,4355870.0,0.0
1586171901116,7343348.0,4350986.0,0.0
1586171901165,7342929.0,4347694.0,0.0
1586171901210,7328340.0,4342097.0,0.0
1586171901261,7322123.0,4338535.0,0.0
1586171901308,7358277.0,4341995.0,0.0
1586171901359,7385864.0,4342584.0,0.0
1586171901406,7401550.0,4365921.0,0.0
1586171901454,7393376.0,4370840.0,0.0
1586171901503,7336581.0,4341091.0,0.0
1586171901552,7302615.0,4334114.0,0.0
1586171901602,7296576.0,4332905.0,0.0
1586171901649,7292221.0,4334862.0,0.0
1586171901699,7283319.0,4335087.0,0.0
1586171901741,7266027.0,4325059.0,0.0
1586171901789,7233163.0,4319756.0,0.0
1586171901843,7192654.0,4333177.0,0.0
1586171901893,7193399.0,4372333.0,0.0
1586171901940,7187621.0,4384623.0,0.0
1586171901988,7192072.0,4396903.0,0.0
1586171902037,7204378.0,4398226.0,0.0
1586171902081,7179994.0,4397876.0,0.0
1586171902132,7202144.0,4420445.0,0.0
1586171902183,7205882.0,4439700.0,0.0
1586171902237,7232497.0,4470355.0,0.0
1586171902280,7259243.0,4496802.0,0.0
1586171902327,7306161.0,4525521.0,0.0
1586171902378,7370824.0,4557498.0,0.0
1586171902425,7411589.0,4570591.0,0.0
1586171902471,7363863.0,4535755.0,0.0
1586171902523,7335237.0,4512032.0,0.0
1586171902570,7338330.0,4505112.0,0.0
1586171902620,7348820.0,4506831.0,0.0
1586171902662,7358874.0,4502771.0,0.0
1586171902718,7349079.0,4488616.0,0.0
1586171902760,7352075.0,4479727.0,0.0
1586171902813,7363636.0,4475794.0,0.0
1586171902863,7350472.0,4469382.0,0.0
1586171902911,7358260.0,4469178.0,0.0
1586171902961,7357838.0,4473295.0,0.0
1586171903007,7365463.0,4475068.0,0.0
1586171903052,7382722.0,4483957.0,0.0
1586171903105,7401696.0,4491261.0,0.0
1586171903154,7414469.0,4499368.0,0.0
1586171903203,7434644.0,4506016.0,0.0
1586171903250,7435322.0,4510516.0,0.0
1586171903300,7444293.0,4511524.0,0.0
1586171903347,7448794.0,4522774.0,0.0
1586171903391,7407962.0,4487552.0,0.0
1586171903444,7361675.0,4456933.0,0.0
1586171903495,7335400.0,4444405.0,0.0
1586171903542,7327045.0,4438887.0,0.0
1586171903591,7324261.0,4436953.0,0.0
1586171903639,7299589.0,4417470.0,0.0
1586171903687,7288288.0,4406696.0,0.0
1586171903735,7290426.0,4391781.0,0.0
1586171903785,7325361.0,4398124.0,0.0
1586171903828,7335109.0,4412225.0,0.0
1586171903883,7361774.0,4436500.0,0.0
1586171903930,7388989.0,4465107.0,0.0
1586171903976,7407688.0,4484431.0,0.0
1586171904023,7426094.0,4503155.0,0.0
1586171904075,7437233.0,4512914.0,0.0
1586171904124,7468756.0,4528461.0,0.0
1586171904173,7488637.0,4538729.0,0.0
1586171904222,7498690.0,4555012.0,0.0
1586171904270,7491421.0,4573192.0,0.0
1586171904322,7449943.0,4556164.0,0.0
1586171904367,7378368.0,4524040.0,0.0
1586171904416,7341195.0,4512745.0,0.0
1586171904464,7307895.0,4491522.0,0.0
1586171904512,7299895.0,4484037.0,0.0
1586171904562,7280954.0,4458922.0,0.0
1586171904609,7268602.0,4436128.0,0.0
1586171904660,7284986.0,4432522.0,0.0
1586171904707,7314094.0,4431402.0,0.0
1586171904757,7334850.0,4419518.0,0.0
1586171904804,7358973.0,4421508.0,0.0
1586171904853,7373899.0,4411930.0,0.0
1586171904903,7384680.0,4401109.0,0.0
1586171904950,7397521.0,4386513.0,0.0
1586171905000,7406990.0,4378280.0,0.0
1586171905045,7420154.0,4373012.0,0.0
1586171905098,7424282.0,4367979.0,0.0
1586171905144,7404724.0,4342436.0,0.0
1586171905193,7357579.0,4304932.0,0.0
1586171905242,7335092.0,4282814.0,0.0
1586171905290,7327613.0,4271463.0,0.0
1586171905333,7329570.0,4266237.0,0.0
1586171905386,7316701.0,4251201.0,0.0
1586171905437,7290068.0,4231921.0,0.0
1586171905484,7275386.0,4219517.0,0.0
1586171905532,7271758.0,4212642.0,0.0
1586171905583,7273928.0,4212303.0,0.0
1586171905629,7266269.0,4208810.0,0.0
1586171905678,7269751.0,4211195.0,0.0
1586171905727,7272858.0,4204513.0,0.0
1586171905775,7278315.0,4209838.0,0.0
1586171905824,7281149.0,4212315.0,0.0
1586171905872,7248881.0,4185278.0,0.0
1586171905917,7177905.0,4141352.0,0.0
1586171905969,7138388.0,4111613.0,0.0
1586171906018,7124334.0,4101550.0,0.0
1586171906061,7117762.0,4095683.0,0.0
1586171906111,7115851.0,4088988.0,0.0
1586171906164,7099709.0,4080349.0,0.0
1586171906212,7088928.0,4078449.0,0.0
1586171906257,7093314.0,4079965.0,0.0
1586171906305,7104599.0,4085008.0,0.0
1586171906359,7118926.0,4093251.0,0.0
1586171906404,7145981.0,4110776.0,0.0
1586171906455,7166557.0,4125058.0,0.0
1586171906504,7194842.0,4141667.0,0.0
1586171906551,7218964.0,4157645.0,0.0
1586171906597,7230344.0,4161038.0,0.0
1586171906648,7181224.0,4127829.0,0.0
1586171906696,7131572.0,4099277.0,0.0
1586171906746,7118199.0,4092854.0,0.0
1586171906796,7106397.0,4083222.0,0.0
1586171906845,7107191.0,4065820.0,0.0
1586171906892,7065419.0,4043578.0,0.0
1586171906938,7043240.0,4018206.0,0.0
1586171906983,7049943.0,4019202.0,0.0
1586171907041,7063397.0,4025725.0,0.0
1586171907086,7076849.0,4033245.0,0.0
1586171907135,7081335.0,4040594.0,0.0
1586171907184,7097751.0,4046711.0,0.0
1586171907233,7108096.0,4053812.0,0.0
1586171907280,7091438.0,4043883.0,0.0
1586171907325,7043936.0,4009386.0,0.0
1586171907381,7004610.0,3985857.0,0.0
1586171907426,6991968.0,3978359.0,0.0
1586171907474,7001890.0,3978426.0,0.0
1586171907517,7000418.0,3980938.0,0.0
1586171907572,6992000.0,3969381.0,0.0
1586171907622,6998912.0,3968623.0,0.0
1586171907668,7002557.0,3973396.0,0.0
1586171907718,7013533.0,3983516.0,0.0
1586171907762,7031938.0,3993443.0,0.0
1586171907814,7049440.0,4002285.0,0.0
1586171907861,7069242.0,4017302.0,0.0
1586171907912,7090190.0,4029332.0,0.0
1586171907963,7089364.0,4028428.0,0.0
1586171908008,7029576.0,3989644.0,0.0
1586171908058,6987336.0,3956447.0,0.0
1586171908105,6968736.0,3947570.0,0.0
1586171908154,6955476.0,3948995.0,0.0
1586171908201,6965125.0,3948678.0,0.0
1586171908250,6964267.0,3948487.0,0.0
1586171908305,6964994.0,3941859.0,0.0
1586171908348,6964785.0,3943048.0,0.0
1586171908397,6984552.0,3955632.0,0.0
1586171908444,7003202.0,3965163.0,0.0
1586171908495,7018760.0,3976460.0,0.0
1586171908538,7037573.0,3985936.0,0.0
1586171908592,7056613.0,3998057.0,0.0
1586171908643,7072785.0,4012168.0,0.0
1586171908688,7097509.0,4024448.0,0.0
1586171908738,7057035.0,4001572.0,0.0
1586171908781,7007202.0,3966657.0,0.0
1586171908829,6980360.0,3949425.0,0.0
1586171908882,6974530.0,3943602.0,0.0
1586171908931,6976782.0,3945207.0,0.0
1586171908983,6970370.0,3942324.0,0.0
1586171909024,6965757.0,3940866.0,0.0
1586171909078,6968299.0,3941024.0,0.0
1586171909122,6975906.0,3944246.0,0.0
1586171909174,6996160.0,3955328.0,0.0
1586171909224,7016721.0,3966352.0,0.0
1586171909271,7031860.0,3981876.0,0.0
1586171909325,7054202.0,3993341.0,0.0
1586171909364,7077789.0,4008086.0,0.0
1586171909416,7098577.0,4022288.0,0.0
1586171909462,7119834.0,4038320.0,0.0
1586171909514,7149623.0,4051833.0,0.0
1586171909562,7177777.0,4072819.0,0.0
1586171909610,7200395.0,4088525.0,0.0
1586171909844,7231234.0,4112835.0,0.0
1586171909844,7216925.0,4097322.0,0.0
1586171909886,7119770.0,4035789.0,0.0
1586171909905,7120369.0,4036886.0,0.0
1586171910022,7115706.0,4032961.0,0.0
1586171910022,7110589.0,4032544.0,0.0
1586171910056,7110557.0,4028574.0,0.0
1586171910093,7120189.0,4034771.0,0.0
1586171910142,7134891.0,4044348.0,0.0
1586171910194,7147988.0,4054570.0,0.0
1586171910240,7169149.0,4065525.0,0.0
1586171910284,7193093.0,4078100.0,0.0
1586171910339,7215709.0,4092730.0,0.0
1586171910388,7237922.0,4106932.0,0.0
1586171910436,7256541.0,4118759.0,0.0
1586171910481,7275790.0,4134702.0,0.0
1586171910533,7305920.0,4149617.0,0.0
1586171910582,7326836.0,4166385.0,0.0
1586171910629,7354519.0,4184216.0,0.0
1586171910682,7380570.0,4202626.0,0.0
1586171910727,7410260.0,4220072.0,0.0
1586171910776,7436002.0,4236558.0,0.0
1586171910820,7460514.0,4257464.0,0.0
1586171910874,7464352.0,4251901.0,0.0
1586171910921,7411412.0,4215549.0,0.0
1586171910970,7381928.0,4198881.0,0.0
1586171911019,7376037.0,4192877.0,0.0
1586171911330,7377201.0,4195988.0,0.0
1586171911330,7374481.0,4194744.0,0.0
1586171911330,7370193.0,4189689.0,0.0
1586171911331,7364250.0,4185608.0,0.0
1586171911332,7373317.0,4188038.0,0.0
1586171911333,7384503.0,4198905.0,0.0
1586171911399,7396922.0,4210155.0,0.0
1586171911415,7409550.0,4218319.0,0.0
1586171911488,7431648.0,4228496.0,0.0
1586171911509,7444680.0,4237338.0,0.0
1586171911552,7464366.0,4249640.0,0.0
1586171911601,7483502.0,4260360.0,0.0
1586171911649,7503432.0,4272243.0,0.0
1586171911697,7528334.0,4289101.0,0.0
1586171911742,7548034.0,4302059.0,0.0
1586171911794,7569277.0,4315097.0,0.0
1586171911846,7594370.0,4330101.0,0.0
1586171911891,7616290.0,4346067.0,0.0
1586171911940,7615208.0,4340876.0,0.0
1586171912174,7576706.0,4314079.0,0.0
1586171912174,7558219.0,4299889.0,0.0
1586171912174,7565085.0,4306978.0,0.0
1586171912174,7574231.0,4314745.0,0.0
1586171912213,7580738.0,4319427.0,0.0
1586171912234,7580253.0,4317834.0,0.0
1586171912366,7575979.0,4313807.0,0.0
1586171912366,7584625.0,4320977.0,0.0
1586171912388,7600442.0,4329683.0,0.0
1586171912431,7617035.0,4339464.0,0.0
1586171912473,7635767.0,4353631.0,0.0
1586171912522,7646792.0,4360212.0,0.0
1586171912571,7662836.0,4374097.0,0.0
1586171912618,7680046.0,4381854.0,0.0
1586171912664,7689809.0,4391397.0,0.0
1586171912712,7713250.0,4406265.0,0.0
1586171912763,7734365.0,4417302.0,0.0
1586171912813,7744238.0,4434025.0,0.0
1586171912862,7763505.0,4441025.0,0.0
1586171912911,7746117.0,4419789.0,0.0
1586171912961,7692238.0,4392200.0,0.0
1586171913001,7666626.0,4375749.0,0.0
1586171913057,7665701.0,4372276.0,0.0
1586171913103,7667822.0,4376155.0,0.0
1586171913153,7663063.0,4368692.0,0.0
1586171913196,7648736.0,4362642.0,0.0
1586171913250,7630004.0,4353643.0,0.0
1586171913298,7632174.0,4354864.0,0.0
1586171913343,7640349.0,4358052.0,0.0
1586171913395,7643345.0,4364554.0,0.0
1586171913444,7653899.0,4371134.0,0.0
1586171913492,7661137.0,4377908.0,0.0
1586171913539,7663226.0,4383900.0,0.0
1586171913587,7680631.0,4390718.0,0.0
1586171913640,7685600.0,4396745.0,0.0
1586171913686,7702388.0,4409104.0,0.0
1586171913735,7711389.0,4418998.0,0.0
1586171913782,7725978.0,4427737.0,0.0
1586171913828,7706242.0,4410258.0,0.0
1586171913882,7641920.0,4368160.0,0.0
1586171913924,7602725.0,4349448.0,0.0
1586171913977,7582568.0,4337960.0,0.0
1586171914026,7585565.0,4338275.0,0.0
1586171914071,7570263.0,4333765.0,0.0
1586171914124,7553783.0,4316115.0,0.0
1586171914173,7528480.0,4306468.0,0.0
1586171914222,7523330.0,4303055.0,0.0
1586171914268,7521210.0,4304672.0,0.0
1586171914319,7524058.0,4307260.0,0.0
1586171914364,7528413.0,4313841.0,0.0
1586171914415,7531278.0,4316962.0,0.0
1586171914463,7538533.0,4320083.0,0.0
1586171914512,7541722.0,4325646.0,0.0
1586171914562,7553396.0,4330711.0,0.0
1586171914866,7560549.0,4337722.0,0.0
1586171914867,7575575.0,4347694.0,0.0
1586171914867,7584381.0,4353009.0,0.0
1586171914867,7545218.0,4324266.0,0.0
1586171914868,7481739.0,4283211.0,0.0
1586171914869,7452485.0,4268783.0,0.0
1586171914919,7441201.0,4262044.0,0.0
1586171915001,7429495.0,4253360.0,0.0
1586171915040,7408465.0,4240028.0,0.0
1586171915094,7389230.0,4234817.0,0.0
1586171915137,7388258.0,4228924.0,0.0
1586171915185,7391546.0,4237078.0,0.0
1586171915234,7396663.0,4238071.0,0.0
1586171915285,7402699.0,4240786.0,0.0
1586171915331,7412706.0,4247684.0,0.0
1586171915378,7420462.0,4254502.0,0.0
1586171915427,7424558.0,4261636.0,0.0
1586171915475,7436279.0,4267255.0,0.0
1586171915524,7446493.0,4280202.0,0.0
1586171915573,7423374.0,4259872.0,0.0
1586171915625,7349419.0,4216330.0,0.0
1586171915670,7297582.0,4186670.0,0.0
1586171915718,7285099.0,4179874.0,0.0
1586171915766,7277181.0,4175453.0,0.0
1586171915816,7271758.0,4169020.0,0.0
1586171915864,7255778.0,4159262.0,0.0
1586171915913,7240689.0,4149028.0,0.0
1586171915965,7226539.0,4145196.0,0.0
1586171916009,7231915.0,4147423.0,0.0
1586171916058,7239784.0,4155475.0,0.0
1586171916106,7244785.0,4160245.0,0.0
1586171916155,7257041.0,4165323.0,0.0
1586171916206,7259938.0,4172434.0,0.0
1586171916252,7267970.0,4179242.0,0.0
1586171916300,7274365.0,4184917.0,0.0
1586171916349,7284418.0,4193296.0,0.0
1586171916397,7233908.0,4158799.0,0.0
1586171916445,7184171.0,4125307.0,0.0
1586171916494,7165280.0,4117436.0,0.0
1586171916546,7166362.0,4118206.0,0.0
1586171916592,7167869.0,4119168.0,0.0
1586171916640,7160389.0,4116748.0,0.0
1586171916688,7145704.0,4105835.0,0.0
1586171916737,7137189.0,4103903.0,0.0
1586171916785,7144459.0,4107668.0,0.0
1586171916836,7152471.0,4112688.0,0.0
1586171916887,7157556.0,4121610.0,0.0
1586171916934,7170897.0,4126992.0,0.0
1586171916982,7181192.0,4133402.0,0.0
1586171917030,7191392.0,4139960.0,0.0
1586171917080,7200247.0,4143047.0,0.0
1586171917128,7169309.0,4123101.0,0.0
1586171917178,7118976.0,4090900.0,0.0
1586171917227,7104712.0,4079603.0,0.0
1586171917277,7106446.0,4087767.0,0.0
1586171917325,7119444.0,4093523.0,0.0
1586171917374,7117940.0,4094868.0,0.0
1586171917424,7103173.0,4082791.0,0.0
1586171917468,7098673.0,4084138.0,0.0
1586171917520,7109521.0,4090605.0,0.0
1586171917570,7122536.0,4100057.0,0.0
1586171917618,7132544.0,4105689.0,0.0
1586171917666,7148782.0,4112067.0,0.0
1586171917715,7159435.0,4120161.0,0.0
1586171917760,7165358.0,4126494.0,0.0
1586171917810,7146030.0,4113580.0,0.0
1586171917863,7087860.0,4074402.0,0.0
1586171917914,7051918.0,4053382.0,0.0
1586171917960,7048276.0,4054320.0,0.0
1586171918007,7056369.0,4057114.0,0.0
1586171918051,7045265.0,4053993.0,0.0
1586171918104,7031697.0,4042764.0,0.0
1586171918150,7020023.0,4042142.0,0.0
1586171918198,7022565.0,4039801.0,0.0
1586171918254,7032328.0,4049594.0,0.0
1586171918299,7047790.0,4054105.0,0.0
1586171918346,7056709.0,4063286.0,0.0
1586171918391,7070309.0,4072141.0,0.0
1586171918444,7085009.0,4080552.0,0.0
1586171918491,7082452.0,4084805.0,0.0
1586171918537,7038853.0,4051900.0,0.0
1586171918589,6997794.0,4027658.0,0.0
1586171918640,6986333.0,4022005.0,0.0
1586171918685,6986301.0,4020670.0,0.0
1586171918731,6990737.0,4022424.0,0.0
1586171918779,6986432.0,4023417.0,0.0
1586171918831,6978740.0,4017097.0,0.0
1586171918881,6984034.0,4022672.0,0.0
1586171918928,6995482.0,4032329.0,0.0
1586171918980,7018161.0,4042154.0,0.0
1586171919026,7026970.0,4051833.0,0.0
1586171919075,7050443.0,4066169.0,0.0
1586171919120,7063040.0,4073803.0,0.0
1586171919173,7063234.0,4078291.0,0.0
1586171919221,7028555.0,4052760.0,0.0
1586171919268,6991336.0,4033086.0,0.0
1586171919317,6993035.0,4031977.0,0.0
1586171919365,6998816.0,4036421.0,0.0
1586171919413,7002621.0,4041488.0,0.0
1586171919463,6999755.0,4038716.0,0.0
1586171919514,7000354.0,4039858.0,0.0
1586171919560,7011234.0,4048339.0,0.0
1586171919608,7028587.0,4057510.0,0.0
1586171919659,7051092.0,4073136.0,0.0
1586171919706,7066635.0,4081221.0,0.0
1586171919752,7087261.0,4094529.0,0.0
1586171919803,7106656.0,4106244.0,0.0
1586171919849,7090190.0,4091408.0,0.0
1586171919901,7055060.0,4069654.0,0.0
1586171919945,7046818.0,4063435.0,0.0
1586171919997,7057794.0,4072616.0,0.0
1586171920041,7074795.0,4080361.0,0.0
1586171920094,7078824.0,4082113.0,0.0
1586171920143,7084881.0,4082870.0,0.0
1586171920190,7097120.0,4087168.0,0.0
1586171920240,7107595.0,4099821.0,0.0
1586171920283,7129937.0,4114541.0,0.0
1586171920335,7152375.0,4122491.0,0.0
1586171920381,7170394.0,4137518.0,0.0
1586171920431,7195278.0,4148973.0,0.0
1586171920478,7188689.0,4142098.0,0.0
1586171920527,7155386.0,4122095.0,0.0
1586171920577,7149233.0,4117810.0,0.0
1586171920623,7152584.0,4124594.0,0.0
1586171920672,7171575.0,4134702.0,0.0
1586171920725,7179444.0,4136580.0,0.0
1586171920774,7186373.0,4137823.0,0.0
1586171920818,7195441.0,4142913.0,0.0
1586171920871,7216616.0,4155814.0,0.0
1586171920920,7234976.0,4166284.0,0.0
1586171920970,7252558.0,4176912.0,0.0
1586171921016,7273684.0,4192211.0,0.0
1586171921061,7302178.0,4207034.0,0.0
1586171921115,7321946.0,4218817.0,0.0
1586171921162,7328957.0,4224062.0,0.0
1586171921211,7299054.0,4200397.0,0.0
1586171921261,7279237.0,4191272.0,0.0
1586171921307,7293032.0,4196077.0,0.0
1586171921353,7300770.0,4201595.0,0.0
1586171921406,7312328.0,4203483.0,0.0
1586171921457,7315034.0,4205407.0,0.0
1586171921503,7317835.0,4206921.0,0.0
1586171921551,7333716.0,4219585.0,0.0
1586171921600,7377201.0,4276008.0,0.0
1586171921647,7431906.0,4344529.0,0.0
1586171921697,7466618.0,4372581.0,0.0
1586171921745,7484442.0,4370037.0,0.0
1586171921793,7504485.0,4364757.0,0.0
1586171921841,7519202.0,4364836.0,0.0
1586171921891,7541253.0,4366023.0,0.0
1586171921940,7533821.0,4351731.0,0.0
1586171921983,7501361.0,4321789.0,0.0
1586171922034,7487147.0,4309997.0,0.0
1586171922085,7491031.0,4312043.0,0.0
1586171922134,7495840.0,4312982.0,0.0
1586171922182,7498269.0,4311875.0,0.0
1586171922231,7487211.0,4310393.0,0.0
1586171922280,7491549.0,4309227.0,0.0
1586171922328,7509716.0,4318149.0,0.0
1586171922374,7524075.0,4326483.0,0.0
1586171922425,7533512.0,4336489.0,0.0
1586171922473,7549524.0,4345998.0,0.0
1586171922523,7569114.0,4356549.0,0.0
1586171922569,7588072.0,4366669.0,0.0
1586171922616,7592136.0,4375521.0,0.0
1586171922667,7614123.0,4389215.0,0.0
1586171922717,7626816.0,4400928.0,0.0
1586171922765,7651002.0,4415175.0,0.0
1586171922814,7633905.0,4397118.0,0.0
1586171922863,7599988.0,4369076.0,0.0
1586171922912,7589335.0,4359409.0,0.0
1586171922959,7584026.0,4358404.0,0.0
1586171923004,7586810.0,4360710.0,0.0
1586171923054,7588948.0,4357250.0,0.0
1586171923105,7581954.0,4354909.0,0.0
1586171923154,7587441.0,4356118.0,0.0
1586171923203,7601154.0,4364328.0,0.0
1586171923251,7609541.0,4370728.0,0.0
1586171923299,7625149.0,4376811.0,0.0
1586171923348,7635752.0,4390345.0,0.0
1586171923396,7660861.0,4396678.0,0.0
1586171923446,7671790.0,4406932.0,0.0
1586171923494,7682880.0,4419258.0,0.0
1586171923544,7700445.0,4427036.0,0.0
1586171923592,7716683.0,4440695.0,0.0
1586171923637,7737521.0,4452851.0,0.0
1586171923687,7760349.0,4467663.0,0.0
1586171923738,7762242.0,4468703.0,0.0
1586171923785,7733358.0,4441317.0,0.0
1586171923827,7713154.0,4427524.0,0.0
1586171923883,7711714.0,4428348.0,0.0
1586171923926,7713413.0,4425262.0,0.0
1586171923979,7715048.0,4426211.0,0.0
1586171924027,7709026.0,4424289.0,0.0
1586171924077,7707342.0,4420026.0,0.0
1586171924125,7711406.0,4421000.0,0.0
1586171924173,7722222.0,4428145.0,0.0
1586171924219,7732404.0,4437089.0,0.0
1586171924271,7746522.0,4444925.0,0.0
1586171924316,7766647.0,4454276.0,0.0
1586171924367,7770158.0,4463863.0,0.0
1586171924417,7788453.0,4473486.0,0.0
1586171924465,7801454.0,4483685.0,0.0
1586171924514,7814196.0,4494258.0,0.0
1586171924562,7838382.0,4504354.0,0.0
1586171924610,7853259.0,4520252.0,0.0
1586171924659,7869288.0,4528778.0,0.0
1586171924707,7889056.0,4540560.0,0.0
1586171924757,7868381.0,4525600.0,0.0
1586171924800,7837946.0,4502172.0,0.0
1586171924853,7838074.0,4499323.0,0.0
1586171924899,7839889.0,4503428.0,0.0
1586171924949,7845812.0,4507836.0,0.0
1586171925003,7847010.0,4506640.0,0.0
1586171925043,7845538.0,4504490.0,0.0
1586171925097,7849326.0,4504897.0,0.0
1586171925145,7858845.0,4509895.0,0.0
1586171925193,7864189.0,4518511.0,0.0
1586171925239,7879764.0,4526856.0,0.0
1586171925289,7893329.0,4533154.0,0.0
1586171925338,7902914.0,4541419.0,0.0
1586171925387,7916692.0,4550590.0,0.0
1586171925436,7927845.0,4562214.0,0.0
1586171925481,7945122.0,4570343.0,0.0
1586171925532,7956404.0,4582306.0,0.0
1586171925583,7978746.0,4593556.0,0.0
1586171925630,7992930.0,4605826.0,0.0
1586171925682,7994792.0,4605033.0,0.0
1586171925727,7955709.0,4578541.0,0.0
1586171925772,7926650.0,4555316.0,0.0
1586171925820,7917146.0,4549436.0,0.0
1586171925873,7921242.0,4552025.0,0.0
1586171925923,7917227.0,4550521.0,0.0
1586171925970,7909294.0,4542008.0,0.0
1586171926019,7893201.0,4533290.0,0.0
1586171926066,7885722.0,4528958.0,0.0
1586171926116,7886336.0,4531447.0,0.0
1586171926159,7887421.0,4534182.0,0.0
1586171926212,7898251.0,4542177.0,0.0
1586171926263,7907074.0,4548679.0,0.0
1586171926309,7909748.0,4550217.0,0.0
1586171926358,7919136.0,4555225.0,0.0
1586171926406,7925547.0,4558561.0,0.0
1586171926456,7930583.0,4567267.0,0.0
1586171926498,7947243.0,4575579.0,0.0
1586171926553,7957748.0,4582509.0,0.0
1586171926604,7974312.0,4592956.0,0.0
1586171926649,7970798.0,4590390.0,0.0
1586171926695,7930065.0,4556176.0,0.0
1586171926747,7892666.0,4532859.0,0.0
1586171926791,7878225.0,4522187.0,0.0
1586171926842,7867168.0,4514362.0,0.0
1586171926892,7863525.0,4511557.0,0.0
1586171926939,7850443.0,4498135.0,0.0
1586171926990,7829722.0,4486999.0,0.0
1586171927040,7823537.0,4480406.0,0.0
1586171927085,7827275.0,4477545.0,0.0
1586171927334,7830530.0,4478845.0,0.0
1586171927335,7836212.0,4481345.0,0.0
1586171927335,7841120.0,4486739.0,0.0
1586171927336,7837800.0,4484646.0,0.0
1586171927336,7841992.0,4490741.0,0.0
1586171927410,7852404.0,4492493.0,0.0
1586171927512,7862522.0,4501461.0,0.0
1586171927512,7871991.0,4502479.0,0.0
1586171927535,7881981.0,4509996.0,0.0
1586171927570,7892666.0,4516272.0,0.0
1586171927623,7885899.0,4502534.0,0.0
1586171927669,7830562.0,4463219.0,0.0
1586171927719,7799348.0,4437495.0,0.0
1586171927766,7794135.0,4433064.0,0.0
1586171927815,7789634.0,4431435.0,0.0
1586171927859,7788890.0,4428676.0,0.0
1586171927908,7770821.0,4413106.0,0.0
1586171927961,7756526.0,4398000.0,0.0
1586171928260,7751572.0,4393646.0,0.0
1586171928262,7761998.0,4400046.0,0.0
1586171928262,7769591.0,4402003.0,0.0
1586171928263,7771988.0,4404457.0,0.0
1586171928263,7789521.0,4407476.0,0.0
1586171928263,7782641.0,4410642.0,0.0
1586171928308,7790752.0,4415561.0,0.0
1586171928409,7798039.0,4421044.0,0.0
1586171928409,7810437.0,4432554.0,0.0
1586171928446,7822501.0,4439724.0,0.0
1586171928495,7795997.0,4416522.0,0.0
1586171928543,7747816.0,4382362.0,0.0
1586171928592,7726432.0,4363910.0,0.0
1586171928641,7721201.0,4360799.0,0.0
1586171928689,7718757.0,4362292.0,0.0
1586171928737,7712573.0,4356650.0,0.0
1586171928782,7697288.0,4343749.0,0.0
1586171928831,7687866.0,4334466.0,0.0
1586171928887,7682734.0,4332204.0,0.0
1586171928932,7689696.0,4337869.0,0.0
1586171928981,7693809.0,4341985.0,0.0
1586171929029,7702146.0,4346711.0,0.0
1586171929078,7709754.0,4352952.0,0.0
1586171929121,7712247.0,4360088.0,0.0
1586171929175,7723531.0,4364474.0,0.0
1586171929227,7729620.0,4374753.0,0.0
1586171929271,7740514.0,4380474.0,0.0
1586171929321,7704072.0,4355226.0,0.0
1586171929368,7655130.0,4321710.0,0.0
1586171929419,7634830.0,4305531.0,0.0
1586171929460,7622170.0,4300873.0,0.0
1586171929515,7621684.0,4300194.0,0.0
1586171929565,7611694.0,4294914.0,0.0
1586171929612,7594338.0,4284556.0,0.0
1586171929661,7577792.0,4278574.0,0.0
1586171929709,7578976.0,4278834.0,0.0
1586171929755,7581646.0,4285019.0,0.0
1586171929802,7584640.0,4290763.0,0.0
1586171929855,7589675.0,4295218.0,0.0
1586171929903,7600101.0,4300261.0,0.0
1586171929951,7610318.0,4308742.0,0.0
1586171930000,7619109.0,4315198.0,0.0
1586171930043,7626862.0,4322820.0,0.0
1586171930272,7626280.0,4322310.0,0.0
1586171930272,7582600.0,4292392.0,0.0
1586171930272,7542466.0,4266183.0,0.0
1586171930272,7529675.0,4255622.0,0.0
1586171930355,7512288.0,4251245.0,0.0
1586171930593,7471345.0,4233957.0,0.0
1586171930593,7479700.0,4241182.0,0.0
1586171930593,7479909.0,4246507.0,0.0
1586171930638,7491098.0,4251257.0,0.0
1586171930711,7491874.0,4256853.0,0.0
1586171930735,7497506.0,4263027.0,0.0
1586171930778,7505861.0,4269155.0,0.0
1586171930828,7510379.0,4277388.0,0.0
1586171930870,7525079.0,4287880.0,0.0
1586171930923,7503982.0,4278349.0,0.0
1586171930973,7455851.0,4249380.0,0.0
1586171931020,7446624.0,4237157.0,0.0
1586171931069,7439662.0,4240278.0,0.0
1586171931118,7445783.0,4244167.0,0.0
1586171931167,7438414.0,4245625.0,0.0
1586171931214,7424962.0,4236444.0,0.0
1586171931262,7421093.0,4236885.0,0.0
1586171931311,7423973.0,4244211.0,0.0
1586171931360,7434984.0,4253811.0,0.0
1586171931402,7444584.0,4261524.0,0.0
1586171931458,7455170.0,4271609.0,0.0
1586171931507,7470050.0,4280236.0,0.0
1586171931554,7477189.0,4288660.0,0.0
1586171931601,7491970.0,4296880.0,0.0
1586171931652,7488442.0,4297445.0,0.0
1586171931700,7444258.0,4270659.0,0.0
1586171931746,7409451.0,4251493.0,0.0
1586171931796,7400904.0,4249447.0,0.0
1586171931845,7406408.0,4256333.0,0.0
1586171931894,7412075.0,4258188.0,0.0
1586171931943,7401518.0,4253947.0,0.0
1586171931991,7392145.0,4250658.0,0.0
1586171932039,7394056.0,4248769.0,0.0
1586171932083,7397713.0,4257271.0,0.0
1586171932137,7411525.0,4264147.0,0.0
1586171932185,7417352.0,4270738.0,0.0
1586171932234,7429041.0,4284048.0,0.0
1586171932282,7442432.0,4290842.0,0.0
1586171932330,7454021.0,4300883.0,0.0
1586171932379,7469483.0,4313965.0,0.0
1586171932429,7441960.0,4296259.0,0.0
1586171932477,7393425.0,4266430.0,0.0
1586171932524,7365108.0,4254468.0,0.0
1586171932574,7364104.0,4255711.0,0.0
1586171932622,7358746.0,4253179.0,0.0
1586171932669,7352802.0,4253224.0,0.0
1586171932720,7368573.0,4255622.0,0.0
1586171932772,7398266.0,4265425.0,0.0
1586171932811,7439240.0,4289452.0,0.0
1586171932864,7471249.0,4304038.0,0.0
1586171932913,7500180.0,4322537.0,0.0
1586171932957,7522181.0,4339712.0,0.0
1586171933005,7537885.0,4354218.0,0.0
1586171933055,7558155.0,4368489.0,0.0
1586171933106,7567770.0,4380383.0,0.0
1586171933157,7586437.0,4395580.0,0.0
1586171933201,7569408.0,4391509.0,0.0
1586171933249,7522973.0,4366758.0,0.0
1586171933302,7490676.0,4348328.0,0.0
1586171933347,7522909.0,4363241.0,0.0
1586171933400,7557085.0,4376189.0,0.0
1586171933449,7584866.0,4388784.0,0.0
1586171933498,7611726.0,4395694.0,0.0
1586171933545,7620776.0,4398701.0,0.0
1586171933593,7633972.0,4405418.0,0.0
1586171933642,7645044.0,4413433.0,0.0
1586171933687,7656427.0,4419913.0,0.0
1586171933740,7657882.0,4428450.0,0.0
1586171933786,7666173.0,4437428.0,0.0
1586171933832,7678152.0,4443987.0,0.0
1586171933884,7681489.0,4454263.0,0.0
1586171933934,7680224.0,4460178.0,0.0
1586171933978,7691735.0,4470444.0,0.0
1586171934029,7684660.0,4473746.0,0.0
1586171934079,7629178.0,4438446.0,0.0
1586171934127,7594080.0,4418998.0,0.0
1586171934177,7579444.0,4412993.0,0.0
1586171934224,7573242.0,4418092.0,0.0
1586171934267,7569486.0,4414587.0,0.0
1586171934323,7558138.0,4406887.0,0.0
1586171934371,7541108.0,4400115.0,0.0
1586171934418,7541608.0,4400002.0,0.0
1586171934464,7551566.0,4402297.0,0.0
1586171934516,7559659.0,4410699.0,0.0
1586171934564,7565521.0,4415640.0,0.0
1586171934613,7576334.0,4420660.0,0.0
1586171934659,7579330.0,4425929.0,0.0
1586171934710,7583749.0,4433911.0,0.0
1586171934759,7601722.0,4440740.0,0.0
1586171934806,7607761.0,4449426.0,0.0
1586171934855,7589966.0,4433877.0,0.0
1586171934903,7541253.0,4398543.0,0.0
1586171934947,7518036.0,4386139.0,0.0
1586171935003,7513373.0,4382431.0,0.0
1586171935048,7516823.0,4380621.0,0.0
1586171935099,7510330.0,4376551.0,0.0
1586171935146,7497541.0,4370818.0,0.0
1586171935195,7493477.0,4363117.0,0.0
1586171935243,7503918.0,4368341.0,0.0
1586171935287,7505035.0,4371043.0,0.0
1586171935336,7513291.0,4377602.0,0.0
1586171935563,7524026.0,4384284.0,0.0
1586171935563,7537480.0,4389067.0,0.0
1586171935568,7545722.0,4397220.0,0.0
1586171935568,7563450.0,4407633.0,0.0
1586171935623,7577582.0,4417901.0,0.0
1586171935743,7587232.0,4425872.0,0.0
1586171935743,7608797.0,4439293.0,0.0
1586171935743,7620145.0,4448260.0,0.0
1586171935787,7579380.0,4420219.0,0.0
1586171935829,7536622.0,4389564.0,0.0
1586171935871,7520093.0,4383425.0,0.0
1586171935923,7512773.0,4377986.0,0.0
1586171936236,7508986.0,4374278.0,0.0
1586171936236,7504162.0,4368940.0,0.0
1586171936236,7492247.0,4361014.0,0.0
1586171936236,7485512.0,4357792.0,0.0
1586171936236,7487616.0,4359964.0,0.0
1586171936236,7502429.0,4369280.0,0.0
1586171936301,7511319.0,4376789.0,0.0
1586171936315,7520805.0,4382860.0,0.0
1586171936383,7534048.0,4392628.0,0.0
1586171936407,7545882.0,4397446.0,0.0
1586171936458,7556276.0,4411568.0,0.0
1586171936504,7576628.0,4422412.0,0.0
1586171936551,7591554.0,4431945.0,0.0
1586171936603,7603534.0,4444574.0,0.0
1586171936656,7621376.0,4459420.0,0.0
1586171936700,7644413.0,4471293.0,0.0
1586171936747,7663176.0,4484081.0,0.0
1586171936798,7634749.0,4462959.0,0.0
1586171936845,7587490.0,4437270.0,0.0
1586171936891,7570135.0,4424301.0,0.0
1586171936943,7568645.0,4422434.0,0.0
1586171936996,7566897.0,4421948.0,0.0
1586171937037,7560258.0,4419563.0,0.0
1586171937088,7548974.0,4413693.0,0.0
1586171937137,7543488.0,4411377.0,0.0
1586171937186,7548974.0,4408844.0,0.0
1586171937231,7557166.0,4420569.0,0.0
1586171937282,7565358.0,4423442.0,0.0
1586171937330,7576011.0,4438672.0,0.0
1586171937380,7586228.0,4439938.0,0.0
1586171937422,7601495.0,4451041.0,0.0
1586171937478,7607275.0,4460720.0,0.0
1586171937525,7630213.0,4482068.0,0.0
1586171937571,7654094.0,4493206.0,0.0
1586171937623,7692174.0,4504220.0,0.0
1586171937671,7714417.0,4511150.0,0.0
1586171937720,7754277.0,4539123.0,0.0
1586171937768,7784308.0,4559827.0,0.0
1586171937813,7767019.0,4542640.0,0.0
1586171937865,7767165.0,4530620.0,0.0
1586171937915,7794330.0,4529038.0,0.0
1586171937962,7825739.0,4536421.0,0.0
1586171938012,7849390.0,4546824.0,0.0
1586171938055,7862213.0,4551165.0,0.0
1586171938106,7860043.0,4554875.0,0.0
1586171938157,7874711.0,4565040.0,0.0
1586171938204,7885218.0,4578405.0,0.0
1586171938257,7896666.0,4592030.0,0.0
1586171938298,7908064.0,4607079.0,0.0
1586171938347,7927927.0,4622978.0,0.0
1586171938399,7936331.0,4633878.0,0.0
1586171938446,7954318.0,4647570.0,0.0
1586171938493,7964954.0,4656288.0,0.0
1586171938544,7980107.0,4666465.0,0.0
1586171938593,7987909.0,4674482.0,0.0
1586171938642,8000829.0,4685043.0,0.0
1586171938689,7986001.0,4675634.0,0.0
1586171938740,7929402.0,4645660.0,0.0
1586171938782,7895744.0,4625974.0,0.0
1586171938833,7884896.0,4625895.0,0.0
1586171938884,7866245.0,4623577.0,0.0
1586171938932,7855106.0,4619257.0,0.0
1586171938982,7818970.0,4608221.0,0.0
1586171939030,7780311.0,4594618.0,0.0
1586171939081,7753806.0,4590254.0,0.0
1586171939126,7733975.0,4591792.0,0.0
1586171939176,7718091.0,4591126.0,0.0
1586171939224,7712459.0,4593714.0,0.0
1586171939271,7699959.0,4593296.0,0.0
1586171939322,7687819.0,4594257.0,0.0
1586171939368,7681195.0,4593454.0,0.0
1586171939418,7676128.0,4599131.0,0.0
1586171939466,7672485.0,4598599.0,0.0
1586171939517,7676354.0,4605157.0,0.0
1586171939563,7648136.0,4590695.0,0.0
1586171939611,7586664.0,4553246.0,0.0
1586171939660,7548928.0,4531390.0,0.0
1586171939709,7531360.0,4521169.0,0.0
1586171939756,7525579.0,4514125.0,0.0
1586171939805,7518845.0,4509511.0,0.0
1586171939859,7496488.0,4493149.0,0.0
1586171939904,7477271.0,4479581.0,0.0
1586171939951,7466263.0,4476913.0,0.0
1586171939997,7468203.0,4475363.0,0.0
1586171940043,7476721.0,4475794.0,0.0
1586171940095,7480622.0,4478858.0,0.0
1586171940143,7489413.0,4478744.0,0.0
1586171940194,7497914.0,4482622.0,0.0
1586171940243,7504177.0,4489520.0,0.0
1586171940289,7516741.0,4493669.0,0.0
1586171940336,7513812.0,4495049.0,0.0
1586171940383,7482757.0,4468772.0,0.0
1586171940435,7440762.0,4444529.0,0.0
1586171940485,7430190.0,4429173.0,0.0
1586171940535,7431275.0,4433562.0,0.0
1586171940584,7439127.0,4433131.0,0.0
1586171940631,7431680.0,4427454.0,0.0
1586171940676,7426030.0,4420049.0,0.0
1586171940726,7418178.0,4411264.0,0.0
1586171940778,7422970.0,4413072.0,0.0
1586171940825,7434626.0,4415152.0,0.0
1586171940869,7435598.0,4425488.0,0.0
1586171940921,7447610.0,4430350.0,0.0
1586171940970,7456433.0,4437178.0,0.0
1586171941015,7464107.0,4443454.0,0.0
1586171941063,7476526.0,4445728.0,0.0
1586171941117,7449570.0,4429218.0,0.0
1586171941164,7398865.0,4392663.0,0.0
1586171941209,7373463.0,4373250.0,0.0
1586171941264,7362583.0,4364338.0,0.0
1586171941309,7377413.0,4370082.0,0.0
1586171941360,7404773.0,4389904.0,0.0
1586171941408,7401681.0,4396529.0,0.0
1586171941455,7402621.0,4406357.0,0.0
1586171941505,7428005.0,4421349.0,0.0
1586171941553,7447755.0,4435009.0,0.0
1586171941597,7474760.0,4456051.0,0.0
1586171941649,7490432.0,4469506.0,0.0
1586171941698,7510039.0,4481255.0,0.0
1586171941747,7512436.0,4489191.0,0.0
1586171941797,7523040.0,4493637.0,0.0
1586171941843,7505035.0,4486127.0,0.0
1586171941894,7446446.0,4449188.0,0.0
1586171941941,7396258.0,4421495.0,0.0
1586171941985,7385896.0,4414498.0,0.0
1586171942038,7378740.0,4413151.0,0.0
1586171942086,7370176.0,4406775.0,0.0
1586171942135,7349274.0,4395853.0,0.0
1586171942183,7318935.0,4380700.0,0.0
1586171942233,7301643.0,4371078.0,0.0
1586171942278,7292369.0,4359828.0,0.0
1586171942328,7283770.0,4353428.0,0.0
1586171942377,7276209.0,4347977.0,0.0
1586171942426,7272066.0,4341725.0,0.0
1586171942475,7270528.0,4339080.0,0.0
1586171942518,7274624.0,4340016.0,0.0
1586171942572,7273556.0,4337405.0,0.0
1586171942619,7243540.0,4316940.0,0.0
1586171942854,7193189.0,4280836.0,0.0
1586171942854,7166202.0,4263637.0,0.0
1586171942854,7163418.0,4257712.0,0.0
1586171942861,7159886.0,4254140.0,0.0
1586171942923,7146693.0,4245321.0,0.0
1586171942923,7132834.0,4230034.0,0.0
1586171943056,7120887.0,4221553.0,0.0
1586171943058,7121469.0,4216250.0,0.0
1586171943087,7135083.0,4220151.0,0.0
1586171943128,7135976.0,4217843.0,0.0
1586171943157,7145899.0,4223498.0,0.0
1586171943199,7156616.0,4226054.0,0.0
1586171943253,7175525.0,4236422.0,0.0
1586171943299,7193498.0,4243297.0,0.0
1586171943349,7174490.0,4228813.0,0.0
1586171943399,7131522.0,4204773.0,0.0
1586171943444,7114362.0,4189362.0,0.0
1586171943769,7120773.0,4187552.0,0.0
1586171943769,7124916.0,4195547.0,0.0
1586171943770,7126405.0,4191827.0,0.0
1586171943770,7111883.0,4185811.0,0.0
1586171943770,7118344.0,4185449.0,0.0
1586171943771,7123281.0,4191646.0,0.0
1586171943820,7142693.0,4201675.0,0.0
1586171943836,7161376.0,4211262.0,0.0
1586171943910,7172273.0,4221167.0,0.0
1586171943933,7189643.0,4231107.0,0.0
1586171943984,7202740.0,4242165.0,0.0
1586171944030,7222315.0,4253675.0,0.0
1586171944079,7203648.0,4244224.0,0.0
1586171944124,7156162.0,4220038.0,0.0
1586171944176,7137853.0,4207250.0,0.0
1586171944219,7131586.0,4207916.0,0.0
1586171944272,7136962.0,4207047.0,0.0
1586171944323,7131101.0,4206774.0,0.0
1586171944369,7117972.0,4199651.0,0.0
1586171944419,7116919.0,4193657.0,0.0
1586171944468,7117358.0,4197615.0,0.0
1586171944516,7128788.0,4204682.0,0.0
1586171944560,7138711.0,4210901.0,0.0
1586171944613,7154513.0,4219054.0,0.0
1586171944662,7161149.0,4231287.0,0.0
1586171944705,7180026.0,4242572.0,0.0
1586171944759,7194955.0,4250544.0,0.0
1586171944804,7203746.0,4252003.0,0.0
1586171944856,7157765.0,4231899.0,0.0
1586171944898,7127831.0,4212461.0,0.0
1586171944952,7121387.0,4207567.0,0.0
1586171945012,7119997.0,4206594.0,0.0
1586171945043,7125015.0,4215401.0,0.0
1586171945095,7123947.0,4213875.0,0.0
1586171945146,7120448.0,4215005.0,0.0
1586171945196,7122472.0,4217335.0,0.0
1586171945242,7139586.0,4228994.0,0.0
1586171945292,7158769.0,4237858.0,0.0
1586171945344,7170021.0,4246688.0,0.0
1586171945389,7187054.0,4258799.0,0.0
1586171945439,7202449.0,4268917.0,0.0
1586171945487,7223950.0,4282022.0,0.0
1586171945535,7242877.0,4293703.0,0.0
1586171945583,7236189.0,4292177.0,0.0
1586171945632,7200168.0,4274356.0,0.0
1586171945682,7191895.0,4265073.0,0.0
1586171945724,7193253.0,4266453.0,0.0
1586171945779,7199601.0,4277207.0,0.0
1586171945821,7202530.0,4275793.0,0.0
1586171945875,7197480.0,4273046.0,0.0
1586171945923,7193253.0,4269754.0,0.0
1586171945971,7207339.0,4281165.0,0.0
1586171946021,7233373.0,4292425.0,0.0
1586171946063,7254580.0,4303166.0,0.0
1586171946118,7266949.0,4312836.0,0.0
1586171946160,7286344.0,4324335.0,0.0
1586171946214,7295912.0,4335223.0,0.0
1586171946267,7313771.0,4348667.0,0.0
1586171946311,7326673.0,4354344.0,0.0
1586171946361,7296058.0,4340380.0,0.0
1586171946403,7269765.0,4323996.0,0.0
1586171946457,7260197.0,4322379.0,0.0
1586171946503,7269847.0,4323679.0,0.0
1586171946554,7275773.0,4325747.0,0.0
1586171946606,7273248.0,4326007.0,0.0
1586171946651,7276762.0,4327716.0,0.0
1586171946700,7280453.0,4331231.0,0.0
1586171946747,7290295.0,4337529.0,0.0
1586171946791,7306728.0,4345445.0,0.0
1586171946841,7322545.0,4357284.0,0.0
1586171946894,7331028.0,4364090.0,0.0
1586171946942,7353370.0,4377421.0,0.0
1586171946991,7369722.0,4389237.0,0.0
1586171947039,7388517.0,4400284.0,0.0
1586171947086,7389312.0,4406649.0,0.0
1586171947137,7362033.0,4385755.0,0.0
1586171947185,7336453.0,4375048.0,0.0
1586171947233,7334929.0,4374855.0,0.0
1586171947277,7341762.0,4376608.0,0.0
1586171947330,7338184.0,4378540.0,0.0
1586171947378,7339933.0,4377443.0,0.0
1586171947421,7341844.0,4380745.0,0.0
1586171947476,7347008.0,4384873.0,0.0
1586171947527,7362001.0,4391680.0,0.0
1586171947570,7371569.0,4403021.0,0.0
1586171947621,7389021.0,4409896.0,0.0
1586171947664,7403072.0,4417470.0,0.0
1586171947717,7417920.0,4429502.0,0.0
1586171947764,7434885.0,4439712.0,0.0
1586171947815,7454152.0,4449176.0,0.0
1586171947869,7469029.0,4460822.0,0.0
1586171947908,7472576.0,4461116.0,0.0
1586171947962,7443563.0,4436953.0,0.0
1586171948003,7420590.0,4427930.0,0.0
1586171948054,7421757.0,4427692.0,0.0
1586171948106,7427197.0,4427489.0,0.0
1586171948155,7427682.0,4426823.0,0.0
1586171948204,7423569.0,4427828.0,0.0
1586171948248,7421480.0,4423690.0,0.0
1586171948301,7424782.0,4425872.0,0.0
1586171948347,7438042.0,4435789.0,0.0
1586171948398,7449652.0,4442459.0,0.0
1586171948446,7461405.0,4448272.0,0.0
1586171948491,7476462.0,4455801.0,0.0
1586171948544,7487389.0,4464485.0,0.0
1586171948785,7505911.0,4476787.0,0.0
1586171948785,7531537.0,4487224.0,0.0
1586171948785,7548456.0,4497672.0,0.0
1586171948787,7535650.0,4490526.0,0.0
1586171948788,7510816.0,4478214.0,0.0
1586171948844,7511656.0,4473441.0,0.0
1586171949088,7535083.0,4488547.0,0.0
1586171949090,7530615.0,4483120.0,0.0
1586171949090,7534888.0,4485890.0,0.0
1586171949143,7543601.0,4494258.0,0.0
1586171949214,7560503.0,4498655.0,0.0
1586171949228,7572142.0,4507024.0,0.0
1586171949272,7589661.0,4517256.0,0.0
1586171949320,7598516.0,4524346.0,0.0
1586171949367,7612762.0,4533449.0,0.0
1586171949414,7629096.0,4542472.0,0.0
1586171949470,7644834.0,4552307.0,0.0
1586171949515,7638487.0,4543455.0,0.0
1586171949563,7597658.0,4524198.0,0.0
1586171949810,7581565.0,4514813.0,0.0
1586171949810,7580107.0,4512733.0,0.0
1586171949810,7580561.0,4513186.0,0.0
1586171949810,7575575.0,4506729.0,0.0
1586171949810,7565149.0,4502343.0,0.0
1586171949858,7561457.0,4499809.0,0.0
1586171949981,7564971.0,4503031.0,0.0
1586171949981,7567479.0,4510268.0,0.0
1586171950015,7578699.0,4510472.0,0.0
1586171950054,7586405.0,4519190.0,0.0
1586171950096,7593172.0,4525635.0,0.0
1586171950144,7605623.0,4530383.0,0.0
1586171950194,7615790.0,4537010.0,0.0
1586171950243,7633274.0,4545783.0,0.0
1586171950289,7647019.0,4555916.0,0.0
1586171950336,7619141.0,4539294.0,0.0
1586171950385,7581597.0,4515663.0,0.0
1586171950437,7570490.0,4510982.0,0.0
1586171950484,7570539.0,4513739.0,0.0
1586171950534,7569373.0,4509025.0,0.0
1586171950577,7563028.0,4505587.0,0.0
1586171950625,7559822.0,4503596.0,0.0
1586171950680,7560680.0,4501392.0,0.0
1586171950729,7560631.0,4502070.0,0.0
1586171950777,7569940.0,4509736.0,0.0
1586171950824,7580480.0,4515368.0,0.0
1586171950873,7593803.0,4521179.0,0.0
1586171950922,7602368.0,4527806.0,0.0
1586171950966,7613669.0,4532520.0,0.0
1586171951020,7626458.0,4541171.0,0.0
1586171951066,7636544.0,4547413.0,0.0
1586171951112,7656992.0,4559918.0,0.0
1586171951164,7652800.0,4559693.0,0.0
1586171951213,7625067.0,4538717.0,0.0
1586171951262,7599956.0,4521020.0,0.0
1586171951307,7587685.0,4514135.0,0.0
1586171951359,7593949.0,4520919.0,0.0
1586171951406,7596314.0,4515222.0,0.0
1586171951456,7590356.0,4509941.0,0.0
1586171951504,7586827.0,4505102.0,0.0
1586171951552,7592768.0,4506197.0,0.0
1586171951687,7597966.0,4510516.0,0.0
1586171951687,7606903.0,4515787.0,0.0
1586171951925,7616989.0,4523960.0,0.0
1586171951925,7636285.0,4527681.0,0.0
1586171951925,7654871.0,4544540.0,0.0
1586171951941,7693111.0,4558742.0,0.0
1586171952017,7704331.0,4566804.0,0.0
1586171952039,7691915.0,4557498.0,0.0
1586171952086,7676468.0,4536003.0,0.0
1586171952130,7661605.0,4530281.0,0.0
1586171952180,7672730.0,4533912.0,0.0
1586171952227,7687639.0,4536297.0,0.0
1586171952282,7685373.0,4537201.0,0.0
1586171952333,7680564.0,4530881.0,0.0
1586171952374,7680727.0,4529095.0,0.0
1586171952420,7690944.0,4534363.0,0.0
1586171952475,7704494.0,4536704.0,0.0
1586171952524,7713445.0,4542516.0,0.0
1586171952568,7732808.0,4552126.0,0.0
1586171952620,7738670.0,4558720.0,0.0
1586171952667,7750341.0,4567641.0,0.0
1586171952718,7789797.0,4588751.0,0.0
1586171952765,7813402.0,4604399.0,0.0
1586171952815,7833800.0,4609239.0,0.0
1586171952859,7832878.0,4598871.0,0.0
1586171952913,7814973.0,4573442.0,0.0
1586171952961,7790574.0,4556899.0,0.0
1586171953010,7800160.0,4602296.0,0.0
1586171953053,7868381.0,4750250.0,0.0
1586171953102,7942775.0,4831063.0,0.0
1586171953153,8102728.0,4916295.0,0.0
1586171953203,8193748.0,4966816.0,0.0
1586171953252,8256741.0,4986026.0,0.0
1586171953300,8301847.0,5006797.0,0.0
1586171953347,8314635.0,4998814.0,0.0
1586171953398,8339810.0,4995909.0,0.0
1586171953445,8340328.0,4993749.0,0.0
1586171953490,8316805.0,4961761.0,0.0
1586171953543,8248436.0,4926878.0,0.0
1586171953594,8193454.0,4878021.0,0.0
1586171953641,8142167.0,4842414.0,0.0
1586171953687,8084610.0,4797051.0,0.0
1586171953740,8003098.0,4739350.0,0.0
1586171953785,7944343.0,4700759.0,0.0
1586171953830,7889428.0,4668533.0,0.0
1586171953883,7826807.0,4635924.0,0.0
1586171953935,7766516.0,4591985.0,0.0
1586171953976,7690004.0,4550058.0,0.0
1586171954030,7656442.0,4523611.0,0.0
1586171954079,7635040.0,4514283.0,0.0
1586171954126,7604296.0,4505067.0,0.0
1586171954170,7586647.0,4492698.0,0.0
1586171954223,7557120.0,4487056.0,0.0
1586171954275,7521274.0,4482407.0,0.0
1586171954320,7498478.0,4477444.0,0.0
1586171954368,7467735.0,4463841.0,0.0
1586171954415,7420913.0,4443115.0,0.0
1586171954466,7358810.0,4420039.0,0.0
1586171954516,7326400.0,4408933.0,0.0
1586171954564,7323112.0,4407838.0,0.0
1586171954613,7298423.0,4405371.0,0.0
1586171954660,7259421.0,4391340.0,0.0
1586171954708,7224468.0,4373542.0,0.0
1586171954759,7198629.0,4362733.0,0.0
1586171954805,7173277.0,4354694.0,0.0
1586171954849,7159773.0,4343296.0,0.0
1586171954903,7140913.0,4339622.0,0.0
1586171954951,7132462.0,4339712.0,0.0
1586171955001,7107837.0,4328744.0,0.0
1586171955049,7053794.0,4290708.0,0.0
1586171955095,6996840.0,4253811.0,0.0
1586171955146,6958923.0,4227579.0,0.0
1586171955193,6940677.0,4217222.0,0.0
1586171955242,6933329.0,4216419.0,0.0
1586171955291,6917527.0,4205281.0,0.0
1586171955341,6895412.0,4190244.0,0.0
1586171955388,6871418.0,4172966.0,0.0
1586171955436,6861381.0,4161897.0,0.0
1586171955485,6866464.0,4166442.0,0.0
1586171955533,6862481.0,4162700.0,0.0
1586171955579,6865946.0,4163061.0,0.0
1586171955628,6846309.0,4151505.0,0.0
1586171955681,6811499.0,4126088.0,0.0
1586171955728,6772887.0,4104139.0,0.0
1586171955775,6740509.0,4085471.0,0.0
