time,value
1577030657298,5973022.0
1577030657347,6009574.0
1577030657395,6035862.0
1577030657445,6012089.0
1577030657493,5985774.0
1577030657540,5963299.0
1577030657587,5943953.0
1577030657635,5910851.0
1577030657689,5880987.0
1577030657731,5842662.0
1577030657785,5831193.0
1577030657832,5808931.0
1577030657885,5798761.0
1577030657929,5789053.0
1577030657979,5768242.0
1577030658026,5796567.0
1577030658077,5791289.0
1577030658127,5806330.0
1577030658179,5811764.0
1577030658223,5800673.0
1577030658270,5775505.0
1577030658325,5720304.0
1577030658374,5704970.0
1577030658418,5693138.0
1577030658470,5684394.0
1577030658519,5669421.0
1577030658563,5651975.0
1577030658618,5638553.0
1577030658668,5631121.0
1577030658715,5625268.0
1577030658760,5619235.0
1577030658813,5615031.0
1577030658863,5613256.0
1577030658906,5605534.0
1577030658958,5610059.0
1577030659008,5620060.0
1577030659053,5632100.0
1577030659111,5613005.0
1577030659148,5590000.0
1577030659200,5582599.0
1577030659260,5580614.0
1577030659297,5579582.0
1577030659347,5577459.0
1577030659399,5579708.0
1577030659451,5580378.0
1577030659498,5589526.0
1577030659551,5605993.0
1577030659592,5614893.0
1577030659643,5628566.0
1577030659689,5642757.0
1577030659738,5653903.0
1577030659785,5658764.0
1577030659841,5668570.0
1577030659885,5677663.0
1577030659933,5687356.0
1577030659987,5672563.0
1577030660030,5648624.0
1577030660084,5640367.0
1577030660128,5636891.0
1577030660178,5638384.0
1577030660225,5632742.0
1577030660275,5630898.0
1577030660325,5628328.0
1577030660371,5638400.0
1577030660427,5638259.0
1577030660468,5648527.0
1577030660525,5652422.0
1577030660567,5656335.0
1577030660625,5663372.0
1577030660666,5673178.0
1577030660718,5679352.0
1577030660770,5685064.0
1577030660811,5675931.0
1577030660862,5647129.0
1577030660909,5632574.0
1577030660959,5624879.0
1577030661008,5627743.0
1577030661057,5626262.0
1577030661107,5622686.0
1577030661155,5624683.0
1577030661205,5623132.0
1577030661252,5625871.0
1577030661306,5634753.0
1577030661351,5634627.0
1577030661403,5642869.0
1577030661449,5647129.0
1577030661501,5651473.0
1577030661548,5658024.0
1577030661602,5663430.0
1577030661647,5649154.0
1577030661696,5623732.0
1577030661750,5616245.0
1577030661791,5615897.0
1577030661841,5616401.0
1577030661886,5614333.0
1577030661936,5611861.0
1577030661992,5609625.0
1577030662034,5610940.0
1577030662093,5618467.0
1577030662137,5622337.0
1577030662184,5626164.0
1577030662228,5632672.0
1577030662283,5639725.0
1577030662330,5645914.0
1577030662378,5658373.0
1577030662432,5658134.0
1577030662478,5645440.0
1577030662528,5627238.0
1577030662576,5622952.0
1577030662626,5630047.0
1577030662674,5638216.0
1577030662723,5630634.0
1577030662773,5633621.0
1577030662820,5636989.0
1577030662872,5644544.0
1577030662918,5648539.0
1577030662967,5655285.0
1577030663015,5661766.0
1577030663059,5671348.0
1577030663110,5675301.0
1577030663156,5682243.0
1577030663206,5690553.0
1577030663254,5674659.0
1577030663304,5654211.0
1577030663353,5647184.0
1577030663403,5648163.0
1577030663456,5652339.0
1577030663506,5646541.0
1577030663549,5646850.0
1577030663605,5648233.0
1577030663653,5649741.0
1577030663700,5655105.0
1577030663754,5660523.0
1577030663798,5668163.0
1577030663852,5670538.0
1577030663893,5674337.0
1577030663944,5676574.0
1577030663992,5678192.0
1577030664044,5654490.0
1577030664097,5638510.0
1577030664141,5633972.0
1577030664188,5631638.0
1577030664231,5637310.0
1577030664287,5622000.0
1577030664328,5615046.0
1577030664380,5602768.0
1577030664433,5598619.0
1577030664477,5588550.0
1577030664534,5575140.0
1577030664575,5567892.0
1577030664630,5562290.0
1577030664673,5562122.0
1577030664727,5558896.0
1577030664768,5538795.0
1577030664825,5508597.0
1577030664872,5491461.0
1577030664918,5485957.0
1577030664967,5482814.0
1577030665015,5481502.0
1577030665065,5475606.0
1577030665115,5478442.0
1577030665162,5503864.0
1577030665211,5537553.0
1577030665260,5553337.0
1577030665310,5563238.0
1577030665363,5566968.0
1577030665404,5565264.0
1577030665454,5563896.0
1577030665508,5547540.0
1577030665553,5519535.0
1577030665606,5504938.0
1577030665656,5496124.0
1577030665699,5480244.0
1577030665758,5460981.0
1577030665801,5448076.0
1577030665851,5406426.0
1577030665898,5416161.0
1577030665947,5456303.0
1577030665990,5424890.0
1577030666052,5329129.0
1577030666096,5331056.0
1577030666191,5342524.0
1577030666193,5429220.0
1577030666292,5439445.0
1577030666293,5466081.0
1577030666331,5516112.0
1577030666380,5585530.0
1577030666431,5673906.0
1577030666482,5754734.0
1577030666530,5791106.0
1577030666578,5914134.0
1577030666624,5935322.0
1577030666672,5847494.0
1577030666724,5687622.0
1577030666772,5690177.0
1577030666823,5667940.0
1577030666870,5627085.0
1577030666921,5545025.0
1577030666969,5490537.0
1577030667018,5436707.0
1577030667066,5394078.0
1577030667119,5346994.0
1577030667166,5306458.0
1577030667214,5276192.0
1577030667263,5250519.0
1577030667313,5229442.0
1577030667361,5207009.0
1577030667409,5185277.0
1577030667458,5165414.0
1577030667507,5136670.0
1577030667555,5094668.0
1577030667603,5056983.0
1577030667654,5038280.0
1577030667703,5017594.0
1577030667753,4998041.0
1577030667800,4972576.0
1577030667847,4950954.0
1577030667897,4938915.0
1577030667945,4926471.0
1577030667995,4915325.0
1577030668045,4903730.0
1577030668101,4895337.0
1577030668148,4860137.0
1577030668192,4825010.0
1577030668243,4797452.0
1577030668290,4786025.0
1577030668341,4769405.0
1577030668389,4753593.0
1577030668440,4735058.0
1577030668487,4716943.0
1577030668538,4705699.0
1577030668586,4696550.0
1577030668635,4690389.0
1577030668683,4680586.0
1577030668731,4655626.0
1577030668779,4618079.0
1577030668829,4590059.0
1577030668874,4568508.0
1577030668922,4556132.0
1577030668973,4542305.0
1577030669022,4525000.0
1577030669070,4510905.0
1577030669119,4498627.0
1577030669173,4267856.0
1577030669221,4189352.0
1577030669270,4184787.0
1577030669312,4169317.0
1577030669368,4142646.0
1577030669419,4112026.0
1577030669467,4095624.0
1577030669513,4085028.0
1577030669563,4076995.0
1577030669612,4064367.0
1577030669663,4059666.0
1577030669706,4054446.0
1577030669757,4052770.0
1577030669807,4048995.0
1577030669854,4048321.0
1577030669906,4051017.0
1577030669948,4036260.0
1577030670005,4008598.0
1577030670050,3989768.0
1577030670094,3977707.0
1577030670154,3975521.0
1577030670198,3969107.0
1577030670245,3963674.0
1577030670294,3961498.0
1577030670340,3963020.0
1577030670392,4000371.0
1577030670442,4016390.0
1577030670491,4014811.0
1577030670538,4015254.0
1577030670601,4010004.0
1577030670637,3990489.0
1577030670686,3964166.0
1577030670733,3983874.0
1577030670784,4005189.0
1577030670831,4025425.0
1577030670874,4028672.0
1577030670931,4026138.0
1577030670976,4008704.0
1577030671027,3996501.0
1577030671075,3982138.0
1577030671127,3972093.0
1577030671174,3967768.0
1577030671253,3962644.0
1577030671273,3964464.0
1577030671317,3970850.0
1577030671363,3973875.0
1577030671413,3974357.0
1577030671462,3957365.0
1577030671512,3925820.0
1577030671560,3911499.0
1577030671610,3904119.0
1577030671658,3900643.0
1577030671707,3892542.0
1577030671759,3891685.0
1577030671813,3888912.0
1577030671857,3892648.0
1577030671907,3891464.0
1577030671950,3898841.0
1577030672003,3908165.0
1577030672054,3915552.0
1577030672096,3919898.0
1577030672154,3926938.0
1577030672197,3938025.0
1577030672245,3949391.0
1577030672292,3934768.0
1577030672340,3920022.0
1577030672388,3920379.0
1577030672439,3928084.0
1577030672488,3932139.0
1577030672540,3931619.0
1577030672586,3922950.0
1577030672639,3930002.0
1577030672691,3930666.0
1577030672738,3940721.0
1577030672786,3948283.0
1577030672837,3949919.0
1577030672879,3960380.0
1577030672935,3969704.0
1577030672982,3976417.0
1577030673033,3978691.0
1577030673078,3959436.0
1577030673129,3939874.0
1577030673179,3931802.0
1577030673225,3926716.0
1577030673277,3929616.0
1577030673318,3926109.0
1577030673375,3932149.0
1577030673421,3939825.0
1577030673472,3946867.0
1577030673521,3960697.0
1577030673570,3971862.0
1577030673618,3978286.0
1577030673666,3989863.0
1577030673709,3999813.0
1577030673760,4011940.0
1577030673814,4022044.0
1577030673863,4011631.0
1577030673912,3996413.0
1577030673954,3993602.0
1577030674003,4002858.0
1577030674057,4007133.0
1577030674101,4007230.0
1577030674156,4009831.0
1577030674201,4013655.0
1577030674253,4018202.0
1577030674298,4029220.0
1577030674350,4033247.0
1577030674399,4033399.0
1577030674443,4029933.0
1577030674497,4027987.0
1577030674540,4035336.0
1577030674594,4043022.0
1577030674644,4059542.0
1577030674684,4064473.0
1577030674734,4070810.0
1577030674784,4104543.0
1577030674834,4133361.0
1577030674883,4182446.0
1577030674933,4214231.0
1577030674983,4310127.0
1577030675033,4393270.0
1577030675081,4469564.0
1577030675126,4556889.0
1577030675181,4637316.0
1577030675222,4740589.0
1577030675278,4844009.0
1577030675322,4919860.0
1577030675375,4987044.0
1577030675424,5048775.0
1577030675475,5097128.0
1577030675523,5138746.0
1577030675570,5174972.0
1577030675620,5205719.0
1577030675661,5222363.0
1577030675718,5235799.0
1577030675763,5230376.0
1577030675813,5225319.0
1577030675858,5230309.0
1577030675912,5235521.0
1577030675954,5234941.0
1577030676004,5236772.0
1577030676060,5231022.0
1577030676102,5212913.0
1577030676156,5191135.0
1577030676204,5161853.0
1577030676252,5130357.0
1577030676297,5098689.0
1577030676350,5070051.0
1577030676401,5046406.0
1577030676451,5035975.0
1577030676499,5021488.0
1577030676544,5028104.0
1577030676593,5032651.0
1577030676639,5049912.0
1577030676691,5066026.0
1577030676744,5085925.0
1577030676786,5089412.0
1577030676841,5077487.0
1577030676884,5056268.0
1577030676938,5035877.0
1577030676985,5031976.0
1577030677034,5027470.0
1577030677081,5034886.0
1577030677127,5036052.0
1577030677183,5041176.0
1577030677224,5048746.0
1577030677280,5061672.0
1577030677324,5078952.0
1577030677369,5086474.0
1577030677425,5103398.0
1577030677470,5124291.0
1577030677520,5156557.0
1577030677568,5172941.0
1577030677623,5173085.0
1577030677664,5197742.0
1577030677720,5228739.0
1577030677767,5243302.0
1577030677816,5240124.0
1577030677860,5278073.0
1577030677915,5297655.0
1577030677957,5327101.0
1577030678011,5352230.0
1577030678062,5388544.0
1577030678104,5417786.0
1577030678162,5442539.0
1577030678204,5457355.0
1577030678255,5460002.0
1577030678304,5477120.0
1577030678347,5515454.0
1577030678404,5551477.0
1577030678446,5583707.0
1577030678502,5605022.0
1577030678548,5630969.0
1577030678597,5653335.0
1577030678644,5669237.0
1577030678694,5691420.0
1577030678748,5725364.0
1577030678788,5808709.0
1577030678844,5830836.0
1577030678886,5833018.0
1577030678942,5823205.0
1577030678987,5776213.0
1577030679032,5725161.0
1577030679085,5677750.0
1577030679131,5612633.0
1577030679187,5547786.0
1577030679227,5498396.0
1577030679283,5474685.0
1577030679326,5522933.0
1577030679381,5524234.0
1577030679429,5470356.0
1577030679476,5408664.0
1577030679525,5338920.0
1577030679568,5291613.0
1577030679627,5278236.0
1577030679667,5257646.0
1577030679716,5220931.0
1577030679769,5209443.0
1577030679819,5171067.0
1577030679871,5138582.0
1577030679915,5107860.0
1577030679965,5071339.0
1577030680014,5043567.0
1577030680066,4998294.0
1577030680111,4930271.0
1577030680165,4862484.0
1577030680206,4824391.0
1577030680261,4804626.0
1577030680304,4782498.0
1577030680355,4761807.0
1577030680405,4725703.0
1577030680451,4686084.0
1577030680506,4685846.0
1577030680545,4725239.0
1577030680602,4757668.0
1577030680644,4758097.0
1577030680701,4710721.0
1577030680746,4701064.0
1577030680795,4696090.0
1577030680848,4680949.0
1577030680893,4645514.0
1577030680945,4615300.0
1577030680985,4536783.0
1577030681034,4530350.0
1577030681091,4538107.0
1577030681138,4552953.0
1577030681185,4665244.0
1577030681231,4685484.0
1577030681288,4772796.0
1577030681335,4826595.0
1577030681382,4727478.0
1577030681436,4728655.0
1577030681481,4768410.0
1577030681530,4767211.0
1577030681575,4717279.0
1577030681626,4688650.0
1577030681673,4675624.0
1577030681726,4680553.0
1577030681768,4613694.0
1577030681823,4560042.0
1577030681873,4558177.0
1577030681920,4602930.0
1577030681966,4654953.0
1577030682016,4635867.0
1577030682064,4664521.0
1577030682116,4665469.0
1577030682158,4678653.0
1577030682207,4646599.0
1577030682262,4628766.0
1577030682305,4629898.0
1577030682360,4631027.0
1577030682405,4548124.0
1577030682450,4465820.0
1577030682500,4555406.0
1577030682547,4641724.0
1577030682605,4772333.0
1577030682650,4711387.0
1577030682701,4757782.0
1577030682749,4814520.0
1577030682797,4792866.0
1577030682845,4777862.0
1577030682888,4767776.0
1577030682939,4752353.0
1577030682990,4717517.0
1577030683038,4685653.0
1577030683086,4697457.0
1577030683136,4711986.0
1577030683183,4719778.0
1577030683236,4696903.0
1577030683281,4707000.0
1577030683333,4711761.0
1577030683379,4719087.0
1577030683431,4711263.0
1577030683482,4659240.0
1577030683532,4625172.0
1577030683579,4584295.0
1577030683626,4571247.0
1577030683675,4551596.0
1577030683728,4560505.0
1577030683768,4558323.0
1577030683823,4543804.0
1577030683872,4533380.0
1577030683922,4527874.0
1577030683967,4528359.0
1577030684017,4531423.0
1577030684064,4504106.0
1577030684117,4479705.0
1577030684168,4463162.0
1577030684213,4457815.0
1577030684264,4454231.0
1577030684310,4455598.0
1577030684352,4447932.0
1577030684410,4443546.0
1577030684452,4436851.0
1577030684501,4436896.0
1577030684550,4440492.0
1577030684606,4426211.0
1577030684653,4390729.0
1577030684703,4366996.0
1577030684749,4352184.0
1577030684799,4349685.0
1577030684848,4346530.0
1577030684890,4343466.0
1577030684945,4340142.0
1577030684996,4343025.0
1577030685046,4344360.0
1577030685092,4349470.0
1577030685140,4348598.0
1577030685190,4321881.0
1577030685238,4291533.0
1577030685281,4276301.0
1577030685335,4266906.0
1577030685380,4261410.0
1577030685434,4263740.0
1577030685483,4264813.0
1577030685532,4255711.0
1577030685577,4235879.0
1577030685631,4233662.0
1577030685673,4243748.0
1577030685724,4233935.0
1577030685773,4200781.0
1577030685827,4175827.0
1577030685873,4151574.0
1577030685921,4160912.0
1577030685966,4172785.0
1577030686019,4183245.0
1577030686071,4191884.0
1577030686111,4193477.0
1577030686168,4243872.0
1577030686211,4292731.0
1577030686265,4340866.0
1577030686307,4366159.0
1577030686362,4346733.0
1577030686413,4383221.0
1577030686452,4468047.0
1577030686505,4557295.0
1577030686552,4609907.0
1577030686611,4682510.0
1577030686663,4735630.0
1577030686701,4791464.0
1577030686757,4848205.0
1577030686797,4888049.0
1577030686851,4915821.0
1577030686893,4896136.0
1577030686945,4898883.0
1577030686997,4919891.0
1577030687048,4879524.0
1577030687092,4904230.0
1577030687145,4906967.0
1577030687190,4910722.0
1577030687235,4900725.0
1577030687291,4900973.0
1577030687334,4899492.0
1577030687385,4890538.0
1577030687436,4887994.0
1577030687485,4865810.0
1577030687528,4840074.0
1577030687577,4827274.0
1577030687626,4818171.0
1577030687674,4807860.0
1577030687730,4790109.0
1577030687777,4772061.0
1577030687825,4764655.0
1577030687877,4761185.0
1577030687918,4761106.0
1577030687965,4763999.0
1577030688014,4761388.0
1577030688064,4750262.0
1577030688112,4752705.0
1577030688166,4754966.0
1577030688213,4775375.0
1577030688262,4789904.0
1577030688308,4801913.0
1577030688363,4808108.0
1577030688407,4821317.0
1577030688456,4838627.0
1577030688512,4849064.0
1577030688557,4869461.0
1577030688609,4854332.0
1577030688657,4835348.0
1577030688707,4811184.0
1577030688752,4801607.0
1577030688800,4786490.0
1577030688853,4779028.0
1577030688896,4784081.0
1577030688951,4782929.0
1577030688996,4788321.0
1577030689052,4798248.0
1577030689094,4809240.0
1577030689144,4816737.0
1577030689197,4810055.0
1577030689237,4809329.0
1577030689294,4813255.0
1577030689336,4830010.0
1577030689391,4824391.0
1577030689439,4823011.0
1577030689487,4816804.0
1577030689536,4814317.0
1577030689580,4814577.0
1577030689633,4816668.0
1577030689687,4814159.0
1577030689733,4802377.0
1577030689778,4781277.0
1577030689832,4762112.0
1577030689878,4786704.0
1577030689928,4801708.0
1577030689969,4787541.0
1577030690023,4771734.0
1577030690075,4700917.0
1577030690121,4539520.0
1577030690171,4535517.0
1577030690219,4530169.0
1577030690271,4541838.0
1577030690318,4543703.0
1577030690366,4548124.0
1577030690417,4549120.0
1577030690461,4518036.0
1577030690516,4494529.0
1577030690556,4551155.0
1577030690617,4556753.0
1577030690660,4540153.0
1577030690711,4516691.0
1577030690760,4580746.0
1577030690806,4637123.0
1577030690856,4690346.0
1577030690901,4705745.0
1577030690955,4745083.0
1577030690996,4754253.0
1577030691045,4740910.0
1577030691104,4729829.0
1577030691153,4742540.0
1577030691194,4767154.0
1577030691247,4830496.0
1577030691295,4860529.0
1577030691337,4887722.0
1577030691395,4883685.0
1577030691442,4868138.0
1577030691492,4842766.0
1577030691541,4821644.0
1577030691587,4807793.0
1577030691635,4798431.0
1577030691692,4790265.0
1577030691736,4771949.0
1577030691778,4756016.0
1577030691833,4742030.0
1577030691880,4727907.0
1577030691932,4712439.0
1577030691977,4689430.0
1577030692027,4648543.0
1577030692077,4611411.0
1577030692124,4592414.0
1577030692174,4575408.0
1577030692217,4551267.0
1577030692272,4517934.0
1577030692322,4490672.0
1577030692369,4467177.0
1577030692418,4466092.0
1577030692467,4457589.0
1577030692516,4445342.0
1577030692559,4411127.0
1577030692623,4382250.0
1577030692662,4371067.0
1577030692710,4364430.0
1577030692759,4354117.0
1577030692807,4328338.0
1577030692851,4311929.0
1577030692903,4303880.0
1577030692950,4294664.0
1577030692998,4275577.0
1577030693047,4259025.0
1577030693102,4226720.0
1577030693145,4176595.0
1577030693192,4137281.0
1577030693244,4120139.0
1577030693292,4112032.0
1577030693342,4093003.0
1577030693390,4078801.0
1577030693438,4067980.0
1577030693488,4056210.0
1577030693536,4052354.0
1577030693585,4040210.0
1577030693638,4009996.0
1577030693681,3973012.0
1577030693737,3949086.0
1577030693781,3940831.0
1577030693834,3936388.0
1577030693885,3940526.0
1577030693932,3945534.0
1577030693974,3954015.0
1577030694024,3970513.0
1577030694078,3998984.0
1577030694126,4012190.0
1577030694176,4004150.0
1577030694222,3983368.0
1577030694274,3960821.0
1577030694316,3950624.0
1577030694366,3950701.0
1577030694414,3932261.0
1577030694464,3918364.0
1577030694511,3937292.0
1577030694559,3964858.0
1577030694608,4000058.0
1577030694658,4045129.0
1577030694707,4081842.0
1577030694762,4053337.0
1577030694803,4065334.0
1577030694860,4048668.0
1577030694905,4019675.0
1577030694957,4002184.0
1577030695003,4027444.0
1577030695055,4059511.0
1577030695104,4106219.0
1577030695154,4172468.0
1577030695197,4254524.0
1577030695244,4258210.0
1577030695292,4235245.0
1577030695343,4193704.0
1577030695394,4160924.0
1577030695446,4179195.0
1577030695491,4211760.0
1577030695543,4237236.0
1577030695584,4235528.0
1577030695638,4210935.0
1577030695685,4205293.0
1577030695738,4222594.0
1577030695785,4257633.0
1577030695829,4338763.0
1577030695886,4384759.0
1577030695925,4353168.0
1577030695974,4351459.0
1577030696023,4362213.0
1577030696080,4372333.0
1577030696123,4395773.0
1577030696173,4395127.0
1577030696227,4398080.0
1577030696273,4427794.0
1577030696318,4451516.0
1577030696365,4447752.0
1577030696414,4454523.0
1577030696463,4468059.0
1577030696513,4489216.0
1577030696563,4514690.0
1577030696611,4528721.0
1577030696664,4553892.0
1577030696706,4568478.0
1577030696757,4583460.0
1577030696804,4591973.0
1577030696860,4748995.0
1577030696909,4906300.0
1577030696953,4958663.0
1577030697005,4932872.0
1577030697054,4933313.0
1577030697103,4918737.0
1577030697150,4929446.0
1577030697194,4935200.0
1577030697249,4946224.0
1577030697298,4944902.0
1577030697347,4944089.0
1577030697393,4950725.0
1577030697446,4954026.0
1577030697488,4952602.0
1577030697543,4939757.0
1577030697587,4934172.0
1577030697639,4918501.0
1577030697691,4929852.0
1577030697735,4947752.0
1577030697786,4955780.0
1577030697829,4969981.0
1577030697879,4986670.0
1577030697927,4993603.0
1577030697975,5000013.0
1577030698025,5007488.0
1577030698074,5009987.0
1577030698124,5018930.0
1577030698171,5236547.0
1577030698221,6176540.0
1577030698268,6043172.0
1577030698325,5955204.0
1577030698366,5916737.0
1577030698422,5884907.0
1577030698466,5888434.0
1577030698513,5906572.0
1577030698561,5913628.0
1577030698611,5917415.0
1577030698667,5918287.0
1577030698710,5930882.0
1577030698764,5949945.0
1577030698808,5949958.0
1577030698862,5927411.0
1577030698909,5919248.0
1577030698956,5901698.0
1577030699005,5869056.0
1577030699051,5883981.0
1577030699104,5892924.0
1577030699150,5905497.0
1577030699197,5910089.0
1577030699245,5912667.0
1577030699292,5875218.0
1577030699346,5869214.0
1577030699389,5859976.0
1577030699440,5858913.0
1577030699487,5853960.0
1577030699544,5911751.0
1577030699587,5914837.0
1577030699643,5913187.0
1577030699691,5922515.0
1577030699740,5916261.0
1577030699789,5905804.0
1577030699837,5891703.0
1577030699885,5893455.0
1577030699930,5895230.0
1577030699977,5871666.0
1577030700029,5876156.0
1577030700074,5836491.0
1577030700126,5871565.0
1577030700182,5892868.0
1577030700228,5886728.0
1577030700276,5902423.0
1577030700326,5923793.0
1577030700370,5940551.0
1577030700418,5942686.0
1577030700472,5946193.0
1577030700517,5931424.0
1577030700567,5944360.0
1577030700620,5922096.0
1577030700664,5923238.0
1577030700709,5929333.0
1577030700760,5940234.0
1577030700808,5948804.0
1577030700856,5949381.0
1577030700907,5933348.0
1577030700954,5887530.0
1577030701004,5855644.0
1577030701051,5864645.0
1577030701105,5894326.0
1577030701149,5908471.0
1577030701197,5914678.0
1577030701252,5904672.0
1577030701302,5895547.0
1577030701348,5896689.0
1577030701399,5893603.0
1577030701444,5886512.0
1577030701495,5864137.0
1577030701546,5847267.0
1577030701587,5845095.0
1577030701635,5846972.0
1577030701687,5843728.0
1577030701734,5842507.0
1577030701786,5846249.0
1577030701832,5845536.0
1577030701882,5850217.0
1577030701928,5852751.0
1577030701979,5846849.0
1577030702034,5837779.0
1577030702076,5831143.0
1577030702129,5831448.0
1577030702181,5832951.0
1577030702237,5827195.0
1577030702274,5820401.0
1577030702338,5826722.0
1577030702368,5824176.0
1577030702425,5826123.0
1577030702472,5823601.0
1577030702522,5819824.0
1577030702568,5813774.0
1577030702620,5809206.0
1577030702665,5807849.0
1577030702715,5801868.0
1577030702768,5796022.0
1577030702809,5789860.0
1577030702863,5789442.0
1577030702912,5788334.0
1577030702955,5789159.0
1577030703008,5783866.0
1577030703059,5770288.0
1577030703104,5762497.0
1577030703149,5755497.0
1577030703199,5755465.0
1577030703253,5754390.0
1577030703304,5751212.0
1577030703350,5745909.0
1577030703401,5745989.0
1577030703449,5751552.0
1577030703495,5740334.0
1577030703545,5730102.0
1577030703593,5722469.0
1577030703647,5712948.0
1577030703696,5709919.0
1577030703744,5708844.0
1577030703791,5703180.0
1577030703841,5702489.0
1577030703889,5700354.0
1577030703937,5700488.0
1577030703982,5694021.0
1577030704032,5678439.0
1577030704088,5671373.0
1577030704129,5663504.0
1577030704183,5661015.0
1577030704232,5660688.0
1577030704281,5651630.0
1577030704324,5648702.0
1577030704374,5642483.0
1577030704426,5647571.0
1577030704471,5641126.0
1577030704527,5632792.0
1577030704572,5624313.0
1577030704624,5611083.0
1577030704672,5613027.0
1577030704719,5610845.0
1577030704771,5604628.0
1577030704811,5600952.0
1577030704866,5598057.0
1577030704913,5597131.0
1577030704966,5590617.0
1577030705005,5587801.0
1577030705054,5580905.0
1577030705112,5575838.0
1577030705153,5570299.0
1577030705203,5567053.0
1577030705251,5565821.0
1577030705306,5555746.0
1577030705353,5558857.0
1577030705405,5550906.0
1577030705453,5553621.0
1577030705498,5551652.0
1577030705546,5540697.0
1577030705591,5534862.0
1577030705644,5526359.0
1577030705694,5524482.0
1577030705747,5521769.0
1577030705795,5515119.0
1577030705841,5513242.0
1577030705892,5515652.0
1577030705936,5513559.0
1577030705984,5520479.0
1577030706035,5525930.0
1577030706081,5525071.0
1577030706135,5533945.0
1577030706185,5538119.0
1577030706234,5543535.0
1577030706277,5565312.0
1577030706326,5580259.0
1577030706374,5587768.0
1577030706424,5600138.0
1577030706474,5614555.0
1577030706523,5613186.0
1577030706569,5606934.0
1577030706618,5612157.0
1577030706666,5624007.0
1577030706714,5632601.0
1577030706763,5644212.0
1577030706813,5653270.0
1577030706862,5657941.0
1577030706914,5657725.0
1577030706959,5661196.0
1577030707015,5658325.0
1577030707060,5640844.0
1577030707113,5625116.0
1577030707153,5613718.0
1577030707204,5606798.0
1577030707256,5595887.0
1577030707302,5583687.0
1577030707356,5573804.0
1577030707403,5564125.0
1577030707454,5555090.0
1577030707501,5545593.0
1577030707543,5525160.0
1577030707593,5506086.0
1577030707643,5495141.0
1577030707692,5487112.0
1577030707740,5471463.0
1577030707795,5462282.0
1577030707842,5451450.0
1577030707893,5442799.0
1577030707935,5433120.0
1577030707985,5425036.0
1577030708038,5408369.0
1577030708082,5390673.0
1577030708135,5376698.0
1577030708178,5366566.0
1577030708232,5350578.0
1577030708278,5352909.0
1577030708333,5340946.0
1577030708374,5333617.0
1577030708431,5334942.0
1577030708477,5346068.0
1577030708528,5346293.0
1577030708577,5356515.0
1577030708624,5352693.0
1577030708675,5360134.0
1577030708718,5376042.0
1577030708773,5382068.0
1577030708817,5409241.0
1577030708870,5455542.0
1577030708918,5491047.0
1577030708966,5488243.0
1577030709015,5469179.0
1577030709059,5436184.0
1577030709113,5407126.0
1577030709155,5388072.0
1577030709204,5355700.0
1577030709257,5323408.0
1577030709309,5298102.0
1577030709357,5286467.0
1577030709407,5282917.0
1577030709452,5277649.0
1577030709495,5261490.0
1577030709554,5232138.0
1577030709597,5222979.0
1577030709651,5210302.0
1577030709699,5204130.0
1577030709747,5223226.0
1577030709797,5246000.0
1577030709845,5257894.0
1577030709894,5284071.0
1577030709935,5317065.0
1577030709985,5342539.0
1577030710039,5369179.0
1577030710084,5380441.0
1577030710139,5371836.0
1577030710180,5359715.0
1577030710237,5352411.0
1577030710280,5320252.0
1577030710333,5290380.0
1577030710377,5265414.0
1577030710432,5242132.0
1577030710480,5223984.0
1577030710530,5205825.0
1577030710571,5174458.0
1577030710626,5141556.0
1577030710670,5111808.0
1577030710717,5096779.0
1577030710772,5081368.0
1577030710818,5065098.0
1577030710868,5049494.0
1577030710919,5031639.0
1577030710966,5026324.0
1577030711017,5011478.0
1577030711059,4990019.0
1577030711115,4965142.0
1577030711158,4935913.0
1577030711207,4919438.0
1577030711261,4906221.0
1577030711310,4892210.0
1577030711358,4879445.0
1577030711405,4872131.0
1577030711456,4856061.0
1577030711497,4844993.0
1577030711554,4838129.0
1577030711600,4808980.0
1577030711651,4780350.0
1577030711700,4763954.0
1577030711747,4747389.0
1577030711790,4731560.0
1577030711842,4713514.0
1577030711889,4696508.0
1577030711939,4680870.0
1577030711985,4668682.0
1577030712035,4659149.0
1577030712091,4645999.0
1577030712139,4622197.0
1577030712180,4601912.0
1577030712237,4591396.0
1577030712279,4584500.0
1577030712330,4580983.0
1577030712382,4579173.0
1577030712432,4578948.0
1577030712480,4584748.0
1577030712527,4586365.0
1577030712569,4585687.0
1577030712622,4586626.0
1577030712669,4580758.0
1577030712722,4563061.0
1577030712768,4555554.0
1577030712822,4555440.0
1577030712869,4550204.0
1577030712920,4545275.0
1577030712960,4540978.0
1577030713016,4535948.0
1577030713060,4530090.0
1577030713115,4527648.0
1577030713166,4527059.0
1577030713208,4522164.0
1577030713262,4518974.0
1577030713307,4509070.0
1577030713358,4495286.0
1577030713401,4485721.0
1577030713456,4479242.0
1577030713503,4472752.0
1577030713552,4471925.0
1577030713603,4468557.0
1577030713652,4470060.0
1577030713700,4469892.0
1577030713741,4471791.0
1577030713798,4468240.0
1577030713841,4471757.0
1577030713894,4471180.0
1577030713946,4475001.0
1577030713987,4474548.0
1577030714041,4461049.0
1577030714084,4453404.0
1577030714139,4449414.0
1577030714185,4449007.0
1577030714236,4450035.0
1577030714284,4449198.0
1577030714335,4446451.0
1577030714383,4445830.0
1577030714425,4448148.0
1577030714480,4447752.0
1577030714525,4446746.0
1577030714578,4448928.0
1577030714623,4452081.0
1577030714676,4451529.0
1577030714726,4453632.0
1577030714772,4453508.0
1577030714822,4442652.0
1577030714865,4437654.0
1577030714920,4430882.0
1577030714963,4434171.0
1577030715017,4429275.0
1577030715063,4430147.0
1577030715109,4428596.0
1577030715161,4425986.0
1577030715205,4427070.0
1577030715263,4429446.0
1577030715303,4427353.0
1577030715360,4428529.0
1577030715404,4433617.0
1577030715457,4428155.0
1577030715504,4432339.0
1577030715553,4429186.0
1577030715606,4425012.0
1577030715647,4415583.0
1577030715702,4407080.0
1577030715744,4398870.0
1577030715794,4395016.0
1577030715844,4394134.0
1577030715895,4394721.0
1577030715949,4388965.0
1577030715989,4391318.0
1577030716046,4389656.0
1577030716085,4388026.0
1577030716142,4387687.0
1577030716188,4386659.0
1577030716239,4388321.0
1577030716287,4387586.0
1577030716336,4386523.0
1577030716385,4384591.0
1577030716435,4379355.0
1577030716478,4381062.0
1577030716526,4357363.0
1577030716582,4319766.0
1577030716628,4311365.0
1577030716681,4297695.0
1577030716727,4298305.0
1577030716775,4297910.0
1577030716825,4297626.0
1577030716870,4301710.0
1577030716925,4301811.0
1577030716965,4307634.0
1577030717019,4311862.0
1577030717065,4329445.0
1577030717113,4361953.0
1577030717160,4399605.0
1577030717209,4458979.0
1577030717261,4486818.0
1577030717309,4474877.0
1577030717358,4484557.0
1577030717404,4464780.0
1577030717461,4490516.0
1577030717508,4546316.0
1577030717554,4623012.0
1577030717601,4714057.0
1577030717649,4806028.0
1577030717705,4860054.0
1577030717746,4908312.0
1577030717802,4974470.0
1577030717846,5044156.0
1577030717899,5114532.0
1577030717949,5174119.0
1577030717990,5249007.0
1577030718044,5302083.0
1577030718092,5357974.0
1577030718146,5335891.0
1577030718198,5364069.0
1577030718233,5383381.0
1577030718284,5375544.0
1577030718331,5371824.0
1577030718382,5369417.0
1577030718429,5381707.0
1577030718481,5389498.0
1577030718527,5403552.0
1577030718578,5428020.0
1577030718626,5441511.0
1577030718680,5464600.0
1577030718729,5487305.0
1577030718776,5508437.0
1577030718824,5508301.0
1577030718872,5515312.0
1577030718926,5540006.0
1577030718966,5558438.0
1577030719023,5565108.0
1577030719068,5564972.0
1577030719120,5551652.0
1577030719164,5547934.0
1577030719217,5544462.0
1577030719267,5547887.0
1577030719309,5548769.0
1577030719364,5550307.0
1577030719405,5543942.0
1577030719462,5545898.0
1577030719512,5541443.0
1577030719556,5533527.0
1577030719601,5532521.0
1577030719653,5530418.0
1577030719706,5529299.0
1577030719746,5524085.0
1577030719804,5526144.0
1577030719853,5526349.0
1577030719893,5516092.0
1577030719949,5511931.0
1577030719990,5509115.0
1577030720045,5513299.0
1577030720094,5520751.0
1577030720144,5511468.0
1577030720191,5509658.0
1577030720241,5500997.0
1577030720288,5498453.0
1577030720339,5495954.0
1577030720386,5489395.0
1577030720435,5478653.0
1577030720487,5464610.0
1577030720528,5456221.0
1577030720584,5429130.0
1577030720632,5396654.0
1577030720680,5368614.0
1577030720730,5337959.0
1577030720778,5327591.0
1577030720825,5316081.0
1577030720870,5320569.0
1577030720926,5318194.0
1577030720968,5320401.0
1577030721023,5339804.0
1577030721073,5348238.0
1577030721121,5365605.0
1577030721163,5385608.0
1577030721218,5415403.0
1577030721264,5453496.0
1577030721308,5444924.0
1577030721365,5436954.0
1577030721414,5438333.0
1577030721461,5445853.0
1577030721508,5458188.0
1577030721558,5449120.0
1577030721605,5447990.0
1577030721653,5447265.0
1577030721707,5446983.0
1577030721752,5434884.0
1577030721804,5431458.0
1577030721852,5428439.0
1577030721901,5413378.0
1577030721950,5382635.0
1577030721992,5359081.0
1577030722043,5328768.0
1577030722088,5304525.0
1577030722141,5230396.0
1577030722187,5024335.0
1577030722237,4788784.0
1577030722286,4708764.0
1577030722341,4606140.0
1577030722386,4531968.0
1577030722435,4533008.0
1577030722485,4522164.0
1577030722534,4496349.0
1577030722584,4465233.0
1577030722633,4387994.0
1577030722673,4413683.0
1577030722722,4388717.0
1577030722769,4334431.0
1577030722819,4281096.0
1577030722868,4274480.0
1577030722920,4288412.0
1577030722970,4267889.0
1577030723017,4297898.0
1577030723065,4319166.0
1577030723115,4384071.0
1577030723164,4458969.0
1577030723212,4418184.0
1577030723268,4393998.0
1577030723313,4371744.0
1577030723366,4504084.0
1577030723414,4606809.0
1577030723456,4602319.0
1577030723510,4610066.0
1577030723559,4622514.0
1577030723609,4649358.0
1577030723650,4675736.0
1577030723705,4697311.0
1577030723753,4732350.0
1577030723806,4781051.0
1577030723853,4810008.0
1577030723900,4831865.0
1577030723951,4849040.0
1577030723993,4860168.0
1577030724049,4878506.0
1577030724093,4860891.0
1577030724142,4815368.0
1577030724193,4766815.0
1577030724244,4737133.0
1577030724292,4720625.0
1577030724339,4724006.0
1577030724388,4737903.0
1577030724437,4687315.0
1577030724485,4617222.0
1577030724534,4537067.0
1577030724588,4472886.0
1577030724635,4431221.0
1577030724684,4385653.0
1577030724728,4367018.0
1577030724780,4367697.0
1577030724830,4364554.0
1577030724871,4321789.0
1577030724928,4362575.0
1577030724974,4490821.0
1577030725027,4590809.0
1577030725074,4680553.0
1577030725123,4746134.0
1577030725165,4790775.0
1577030725221,4815041.0
1577030725270,4756289.0
1577030725313,4675453.0
1577030725366,4548260.0
1577030725415,4593501.0
1577030725463,4545275.0
1577030725513,4509374.0
1577030725559,4451301.0
1577030725610,4489667.0
1577030725653,4499413.0
1577030725711,4562066.0
1577030725754,4686852.0
1577030725806,4723305.0
1577030725851,4804796.0
1577030725921,4831209.0
1577030725964,4811070.0
1577030725997,4650148.0
1577030726043,4681413.0
1577030726093,4776427.0
1577030726150,4769200.0
1577030726199,4799697.0
1577030726244,4777693.0
1577030726294,4719924.0
1577030726344,4710946.0
1577030726394,4771486.0
1577030726432,4851405.0
1577030726492,4897798.0
1577030726535,4930836.0
1577030726587,4955564.0
1577030726636,4957318.0
1577030726685,4967178.0
1577030726734,4976528.0
1577030726778,4985494.0
1577030726833,4946734.0
1577030726875,4860099.0
1577030726930,4800997.0
1577030726977,4769304.0
1577030727025,4891702.0
1577030727075,4929446.0
1577030727121,4863955.0
1577030727166,4820106.0
1577030727221,4792482.0
1577030727272,4769280.0
1577030727322,4739588.0
1577030727366,4706763.0
1577030727407,4683483.0
1577030727458,4673135.0
1577030727506,4626958.0
1577030727557,4561930.0
1577030727604,4514690.0
1577030727657,4493431.0
1577030727704,4472775.0
1577030727754,4455214.0
1577030727801,4413309.0
1577030727856,4363028.0
1577030727896,4368635.0
1577030727952,4383494.0
1577030727997,4366181.0
1577030728053,4354773.0
1577030728098,4346993.0
1577030728151,4340199.0
1577030728203,4296712.0
1577030728241,4249821.0
1577030728295,4232283.0
1577030728342,4220795.0
1577030728389,4208436.0
1577030728437,4185234.0
1577030728493,4163864.0
1577030728538,4145828.0
1577030728584,4136411.0
1577030728637,4138784.0
1577030728685,4141045.0
1577030728735,4141407.0
1577030728776,4145863.0
1577030728834,4112089.0
1577030728883,4069845.0
1577030728929,4052138.0
1577030728981,4043975.0
1577030729030,4043568.0
1577030729077,4038830.0
1577030729126,4025510.0
1577030729174,4012212.0
1577030729221,4006434.0
1577030729273,4005282.0
1577030729319,4002748.0
1577030729369,3999707.0
1577030729416,4003665.0
1577030729475,3961658.0
1577030729516,3908120.0
1577030729558,3881368.0
1577030729612,3867075.0
1577030729659,3853234.0
1577030729713,3843681.0
1577030729761,3837992.0
1577030729810,3829694.0
1577030729851,3848135.0
1577030729899,3880439.0
1577030729954,3915231.0
1577030729997,3939441.0
1577030730053,3953958.0
1577030730100,3934307.0
1577030730152,3918193.0
1577030730202,3908888.0
1577030730246,3902478.0
1577030730296,3905316.0
1577030730340,3906740.0
1577030730395,3902646.0
1577030730439,3891724.0
1577030730492,3892345.0
1577030730540,3890017.0
1577030730591,3885901.0
1577030730638,3883493.0
1577030730680,3855666.0
1577030730736,3825601.0
1577030730777,3818772.0
1577030730834,3819834.0
1577030730884,3823441.0
1577030730929,3819448.0
1577030730982,3812959.0
1577030731028,3796067.0
1577030731068,3789813.0
1577030731120,3817120.0
1577030731169,3860697.0
1577030731223,3884353.0
1577030731266,3885133.0
1577030731322,3865504.0
1577030731369,3856117.0
1577030731421,3856310.0
1577030731462,3864214.0
1577030731516,3866713.0
1577030731559,3869935.0
1577030731615,3867335.0
1577030731661,3863580.0
1577030731713,3865910.0
1577030731758,3866126.0
1577030731808,3862530.0
1577030731857,3860471.0
1577030731901,3861489.0
1577030731959,3851448.0
1577030732001,3821281.0
1577030732053,3802624.0
1577030732102,3791520.0
1577030732149,3783312.0
1577030732203,3776855.0
1577030732242,3768263.0
1577030732297,3762021.0
1577030732339,3762631.0
1577030732398,3767255.0
1577030732439,3770591.0
1577030732484,3766792.0
1577030732536,3770705.0
1577030732583,3774254.0
1577030732634,3782113.0
1577030732683,3794698.0
1577030732737,3799413.0
1577030732783,3781243.0
1577030732833,3772728.0
1577030732883,3784092.0
1577030732931,3797581.0
1577030732981,3806559.0
1577030733022,3810482.0
1577030733078,3812823.0
1577030733125,3819404.0
1577030733170,3826098.0
1577030733221,3833673.0
1577030733268,3839654.0
1577030733317,3847875.0
1577030733369,3854242.0
1577030733418,3862698.0
1577030733464,3872412.0
1577030733517,3868714.0
1577030733564,3855327.0
1577030733610,3847480.0
1577030733665,3852930.0
1577030733706,3861217.0
1577030733760,3868160.0
1577030733803,3866973.0
1577030733858,3867144.0
1577030733902,3866770.0
1577030733954,3873881.0
1577030734005,3884511.0
1577030734051,3888898.0
1577030734102,3898475.0
1577030734143,3904581.0
1577030734199,3910788.0
1577030734243,3913071.0
1577030734296,3898022.0
1577030734343,3882453.0
1577030734402,3880169.0
1577030734445,3884070.0
1577030734484,3885494.0
1577030734541,3886862.0
1577030734583,3886919.0
1577030734639,3889361.0
1577030734684,3894404.0
1577030734736,3897831.0
1577030734786,3904073.0
1577030734830,3908085.0
1577030734883,3913829.0
1577030734929,3916928.0
1577030734977,3921802.0
1577030735027,3905282.0
1577030735070,3894698.0
1577030735124,3898406.0
1577030735168,3901257.0
1577030735228,3902703.0
1577030735265,3900838.0
1577030735321,3900182.0
1577030735365,3901007.0
1577030735416,3905836.0
1577030735471,3906515.0
1577030735509,3913276.0
1577030735567,3917267.0
1577030735606,3921631.0
1577030735663,3927850.0
1577030735706,3918250.0
1577030735758,3903449.0
1577030735808,3903189.0
1577030735855,3899741.0
1577030735904,3907340.0
1577030735946,3905542.0
1577030736005,3903337.0
1577030736046,3904648.0
1577030736101,3907644.0
1577030736143,3912677.0
1577030736192,3912439.0
1577030736241,3910901.0
1577030736295,3920479.0
1577030736346,3925601.0
1577030736386,3933222.0
1577030736441,3927127.0
1577030736485,3920772.0
1577030736534,3916271.0
1577030736589,3917958.0
1577030736636,3925227.0
1577030736682,3931853.0
1577030736728,3930156.0
1577030736785,3930339.0
1577030736825,3936251.0
1577030736882,3937235.0
1577030736929,3934149.0
1577030736976,3939305.0
1577030737031,3939226.0
1577030737074,3939033.0
1577030737124,3939283.0
1577030737168,3943273.0
1577030737226,3921428.0
1577030737266,3905418.0
1577030737322,3896553.0
1577030737368,3887993.0
1577030737413,3878393.0
1577030737470,3862666.0
1577030737514,3852613.0
1577030737565,3847050.0
1577030737605,3842222.0
1577030737654,3839733.0
1577030737705,3840707.0
1577030737753,3845670.0
1577030737804,3851087.0
1577030737852,3853665.0
1577030737904,3845885.0
1577030737960,3838299.0
1577030738004,3837190.0
1577030738044,3842470.0
1577030738101,3847332.0
1577030738148,3861692.0
1577030738191,3867924.0
1577030738242,3866804.0
1577030738290,3872841.0
1577030738340,3878223.0
1577030738386,3888774.0
1577030738442,3894721.0
1577030738491,3900172.0
1577030738533,3902500.0
1577030738587,3895491.0
1577030738635,3876392.0
1577030738685,3872558.0
1577030738732,3866418.0
1577030738785,3859679.0
1577030738828,3855169.0
1577030738882,3849955.0
1577030738928,3846824.0
1577030738975,3839689.0
1577030739020,3843409.0
1577030739067,3843726.0
1577030739123,3847525.0
1577030739166,3847795.0
1577030739224,3846733.0
1577030739270,3834928.0
1577030739320,3829591.0
1577030739363,3833459.0
1577030739421,3844981.0
1577030739464,3854084.0
1577030739509,3869913.0
1577030739566,3882758.0
1577030739609,3897571.0
1577030739662,3913096.0
1577030739709,3922050.0
1577030739756,3926753.0
1577030739806,3925148.0
1577030739854,3928880.0
1577030739907,3924843.0
1577030739949,3908323.0
1577030740004,3894936.0
1577030740054,3883934.0
1577030740094,3878178.0
1577030740148,3872875.0
1577030740191,3873722.0
1577030740245,3868556.0
1577030740290,3856843.0
1577030740346,3851664.0
1577030740393,3844280.0
1577030740440,3836739.0
1577030740492,3834240.0
1577030740539,3824221.0
1577030740588,3803765.0
1577030740634,3796191.0
1577030740687,3792560.0
1577030740735,3792290.0
1577030740783,3788218.0
1577030740831,3780022.0
1577030740880,3773442.0
1577030740929,3766204.0
1577030740971,3767549.0
1577030741028,3771869.0
1577030741069,3780406.0
1577030741126,3790685.0
1577030741173,3791532.0
1577030741223,3769880.0
1577030741272,3746925.0
1577030741319,3738841.0
1577030741366,3736421.0
1577030741420,3721756.0
1577030741464,3705417.0
1577030741511,3683663.0
1577030741565,3664215.0
1577030741612,3649424.0
1577030741662,3622796.0
1577030741709,3595452.0
1577030741757,3684729.0
1577030741803,3768494.0
1577030741850,3832496.0
1577030741907,3862176.0
1577030741954,3887469.0
1577030742001,3906488.0
1577030742052,3930396.0
1577030742100,3949348.0
1577030742148,3966730.0
1577030742191,4013693.0
1577030742246,4083852.0
1577030742291,4127827.0
1577030742345,4168228.0
1577030742394,4182282.0
1577030742439,4198698.0
1577030742484,4200200.0
1577030742539,4202760.0
1577030742582,4210157.0
1577030742634,4222331.0
1577030742684,4231147.0
1577030742733,4241432.0
1577030742778,4266567.0
1577030742831,4288321.0
1577030742882,4315828.0
1577030742928,4327170.0
1577030742977,4341363.0
1577030743028,4355189.0
1577030743074,4365616.0
1577030743124,4378158.0
1577030743173,4393888.0
1577030743222,4416765.0
1577030743272,4455742.0
1577030743315,4493551.0
1577030743362,4522185.0
1577030743413,4545162.0
1577030743459,4580061.0
1577030743511,4602467.0
1577030743559,4611628.0
1577030743608,4619725.0
1577030743654,4625958.0
1577030743711,4635312.0
1577030743758,4649144.0
1577030743807,4679925.0
1577030743853,4713967.0
1577030743907,4728892.0
1577030743948,4718908.0
1577030744002,4697047.0
1577030744051,4699103.0
1577030744095,4686502.0
1577030744151,4710093.0
1577030744192,4742668.0
1577030744243,4769773.0
1577030744293,4783179.0
1577030744348,4810284.0
1577030744404,4851634.0
1577030744434,4865123.0
1577030744488,4901684.0
1577030744532,4912522.0
1577030744586,4951212.0
1577030744636,4977824.0
1577030744685,5044996.0
1577030744734,5188707.0
1577030744780,5201143.0
1577030744832,5216849.0
1577030744877,5224131.0
1577030744933,5237270.0
1577030744974,5241250.0
1577030745021,5251856.0
1577030745075,5244428.0
1577030745127,5247685.0
1577030745174,5233572.0
1577030745217,5220286.0
1577030745272,5215707.0
1577030745313,5209851.0
1577030745367,5199414.0
1577030745418,5197322.0
1577030745464,5187271.0
1577030745515,5184442.0
1577030745562,5182419.0
1577030745606,5170218.0
1577030745653,5171892.0
1577030745710,5160415.0
1577030745756,5142495.0
1577030745805,5121722.0
1577030745856,5112328.0
1577030745896,5098317.0
1577030745951,5102094.0
1577030746002,5105430.0
1577030746052,5111783.0
1577030746094,5107000.0
1577030746151,5126981.0
1577030746197,5146656.0
1577030746249,5157081.0
1577030746297,5161795.0
1577030746342,5154582.0
1577030746402,5135179.0
1577030746436,5128372.0
1577030746489,5120898.0
1577030746540,5109591.0
1577030746589,5111558.0
1577030746637,5105938.0
1577030746685,5130181.0
1577030746736,5155746.0
1577030746777,5168987.0
1577030746826,5191228.0
1577030746874,5206391.0
1577030746932,5218184.0
1577030746982,5219925.0
1577030747022,5220378.0
1577030747068,5222899.0
1577030747125,5235573.0
1577030747169,5245671.0
1577030747224,5257951.0
1577030747265,5250082.0
1577030747318,5229106.0
1577030747368,5231177.0
1577030747417,5206379.0
1577030747473,5165549.0
1577030747516,5173623.0
1577030747557,5164283.0
1577030747614,5148838.0
1577030747656,5112588.0
1577030747711,5109975.0
1577030747753,5118512.0
1577030747807,5142981.0
1577030747857,5157611.0
1577030747904,5166386.0
1577030747959,5173849.0
1577030747996,5183934.0
1577030748051,5194664.0
1577030748097,5201720.0
1577030748151,5210077.0
1577030748198,5233787.0
1577030748245,5244021.0
1577030748296,5237270.0
1577030748338,5197899.0
1577030748390,5172142.0
1577030748437,5172480.0
1577030748484,5189904.0
1577030748532,5199754.0
1577030748583,5200195.0
1577030748630,5213943.0
1577030748682,5228190.0
1577030748728,5246622.0
1577030748784,5258890.0
1577030748833,5267393.0
1577030748885,5271903.0
1577030748927,5278835.0
1577030748973,5274538.0
1577030749021,5267019.0
1577030749071,5246384.0
1577030749118,5240651.0
1577030749174,5234092.0
1577030749222,5267167.0
1577030749266,5279276.0
1577030749322,5293681.0
1577030749369,5302276.0
1577030749420,5323713.0
1577030749466,5342687.0
1577030749516,5364498.0
1577030749557,5372639.0
1577030749614,5375138.0
1577030749659,5383029.0
1577030749710,5423678.0
1577030749760,5486061.0
1577030749807,5536207.0
1577030749858,5554503.0
1577030749902,5570513.0
1577030749963,5577943.0
1577030749999,5585225.0
1577030750053,5607273.0
1577030750101,5656549.0
1577030750148,5695073.0
1577030750195,5706006.0
1577030750240,5710766.0
1577030750296,5720401.0
1577030750340,5724911.0
1577030750403,5730283.0
1577030750441,5738355.0
1577030750492,5747143.0
1577030750541,5751834.0
1577030750586,5744203.0
1577030750638,5731764.0
1577030750680,5715504.0
1577030750736,5698476.0
1577030750782,5676168.0
1577030750832,5656616.0
1577030750882,5647979.0
1577030750929,5628982.0
1577030750981,5622402.0
1577030751020,5618320.0
1577030751076,5595028.0
1577030751122,5560088.0
1577030751175,5569676.0
1577030751219,5554480.0
1577030751266,5517517.0
1577030751320,5468795.0
1577030751363,5437135.0
1577030751417,5444981.0
1577030751461,5464486.0
1577030751516,5496677.0
1577030751562,5516182.0
1577030751607,5515956.0
1577030751663,5506267.0
1577030751709,5503565.0
1577030751759,5499832.0
1577030751802,5492957.0
1577030751858,5462757.0
1577030751903,5462802.0
1577030751953,5471847.0
1577030752005,5471270.0
1577030752051,5481051.0
1577030752094,5484682.0
1577030752142,5484060.0
1577030752192,5476268.0
1577030752244,5476122.0
1577030752297,5478349.0
1577030752343,5492957.0
1577030752405,5500726.0
1577030752441,5495354.0
1577030752488,5472288.0
1577030752540,5515097.0
1577030752582,5514723.0
1577030752638,5523961.0
1577030752683,5529921.0
1577030752735,5521643.0
1577030752785,5513876.0
1577030752830,5509839.0
1577030752880,5503406.0
1577030752927,5476189.0
1577030752980,5461004.0
1577030753023,5477942.0
1577030753076,5490673.0
1577030753123,5512328.0
1577030753171,5539102.0
1577030753217,5572616.0
1577030753267,5592145.0
1577030753321,5566114.0
1577030753363,5552172.0
1577030753414,5610372.0
1577030753467,5653168.0
1577030753513,5692552.0
1577030753566,5701213.0
1577030753606,5706402.0
1577030753663,5724730.0
1577030753703,5742189.0
1577030753760,5681674.0
1577030753803,5674697.0
1577030753855,5715029.0
1577030753905,5724438.0
1577030753948,5760574.0
1577030753998,5785236.0
1577030754053,5767901.0
1577030754093,5757035.0
1577030754142,5736817.0
1577030754191,5747764.0
1577030754240,5804649.0
1577030754289,5831515.0
1577030754340,5853655.0
1577030754388,5850331.0
1577030754436,5834116.0
1577030754487,5857204.0
1577030754532,5858631.0
1577030754585,5814475.0
1577030754628,5806254.0
1577030754685,5844756.0
1577030754728,5859386.0
1577030754779,5878824.0
1577030754826,5898386.0
1577030754875,5911864.0
1577030754931,5903315.0
1577030754976,5831810.0
1577030755028,5872979.0
1577030755073,5953078.0
1577030755120,5981368.0
1577030755165,5986976.0
1577030755215,5971328.0
1577030755265,5956221.0
1577030755315,5960078.0
1577030755366,5948680.0
1577030755417,5934896.0
1577030755462,5941182.0
1577030755515,5952796.0
1577030755566,5968806.0
1577030755607,5978191.0
1577030755656,5987157.0
1577030755703,5993376.0
1577030755752,5945559.0
1577030755806,5915176.0
1577030755851,5967880.0
1577030755900,5999766.0
1577030755948,5988742.0
1577030755998,5975738.0
1577030756045,5986218.0
1577030756094,5996848.0
1577030756144,5977965.0
1577030756192,5955429.0
1577030756242,5944915.0
1577030756308,5968197.0
1577030756341,5974438.0
1577030756418,5982973.0
1577030756441,5991263.0
1577030756484,5999719.0
1577030756541,6021961.0
1577030756588,5898034.0
1577030756634,5957499.0
1577030756683,6047199.0
1577030756728,6037894.0
1577030756785,6041545.0
1577030756826,6045141.0
1577030756882,6065176.0
1577030756929,6068014.0
1577030756979,6041567.0
1577030757025,5995865.0
1577030757073,6072663.0
1577030757127,6071905.0
1577030757170,6065426.0
1577030757216,6061456.0
1577030757272,6055905.0
1577030757319,6053780.0
1577030757369,6011038.0
1577030757409,5999246.0
1577030757464,6061897.0
1577030757509,6075794.0
1577030757565,6082702.0
1577030757605,6082793.0
1577030757662,6082295.0
1577030757711,6095831.0
1577030757752,6079977.0
1577030757807,6029356.0
1577030757854,6042912.0
1577030757905,6061897.0
1577030757953,6076190.0
1577030758005,6091759.0
1577030758047,6095638.0
1577030758092,6104762.0
1577030758149,6045287.0
1577030758189,6041602.0
1577030758239,6100794.0
1577030758287,6102796.0
1577030758337,6102231.0
1577030758385,6099640.0
1577030758435,6101371.0
1577030758487,6108755.0
1577030758541,6113706.0
1577030758588,6099606.0
1577030758635,6086139.0
1577030758683,6117550.0
1577030758727,6136852.0
1577030758784,6143987.0
1577030758830,6145050.0
1577030758881,6141545.0
1577030758928,6127490.0
1577030758979,6123690.0
1577030759021,6123838.0
1577030759067,6160032.0
1577030759119,6185246.0
1577030759169,6190234.0
1577030759217,6167631.0
1577030759270,6192381.0
1577030759317,6209580.0
1577030759368,6164057.0
1577030759414,6159490.0
1577030759460,6169360.0
1577030759511,6189746.0
1577030759567,6217732.0
1577030759610,6225115.0
1577030759662,6233902.0
1577030759710,6236062.0
1577030759757,6209511.0
1577030759808,6148329.0
1577030759856,6102231.0
1577030759903,6103972.0
1577030759947,6098488.0
1577030759998,6097696.0
1577030760048,6126801.0
1577030760095,6174336.0
1577030760150,6159106.0
1577030760193,6161434.0
1577030760246,6176032.0
1577030760290,6200590.0
1577030760343,6233845.0
1577030760390,6247119.0
1577030760444,6247968.0
1577030760491,6249110.0
1577030760540,6182251.0
1577030760584,6180701.0
1577030760632,6244892.0
1577030760681,6274415.0
1577030760730,6278428.0
1577030760779,6266262.0
1577030760830,6267495.0
1577030760876,6286807.0
1577030760925,6279233.0
1577030760973,6234546.0
1577030761025,6236310.0
1577030761069,6253633.0
1577030761124,6284749.0
1577030761173,6301370.0
1577030761226,6317507.0
1577030761274,6285496.0
1577030761314,6286502.0
1577030761371,6273093.0
1577030761416,6290663.0
1577030761466,6314418.0
1577030761509,6324041.0
1577030761564,6314057.0
1577030761611,6305702.0
1577030761663,6316816.0
1577030761711,6321598.0
1577030761752,6295208.0
1577030761810,6259059.0
1577030761850,6300818.0
1577030761901,6307691.0
1577030761949,6309455.0
1577030761996,6321259.0
1577030762046,6329581.0
1577030762095,6320038.0
1577030762145,6293162.0
1577030762192,6276280.0
1577030762243,6304491.0
1577030762290,6286356.0
1577030762342,6292959.0
1577030762388,6276687.0
1577030762437,6270356.0
1577030762487,6288662.0
1577030762537,6274178.0
1577030762590,6254073.0
1577030762630,6238073.0
1577030762684,6255859.0
1577030762734,6266725.0
1577030762783,6276518.0
1577030762833,6287260.0
1577030762881,6292337.0
1577030762933,6299369.0
1577030762976,6279627.0
1577030763030,6268862.0
1577030763077,6241895.0
1577030763126,6233098.0
1577030763174,6225093.0
1577030763225,6207681.0
1577030763272,6224934.0
1577030763314,6231109.0
1577030763371,6214940.0
1577030763411,6181278.0
1577030763469,6192461.0
1577030763514,6184750.0
1577030763567,6174380.0
1577030763610,6169303.0
1577030763661,6169553.0
1577030763710,6172198.0
1577030763753,6132477.0
1577030763810,6135212.0
1577030763852,6146724.0
1577030763905,6135383.0
1577030763956,6120955.0
1577030764005,6110134.0
1577030764053,6106154.0
1577030764097,6093275.0
1577030764152,6075930.0
1577030764193,6047809.0
1577030764250,6049245.0
1577030764296,6045740.0
1577030764343,6048373.0
1577030764394,6050818.0
1577030764444,6062451.0
1577030764492,6052321.0
1577030764533,6030577.0
1577030764590,6015640.0
1577030764636,5992484.0
1577030764688,5982431.0
1577030764736,5979333.0
1577030764786,5983189.0
1577030764834,5991602.0
1577030764880,5968432.0
1577030764932,5976189.0
1577030764977,5948940.0
1577030765022,5927310.0
1577030765075,5909873.0
1577030765125,5896521.0
1577030765173,5893026.0
1577030765225,5905554.0
1577030765267,5903022.0
1577030765315,5840617.0
1577030765364,5892008.0
1577030765417,5968229.0
1577030765470,6002649.0
1577030765517,6019734.0
1577030765565,6005859.0
1577030765615,5973871.0
1577030765660,5983855.0
1577030765705,5994337.0
1577030765753,5961807.0
1577030765806,5992145.0
1577030765854,6042370.0
1577030765903,6039306.0
1577030765950,6031075.0
1577030766006,6024913.0
1577030766053,6019689.0
1577030766094,6024120.0
1577030766152,6062248.0
1577030766198,6077637.0
1577030766250,6093263.0
1577030766299,6091353.0
1577030766345,6087350.0
1577030766395,6067494.0
1577030766439,6051303.0
1577030766487,6051709.0
1577030766537,6046407.0
1577030766585,6036987.0
1577030766636,6032296.0
1577030766683,6042699.0
1577030766731,6041319.0
1577030766781,6054481.0
1577030766828,6059591.0
1577030766878,6070028.0
1577030766926,6050828.0
1577030766977,6056403.0
1577030767024,6058699.0
1577030767072,6057069.0
1577030767122,6055261.0
1577030767169,6044101.0
1577030767221,6034738.0
1577030767265,6050478.0
1577030767317,6054875.0
1577030767364,6058540.0
1577030767419,6052014.0
1577030767470,6038119.0
1577030767518,6032952.0
1577030767565,6039397.0
1577030767615,6048249.0
1577030767656,6053812.0
1577030767710,6075127.0
1577030767758,6034060.0
1577030767811,6056064.0
1577030767860,6109716.0
1577030767909,6140968.0
1577030767956,6138107.0
1577030767999,6102784.0
1577030768054,6105860.0
1577030768095,6121587.0
1577030768153,6118558.0
1577030768199,6083640.0
1577030768246,6119564.0
1577030768300,6135281.0
1577030768346,6132894.0
1577030768396,6131957.0
1577030768438,6125263.0
1577030768487,6091331.0
1577030768539,6102491.0
1577030768591,6066161.0
1577030768637,6142801.0
1577030768687,6172413.0
1577030768737,6171960.0
1577030768781,6140019.0
1577030768834,6110348.0
1577030768881,6124946.0
1577030768930,6130452.0
1577030768978,6093964.0
1577030769028,6094169.0
1577030769077,6113684.0
1577030769125,6116059.0
1577030769176,6115063.0
1577030769223,6120061.0
1577030769270,6126008.0
1577030769322,6122741.0
1577030769367,6078904.0
1577030769417,6131086.0
1577030769468,6169835.0
1577030769515,6146600.0
1577030769562,6124822.0
1577030769609,6119757.0
1577030769657,6123849.0
1577030769707,6133573.0
1577030769756,6110722.0
1577030769805,6073092.0
1577030769853,6081312.0
1577030769903,6081527.0
1577030769951,6073646.0
1577030770002,6096022.0
1577030770048,6108279.0
1577030770099,6108064.0
1577030770146,6099764.0
1577030770194,6072945.0
1577030770244,6048363.0
1577030770293,6041691.0
1577030770343,6034488.0
1577030770389,6023273.0
1577030770441,6016692.0
1577030770487,6031888.0
1577030770537,5995389.0
1577030770585,5995434.0
1577030770634,6011593.0
1577030770685,6000896.0
1577030770732,5995786.0
1577030770783,5985891.0
1577030770829,5993207.0
1577030770882,5999313.0
1577030770927,5978022.0
1577030770976,5977931.0
1577030771024,5977004.0
1577030771074,5959330.0
1577030771125,5955429.0
1577030771171,5928214.0
1577030771222,5914995.0
1577030771268,5919473.0
1577030771322,5909422.0
1577030771366,5891161.0
1577030771419,5892981.0
1577030771464,5904875.0
1577030771510,5909670.0
1577030771567,5916476.0
1577030771610,5910631.0
1577030771659,5895954.0
1577030771707,5877174.0
1577030771756,5901066.0
1577030771804,5932974.0
1577030771852,5932149.0
1577030771901,5915991.0
1577030771950,5918445.0
1577030772001,5917450.0
1577030772046,5918579.0
1577030772097,5900692.0
1577030772144,5879411.0
1577030772193,5879649.0
1577030772243,5895570.0
1577030772291,5902683.0
1577030772342,5913311.0
1577030772390,5922062.0
1577030772442,5926507.0
1577030772485,5905588.0
1577030772535,5916194.0
1577030772583,5919949.0
1577030772632,5913413.0
1577030772692,5901777.0
1577030772738,5897120.0
1577030772784,5915845.0
1577030772832,5917405.0
1577030772885,5897199.0
1577030772926,5910462.0
1577030772982,5914678.0
1577030773026,5917155.0
1577030773080,5922661.0
1577030773126,5935518.0
1577030773175,5930973.0
1577030773227,5920241.0
1577030773275,5957002.0
1577030773326,5956640.0
1577030773367,5960960.0
1577030773422,5949133.0
1577030773466,5946034.0
1577030773520,5945524.0
1577030773568,5959444.0
1577030773612,5970718.0
1577030773666,5944496.0
1577030773707,6012170.0
1577030773763,5993998.0
1577030773805,5998352.0
1577030773860,6013559.0
1577030773904,6015345.0
1577030773957,6024460.0
1577030774008,5991137.0
1577030774057,5975625.0
1577030774105,6050297.0
1577030774146,6038639.0
1577030774196,6008584.0
1577030774244,5990064.0
1577030774303,5988593.0
1577030774347,6012779.0
1577030774397,6016262.0
1577030774444,5986944.0
1577030774491,6025319.0
1577030774544,6030793.0
1577030774586,6040346.0
1577030774642,6045118.0
1577030774685,6053701.0
1577030774739,6052794.0
1577030774790,6054593.0
1577030774830,6038119.0
1577030774883,6049143.0
1577030774932,6042416.0
1577030774983,6047957.0
1577030775024,6037530.0
1577030775081,6047831.0
1577030775125,6059387.0
1577030775178,6034253.0
1577030775220,6017777.0
1577030775275,6042619.0
1577030775318,6054773.0
1577030775365,6065629.0
1577030775423,6068998.0
1577030775464,6075432.0
1577030775520,6080690.0
1577030775571,6083189.0
1577030775615,6049562.0
1577030775664,6051551.0
1577030775712,6041975.0
1577030775764,6028846.0
1577030775807,6018297.0
1577030775862,6029956.0
1577030775907,6037089.0
1577030775959,6039657.0
1577030776004,6015969.0
1577030776056,6013108.0
1577030776103,6014431.0
1577030776148,6011989.0
1577030776199,6010461.0
1577030776246,6022582.0
1577030776293,6027954.0
1577030776350,6029186.0
1577030776398,6006855.0
1577030776443,6012044.0
1577030776493,5984568.0
1577030776538,5974312.0
1577030776585,5949064.0
1577030776633,5959875.0
1577030776686,5970129.0
1577030776731,5969101.0
1577030776784,5960405.0
1577030776844,5977185.0
1577030776896,5969009.0
1577030776963,5972152.0
1577030776975,5958290.0
1577030777033,5950488.0
1577030777078,5956675.0
1577030777122,5955974.0
1577030777172,5942337.0
1577030777217,5946000.0
1577030777269,5933257.0
1577030777319,5932048.0
1577030777366,5897526.0
1577030777419,5891894.0
1577030777472,5884793.0
1577030777510,5875015.0
1577030777566,5875354.0
1577030777614,5866126.0
1577030777665,5883969.0
1577030777708,5891206.0
1577030777761,5879220.0
1577030777810,5865142.0
1577030777858,5869700.0
1577030777907,5873137.0
1577030777956,5854084.0
1577030778004,5838945.0
1577030778053,5821452.0
1577030778103,5810564.0
1577030778150,5815346.0
1577030778199,5806878.0
1577030778249,5803485.0
1577030778297,5802229.0
1577030778347,5786999.0
1577030778395,5778972.0
1577030778444,5783448.0
1577030778487,5796270.0
1577030778541,5791059.0
1577030778593,5798272.0
1577030778639,5801157.0
1577030778688,5802479.0
1577030778737,5777546.0
1577030778785,5759658.0
1577030778829,5745637.0
1577030778883,5749640.0
1577030778931,5739351.0
1577030778980,5749471.0
1577030779028,5755068.0
1577030779077,5748396.0
1577030779127,5723487.0
1577030779175,5701134.0
1577030779223,5705000.0
1577030779268,5703361.0
1577030779324,5708653.0
1577030779374,5719677.0
1577030779419,5729865.0
1577030779467,5741149.0
1577030779517,5700772.0
1577030779565,5764272.0
1577030779612,5759579.0
1577030779664,5719801.0
1577030779711,5725149.0
1577030779761,5723804.0
1577030779810,5755046.0
1577030779851,5759918.0
1577030779907,5780587.0
1577030779954,5787361.0
1577030780006,5782328.0
1577030780051,5779797.0
1577030780104,5792188.0
1577030780147,5797741.0
1577030780195,5807884.0
1577030780249,5778677.0
1577030780297,5820944.0
1577030780346,5838289.0
1577030780394,5808518.0
1577030780443,5796282.0
1577030780493,5782432.0
1577030780542,5812746.0
1577030780589,5827366.0
1577030780639,5843829.0
1577030780687,5823294.0
1577030780734,5815233.0
1577030780786,5809726.0
1577030780832,5812971.0
1577030780885,5811909.0
1577030780930,5834873.0
1577030780980,5869316.0
1577030781029,5863877.0
1577030781077,5761523.0
1577030781126,5787666.0
1577030781170,5780079.0
1577030781225,5785575.0
1577030781273,5762836.0
1577030781322,5775002.0
1577030781369,5785518.0
1577030781412,5805214.0
1577030781468,5826178.0
1577030781514,5835597.0
1577030781566,5856290.0
1577030781616,5864476.0
1577030781655,5861977.0
1577030781705,5851597.0
1577030781753,5859884.0
1577030781804,5814363.0
1577030781852,5778531.0
1577030781899,5742053.0
1577030781949,5755316.0
1577030781997,5759059.0
1577030782056,5737937.0
1577030782102,5733867.0
1577030782149,5716012.0
1577030782193,5746724.0
1577030782244,5704277.0
1577030782293,5691838.0
1577030782342,5681481.0
1577030782391,5694077.0
1577030782442,5711254.0
1577030782490,5717788.0
1577030782541,5713458.0
1577030782588,5724413.0
1577030782631,5698045.0
1577030782687,5694303.0
1577030782732,5700386.0
1577030782784,5693941.0
1577030782832,5690300.0
1577030782882,5694610.0
1577030782930,5685800.0
1577030782978,5690481.0
1577030783028,5655147.0
1577030783073,5644212.0
1577030783127,5659318.0
1577030783177,5681493.0
1577030783223,5686174.0
1577030783266,5707668.0
1577030783321,5768433.0
1577030783369,5755747.0
1577030783413,5713830.0
1577030783466,5674766.0
1577030783517,5669010.0
1577030783564,5679016.0
1577030783611,5647209.0
1577030783663,5681391.0
1577030783710,5702412.0
1577030783758,5714045.0
1577030783808,5688651.0
1577030783856,5669495.0
1577030783905,5659194.0
1577030783953,5663345.0
1577030784003,5689148.0
1577030784045,5708686.0
1577030784094,5708267.0
1577030784149,5709941.0
1577030784192,5676019.0
1577030784242,5655747.0
1577030784295,5647345.0
1577030784341,5639261.0
1577030784388,5645807.0
1577030784436,5652219.0
1577030784483,5641012.0
1577030784535,5613118.0
1577030784585,5616896.0
1577030784635,5621723.0
1577030784683,5612440.0
1577030784730,5607125.0
1577030784780,5614815.0
1577030784831,5613074.0
1577030784882,5592687.0
1577030784929,5589465.0
1577030784975,5570830.0
1577030785026,5564893.0
1577030785079,5556549.0
1577030785125,5550082.0
1577030785172,5546802.0
1577030785223,5539679.0
1577030785266,5523476.0
1577030785313,5513571.0
1577030785369,5513073.0
1577030785420,5521044.0
1577030785467,5528360.0
1577030785514,5529537.0
1577030785564,5540652.0
1577030785611,5523590.0
1577030785662,5473227.0
1577030785709,5425353.0
1577030785758,5418229.0
1577030785806,5409863.0
1577030785855,5413818.0
1577030785906,5438378.0
1577030785953,5411886.0
1577030785998,5405915.0
1577030786046,5391341.0
1577030786096,5379854.0
1577030786149,5397028.0
1577030786198,5415267.0
1577030786243,5436548.0
1577030786293,5451540.0
1577030786338,5467867.0
1577030786392,5417122.0
1577030786437,5347074.0
1577030786490,5299244.0
1577030786542,5310157.0
1577030786586,5322989.0
1577030786636,5321610.0
1577030786680,5345932.0
1577030786733,5342890.0
1577030786776,5363017.0
1577030786824,5358472.0
1577030786876,5343626.0
1577030786922,5369518.0
1577030786970,5366081.0
1577030787027,5375928.0
1577030787074,5395988.0
1577030787124,5402502.0
1577030787172,5328304.0
1577030787218,5355079.0
1577030787269,5353530.0
1577030787322,5346655.0
1577030787367,5355995.0
1577030787416,5364634.0
1577030787462,5372357.0
1577030787513,5377670.0
1577030787557,5387780.0
1577030787607,5386388.0
1577030787656,5395525.0
1577030787705,5409568.0
1577030787753,5420808.0
1577030787800,5419123.0
1577030787855,5450024.0
1577030787904,5474098.0
1577030787952,5485947.0
1577030788001,5469043.0
1577030788045,5479265.0
1577030788099,5482002.0
1577030788147,5487609.0
1577030788196,5473284.0
1577030788245,5480261.0
1577030788293,5489905.0
1577030788339,5502297.0
1577030788390,5502772.0
1577030788441,5502976.0
1577030788489,5523149.0
1577030788537,5539000.0
1577030788587,5554220.0
1577030788633,5568546.0
1577030788686,5586275.0
1577030788731,5590357.0
1577030788784,5573373.0
1577030788829,5592586.0
1577030788879,5588955.0
1577030788927,5593116.0
1577030788976,5579367.0
1577030789025,5583664.0
1577030789073,5596021.0
1577030789121,5604311.0
1577030789166,5601121.0
1577030789222,5608324.0
1577030789269,5629854.0
1577030789316,5645423.0
1577030789362,5655170.0
1577030789415,5658109.0
1577030789462,5670966.0
1577030789511,5680644.0
1577030789563,5665899.0
1577030789610,5678226.0
1577030789660,5674528.0
1577030789707,5678959.0
1577030789756,5676767.0
1577030789800,5681572.0
1577030789854,5686479.0
1577030789903,5660111.0
1577030789953,5678508.0
1577030790003,5652140.0
1577030790045,5676054.0
1577030790099,5702761.0
1577030790149,5695130.0
1577030790195,5707950.0
1577030790241,5726823.0
1577030790294,5745129.0
1577030790342,5771351.0
1577030790391,5864171.0
1577030790441,5918138.0
1577030790492,5933460.0
1577030790538,5942121.0
1577030790586,5938525.0
1577030790635,5937509.0
1577030790681,5945254.0
1577030790732,5932714.0
1577030790782,5916669.0
1577030790829,5887530.0
1577030790879,5921068.0
1577030790927,5942936.0
1577030790976,5941930.0
1577030791024,5949539.0
1577030791067,5955464.0
1577030791126,5951981.0
1577030791170,5934285.0
1577030791220,5904117.0
1577030791263,5931414.0
1577030791317,5928259.0
1577030791363,5929683.0
1577030791415,5927852.0
1577030791466,5938458.0
1577030791512,5941613.0
1577030791563,5915585.0
1577030791611,5874007.0
1577030791659,5895389.0
1577030791703,5907419.0
1577030791757,5926247.0
1577030791807,5939533.0
1577030791854,5955248.0
1577030791908,5954039.0
1577030791952,5917348.0
1577030792002,5883958.0
1577030792046,5885133.0
1577030792099,5890267.0
1577030792142,5895740.0
1577030792196,5893829.0
1577030792248,5902275.0
1577030792293,5912779.0
1577030792348,5883788.0
1577030792392,5848748.0
1577030792441,5832194.0
1577030792484,5828100.0
1577030792538,5843512.0
1577030792582,5842371.0
1577030792636,5836513.0
1577030792684,5855069.0
1577030792726,5842846.0
1577030792780,5796939.0
1577030792824,5795004.0
1577030792876,5809330.0
1577030792924,5797697.0
1577030792973,5788334.0
1577030793024,5770910.0
1577030793070,5786796.0
1577030793120,5785620.0
1577030793168,5771859.0
1577030793217,5735881.0
1577030793265,5721679.0
1577030793314,5725444.0
1577030793363,5730261.0
1577030793412,5722424.0
1577030793466,5730566.0
1577030793509,5740086.0
1577030793561,5710541.0
1577030793607,5673441.0
1577030793661,5670491.0
1577030793708,5652502.0
1577030793758,5640933.0
1577030793806,5631130.0
1577030793851,5639137.0
1577030793907,5629389.0
1577030793946,5621193.0
1577030794003,5587835.0
1577030794046,5563446.0
1577030794100,5555837.0
1577030794144,5564826.0
1577030794196,5563729.0
1577030794250,5583008.0
1577030794294,5594619.0
1577030794347,5540289.0
1577030794392,5513356.0
1577030794441,5572662.0
1577030794488,5570389.0
1577030794538,5569225.0
1577030794587,5567788.0
1577030794636,5566273.0
1577030794685,5585133.0
1577030794733,5585099.0
1577030794784,5542087.0
1577030794831,5550691.0
1577030794881,5547910.0
1577030794927,5558211.0
1577030794977,5561547.0
1577030795030,5514871.0
1577030795075,5508144.0
1577030795126,5480578.0
1577030795172,5451619.0
1577030795222,5442777.0
1577030795266,5469608.0
1577030795318,5477048.0
1577030795369,5479367.0
1577030795416,5485529.0
1577030795466,5491996.0
1577030795513,5500895.0
1577030795564,5469246.0
1577030795612,5463649.0
1577030795661,5473861.0
1577030795707,5489351.0
1577030795758,5499867.0
1577030795811,5497853.0
1577030795855,5508776.0
1577030795904,5486819.0
1577030795946,5476630.0
1577030796002,5458460.0
1577030796044,5487079.0
1577030796094,5497662.0
1577030796150,5491827.0
1577030796192,5490606.0
1577030796246,5513762.0
1577030796289,5508392.0
1577030796346,5468070.0
1577030796388,5475557.0
1577030796441,5491726.0
1577030796486,5510009.0
1577030796537,5499302.0
1577030796586,5472798.0
1577030796635,5436932.0
1577030796678,5406017.0
1577030796727,5394145.0
1577030796776,5398871.0
1577030796826,5414656.0
1577030796873,5440008.0
1577030796926,5447255.0
1577030796970,5450487.0
1577030797019,5473442.0
1577030797067,5491069.0
1577030797117,5435020.0
1577030797165,5425930.0
1577030797215,5466430.0
1577030797266,5518104.0
1577030797311,5580804.0
1577030797363,5579999.0
1577030797412,5569212.0
1577030797460,5418093.0
1577030797509,5381142.0
1577030797559,5411604.0
1577030797608,5441861.0
1577030797655,5456707.0
1577030797705,5489080.0
1577030797757,5519315.0
1577030797807,5526133.0
1577030797848,5390730.0
1577030797904,5409511.0
1577030797946,5460801.0
1577030798002,5488717.0
1577030798052,5541997.0
1577030798098,5543308.0
1577030798147,5526042.0
1577030798191,5436253.0
1577030798239,5385484.0
1577030798288,5422006.0
1577030798341,5444835.0
1577030798388,5464194.0
1577030798434,5505531.0
1577030798488,5510133.0
1577030798536,5524402.0
1577030798586,5354863.0
1577030798634,5360428.0
1577030798685,5417754.0
1577030798727,5422695.0
1577030798782,5390336.0
1577030798829,5391217.0
1577030798879,5382714.0
1577030798927,5339385.0
1577030798973,5249934.0
1577030799026,5301337.0
1577030799074,5312790.0
1577030799123,5324153.0
1577030799175,5334647.0
1577030799220,5356674.0
1577030799269,5337858.0
1577030799311,5248091.0
1577030799368,5238944.0
1577030799414,5284772.0
1577030799464,5308698.0
1577030799510,5294179.0
1577030799563,5284443.0
1577030799615,5269089.0
1577030799660,5190198.0
1577030799708,5099245.0
1577030799758,5154718.0
1577030799807,5193728.0
1577030799853,5208257.0
1577030799905,5216975.0
1577030799954,5224641.0
1577030800001,5157499.0
1577030800050,5097400.0
1577030800094,5184375.0
1577030800148,5193975.0
1577030800192,5203766.0
1577030800248,5205792.0
1577030800291,5202954.0
1577030800343,5171328.0
1577030800393,5083562.0
1577030800442,5038413.0
1577030800489,5140561.0
1577030800538,5190674.0
1577030800587,5203350.0
1577030800636,5200940.0
1577030800681,5198171.0
1577030800732,5175590.0
1577030800782,5085925.0
1577030800825,5118545.0
1577030800880,5143377.0
1577030800924,5179298.0
1577030800974,5182510.0
1577030801023,5169834.0
1577030801073,5116172.0
1577030801125,5033053.0
1577030801176,4984149.0
1577030801225,5030383.0
1577030801270,5129480.0
1577030801314,5155350.0
1577030801369,5147526.0
1577030801412,5140323.0
1577030801466,5091783.0
1577030801517,4994722.0
1577030801564,5086988.0
1577030801611,5110042.0
1577030801657,5133606.0
1577030801703,5151652.0
1577030801754,5099832.0
1577030801804,4953585.0
1577030801853,4920547.0
1577030801900,4921927.0
1577030801955,5033595.0
1577030802003,5053655.0
1577030802050,5059795.0
1577030802100,5082827.0
1577030802148,5085517.0
1577030802192,5024867.0
1577030802243,4863232.0
1577030802293,4894868.0
1577030802345,5003156.0
1577030802393,5025194.0
1577030802443,5038604.0
1577030802490,5038604.0
1577030802539,4999606.0
1577030802588,4914645.0
1577030802633,4836343.0
1577030802686,4866793.0
1577030802736,4970118.0
1577030802779,4993850.0
1577030802829,4997310.0
1577030802877,5007205.0
1577030802929,5003530.0
1577030802980,4868512.0
1577030803028,4815685.0
1577030803074,4825567.0
1577030803125,4900069.0
1577030803177,4984580.0
1577030803224,4987225.0
1577030803272,5009444.0
1577030803322,4971688.0
1577030803371,4824492.0
1577030803416,4808313.0
1577030803469,4820569.0
1577030803518,4894732.0
1577030803566,4931571.0
1577030803613,4990108.0
1577030803663,5004808.0
1577030803711,5013288.0
1577030803755,4921394.0
1577030803809,4823645.0
1577030803855,4856334.0
1577030803906,4912847.0
1577030803957,4957600.0
1577030804005,4960936.0
1577030804052,4971926.0
1577030804099,4965424.0
1577030804150,4932012.0
1577030804195,4908188.0
1577030804248,4897978.0
1577030804297,4911863.0
1577030804348,4929038.0
1577030804394,4953169.0
1577030804443,4948679.0
1577030804492,4965424.0
1577030804543,4921293.0
1577030804589,4813129.0
1577030804636,4805577.0
1577030804687,4901709.0
1577030804739,4939814.0
1577030804786,4959839.0
1577030804834,4966804.0
1577030804884,4944698.0
1577030804931,4849245.0
1577030804979,4776088.0
1577030805029,4732578.0
1577030805082,4745921.0
1577030805127,4764078.0
1577030805175,4801166.0
1577030805225,4895479.0
1577030805273,4935529.0
1577030805324,4919168.0
1577030805368,4788130.0
1577030805415,4751516.0
1577030805470,4793364.0
1577030805522,4864520.0
1577030805568,4923205.0
1577030805615,4948012.0
1577030805665,4969880.0
1577030805713,4961603.0
1577030805757,4870796.0
1577030805810,4820197.0
1577030805855,4839543.0
1577030805908,4897582.0
1577030805962,4947943.0
1577030806006,4989419.0
1577030806055,4998747.0
1577030806099,5026562.0
1577030806150,5000216.0
1577030806197,4887009.0
1577030806247,4910573.0
1577030806297,4954615.0
1577030806344,4988966.0
1577030806393,4998284.0
1577030806446,5010336.0
1577030806493,4984817.0
1577030806544,4877015.0
1577030806591,4840821.0
1577030806636,4844879.0
1577030806684,4912327.0
1577030806738,4947299.0
1577030806783,4974075.0
1577030806830,5007906.0
1577030806882,5026200.0
1577030806928,4985392.0
1577030806983,4836195.0
1577030807030,4846077.0
1577030807080,4888955.0
1577030807128,4989159.0
1577030807178,5040300.0
1577030807226,5048848.0
1577030807268,5040176.0
1577030807322,4921226.0
1577030807366,4890617.0
1577030807416,4902139.0
1577030807470,4961523.0
1577030807522,5002150.0
1577030807568,5038423.0
1577030807617,5064248.0
1577030807667,5085167.0
1577030807714,5036389.0
1577030807763,4902546.0
1577030807812,4932770.0
1577030807860,4989521.0
1577030807909,5083753.0
1577030807958,5111027.0
1577030808008,5118545.0
1577030808056,5111919.0
1577030808099,4997412.0
1577030808153,4945739.0
1577030808200,4972344.0
1577030808250,5045863.0
1577030808302,5066646.0
1577030808349,5110552.0
1577030808399,5124821.0
1577030808448,5151122.0
1577030808496,5100680.0
1577030808544,4971723.0
1577030808594,4993670.0
1577030808642,5075555.0
1577030808691,5117324.0
1577030808743,5120184.0
1577030808790,5138379.0
1577030808837,5128348.0
1577030808888,5063310.0
1577030808935,4976664.0
1577030808979,5021202.0
1577030809032,5130067.0
1577030809083,5148578.0
1577030809130,5169802.0
1577030809180,5177975.0
1577030809224,5192482.0
1577030809277,5148407.0
1577030809327,5030950.0
1577030809375,5060677.0
1577030809424,5119166.0
1577030809471,5159149.0
1577030809523,5170084.0
1577030809570,5168524.0
1577030809620,5092551.0
1577030809662,5008696.0
1577030809716,5000228.0
1577030809766,5016454.0
1577030809814,5065120.0
1577030809865,5098465.0
1577030809912,5153802.0
1577030809960,5188898.0
1577030810010,5170503.0
1577030810058,5041239.0
1577030810101,5020875.0
1577030810156,5106039.0
1577030810203,5136524.0
1577030810253,5161094.0
1577030810303,5162711.0
1577030810351,5150193.0
1577030810402,5017031.0
1577030810449,4989159.0
1577030810494,5004027.0
1577030810545,5018093.0
1577030810595,5025511.0
1577030810646,5085982.0
1577030810693,5139102.0
1577030810742,5158369.0
1577030810789,5125115.0
1577030810839,4986693.0
1577030810882,4993489.0
1577030810936,5006425.0
1577030810984,5076776.0
1577030811034,5155238.0
1577030811088,5142607.0
1577030811131,5144868.0
1577030811182,5009397.0
1577030811224,4965605.0
1577030811272,4964327.0
1577030811322,4976030.0
1577030811369,4977704.0
1577030811423,5000409.0
1577030811466,5057895.0
1577030811523,5091691.0
1577030811564,5047988.0
1577030811621,4930440.0
1577030811662,4936287.0
1577030811711,4950692.0
1577030811765,5071339.0
1577030811810,5062304.0
1577030811863,5083448.0
1577030811909,5094032.0
1577030811960,5070988.0
1577030812006,4972129.0
1577030812054,4913513.0
1577030812102,4898001.0
1577030812157,4954886.0
1577030812202,4987688.0
1577030812254,4989464.0
1577030812303,4993454.0
1577030812351,4979039.0
1577030812401,4866318.0
1577030812446,4831390.0
1577030812492,4863232.0
1577030812542,4976290.0
1577030812591,5003101.0
1577030812645,5004773.0
1577030812688,5006571.0
1577030812743,5008877.0
1577030812791,4822830.0
1577030812841,4824098.0
1577030812888,4842630.0
1577030812938,4826630.0
1577030812985,4858686.0
1577030813036,4858109.0
1577030813088,4857577.0
1577030813133,4751620.0
1577030813183,4696202.0
1577030813231,4757046.0
1577030813280,4844688.0
1577030813325,4861998.0
1577030813378,4869892.0
1577030813429,4879831.0
1577030813475,4786988.0
1577030813523,4664340.0
1577030813572,4643307.0
1577030813622,4725227.0
1577030813670,4766250.0
1577030813720,4770547.0
1577030813766,4801913.0
1577030813817,4844304.0
1577030813870,4850352.0
1577030813915,4806129.0
1577030813964,4698814.0
1577030814012,4729977.0
1577030814062,4779298.0
1577030814111,4867370.0
1577030814159,4916104.0
1577030814206,4922378.0
1577030814250,4877568.0
1577030814302,4786840.0
1577030814349,4748509.0
1577030814400,4766114.0
1577030814447,4784048.0
1577030814502,4792811.0
1577030814548,4800160.0
1577030814599,4809478.0
1577030814650,4813049.0
1577030814696,4694507.0
1577030814746,4705078.0
1577030814794,4718409.0
1577030814845,4758064.0
1577030814892,4818964.0
1577030814943,4824041.0
1577030814987,4841837.0
1577030815040,4838152.0
1577030815086,4796621.0
1577030815139,4751075.0
1577030815186,4814939.0
1577030815235,4813740.0
1577030815286,4823769.0
1577030815333,4819370.0
1577030815384,4855497.0
1577030815427,4889939.0
1577030815479,4834466.0
1577030815528,4785483.0
1577030815576,4803157.0
1577030815623,4835189.0
1577030815675,4885812.0
1577030815724,4961298.0
1577030815771,4975997.0
1577030815822,4927343.0
1577030815869,4853451.0
1577030815920,4816465.0
1577030815972,4874323.0
1577030816017,4874833.0
1577030816066,4877433.0
1577030816116,4883742.0
1577030816164,4913751.0
1577030816206,4931289.0
1577030816261,4896542.0
1577030816312,4873250.0
1577030816361,4890300.0
1577030816408,4941127.0
1577030816456,5045818.0
1577030816505,5050262.0
1577030816554,5042234.0
1577030816602,4923306.0
1577030816646,4867618.0
1577030816701,4872990.0
1577030816750,4907284.0
1577030816798,4928644.0
1577030816848,4935111.0
1577030816892,4937565.0
1577030816946,4948815.0
1577030816994,4962531.0
1577030817043,4917414.0
1577030817092,4866023.0
1577030817142,4873904.0
1577030817190,4926823.0
1577030817239,4970016.0
1577030817281,4971316.0
1577030817336,4972617.0
1577030817386,4943026.0
1577030817434,4913570.0
1577030817484,4923928.0
1577030817526,4953620.0
1577030817575,4962744.0
1577030817627,4965560.0
1577030817675,4983279.0
1577030817724,5004424.0
1577030817772,4958199.0
1577030817819,4931165.0
1577030817870,4938942.0
1577030817920,4965979.0
1577030817971,5088152.0
1577030818017,5110948.0
1577030818065,5114250.0
1577030818114,5101482.0
1577030818163,4961637.0
1577030818212,4950725.0
1577030818262,4964498.0
1577030818311,4962519.0
1577030818360,4959364.0
1577030818409,4972988.0
1577030818456,5016521.0
1577030818505,5011557.0
1577030818553,4931390.0
1577030818603,4905339.0
1577030818655,4931854.0
1577030818705,5010811.0
1577030818747,5084036.0
1577030818804,5095320.0
1577030818853,5097378.0
1577030818899,5029050.0
1577030818948,4931707.0
1577030818997,4888638.0
1577030819046,4893307.0
1577030819095,4908143.0
1577030819143,4914746.0
1577030819192,4951358.0
1577030819242,4989090.0
1577030819289,4992109.0
1577030819332,4881062.0
1577030819387,4846870.0
1577030819437,4885699.0
1577030819485,4944562.0
1577030819529,5014034.0
1577030819583,5022277.0
1577030819634,5008810.0
1577030819680,4874957.0
1577030819729,4817302.0
1577030819778,4808980.0
1577030819827,4872492.0
1577030819874,4951856.0
1577030819925,4981560.0
1577030819975,4992845.0
1577030820017,5019168.0
1577030820064,5017516.0
1577030820114,4932057.0
1577030820164,4927059.0
1577030820214,4942177.0
1577030820263,4954672.0
1577030820314,5059726.0
1577030820362,4832601.0
1577030820416,4806763.0
1577030820463,4774030.0
1577030820510,4726629.0
1577030820560,4716771.0
1577030820609,4772276.0
1577030820656,4807375.0
1577030820707,4816566.0
1577030820749,4828881.0
1577030820804,4835043.0
1577030820854,4718252.0
1577030820904,4665222.0
1577030820949,4731357.0
1577030820999,4748011.0
1577030821043,4761762.0
1577030821097,4757443.0
1577030821146,4778666.0
1577030821193,4710245.0
1577030821243,4626314.0
1577030821291,4612270.0
1577030821337,4643953.0
1577030821390,4704796.0
1577030821435,4726064.0
1577030821483,4735709.0
1577030821531,4749945.0
1577030821587,4702817.0
1577030821635,4660404.0
1577030821683,4690673.0
1577030821731,4662168.0
1577030821781,4749696.0
1577030821829,4773227.0
1577030821879,4786602.0
1577030821928,4773329.0
1577030821976,4703213.0
1577030822021,4650363.0
1577030822078,4705145.0
1577030822122,4739679.0
1577030822170,4745988.0
1577030822217,4740888.0
1577030822269,4756232.0
1577030822314,4752816.0
1577030822370,4659047.0
1577030822417,4625940.0
1577030822465,4686592.0
1577030822512,4706753.0
1577030822563,4720987.0
1577030822610,4728303.0
1577030822661,4722366.0
1577030822708,4690616.0
1577030822752,4623441.0
1577030822805,4634601.0
1577030822856,4669224.0
1577030822904,4667912.0
1577030822952,4664261.0
1577030823003,4681955.0
1577030823046,4690639.0
1577030823097,4639114.0
1577030823148,4508109.0
1577030823192,4553868.0
1577030823246,4585811.0
1577030823293,4622514.0
1577030823340,4634093.0
1577030823393,4636897.0
1577030823444,4591475.0
1577030823490,4564067.0
1577030823541,4511737.0
1577030823588,4534727.0
1577030823635,4641194.0
1577030823686,4644528.0
1577030823734,4649618.0
1577030823784,4653145.0
1577030823832,4652275.0
1577030823881,4578519.0
1577030823929,4512802.0
1577030823976,4555361.0
1577030824029,4611862.0
1577030824078,4650658.0
1577030824125,4666160.0
1577030824174,4661613.0
1577030824223,4596033.0
1577030824266,4555475.0
1577030824316,4536389.0
1577030824363,4617843.0
1577030824417,4621078.0
1577030824463,4614475.0
1577030824517,4617189.0
1577030824561,4614383.0
1577030824613,4567866.0
1577030824657,4507420.0
1577030824711,4515254.0
1577030824754,4549674.0
1577030824808,4590742.0
1577030824860,4638740.0
1577030824906,4631401.0
1577030824956,4603688.0
1577030824998,4551698.0
1577030825046,4490707.0
1577030825097,4534974.0
1577030825144,4602873.0
1577030825194,4633843.0
1577030825242,4654017.0
1577030825295,4655622.0
1577030825342,4608199.0
1577030825391,4546033.0
1577030825444,4511331.0
1577030825492,4540131.0
1577030825543,4573350.0
1577030825590,4588050.0
1577030825638,4591703.0
1577030825688,4583482.0
1577030825737,4523351.0
1577030825786,4477149.0
1577030825834,4462699.0
1577030825884,4524686.0
1577030825932,4531061.0
1577030825983,4538660.0
1577030826030,4541702.0
1577030826079,4551891.0
1577030826128,4493659.0
1577030826176,4397649.0
1577030826227,4407011.0
1577030826274,4435145.0
1577030826325,4439950.0
1577030826374,4459353.0
1577030826420,4479717.0
1577030826469,4475318.0
1577030826521,4407340.0
1577030826567,4344066.0
1577030826615,4370523.0
1577030826666,4427184.0
1577030826713,4430157.0
1577030826765,4435957.0
1577030826811,4443172.0
1577030826862,4436116.0
1577030826914,4343511.0
1577030826953,4306807.0
1577030827000,4372423.0
1577030827055,4420083.0
1577030827099,4445773.0
1577030827148,4417584.0
1577030827200,4352715.0
1577030827247,4333742.0
1577030827299,4327320.0
1577030827344,4307939.0
1577030827399,4308935.0
1577030827447,4359952.0
1577030827495,4414577.0
1577030827545,4436715.0
1577030827592,4464044.0
1577030827640,4420807.0
1577030827690,4337009.0
1577030827740,4310020.0
1577030827788,4320796.0
1577030827838,4349990.0
1577030827888,4364814.0
1577030827935,4375929.0
1577030827980,4380192.0
1577030828033,4336353.0
1577030828080,4262225.0
1577030828130,4238705.0
1577030828180,4269574.0
1577030828229,4279468.0
1577030828276,4319959.0
1577030828324,4327003.0
1577030828378,4342889.0
1577030828422,4310156.0
1577030828475,4210923.0
1577030828519,4157397.0
1577030828562,4180451.0
1577030828612,4206096.0
1577030828661,4254433.0
1577030828710,4248350.0
1577030828761,4250170.0
1577030828808,4122571.0
1577030828861,4039474.0
1577030828909,4042063.0
1577030828963,4078630.0
1577030829010,4089022.0
1577030829059,4075036.0
1577030829107,4081129.0
1577030829155,4073498.0
1577030829200,4048475.0
1577030829254,3963637.0
1577030829303,3993579.0
1577030829347,4040232.0
1577030829401,4078756.0
1577030829449,4081932.0
1577030829498,4075408.0
1577030829546,3992076.0
1577030829595,3948554.0
1577030829644,3924673.0
1577030829691,3962721.0
1577030829741,3985403.0
1577030829790,4014102.0
1577030829841,4058776.0
1577030829888,4077206.0
1577030829938,4061433.0
1577030829982,3967945.0
1577030830036,3918624.0
1577030830085,3977398.0
1577030830133,4004626.0
1577030830187,4035890.0
1577030830231,4043261.0
1577030830281,4050159.0
1577030830325,4002364.0
1577030830380,3961693.0
1577030830423,3915300.0
1577030830472,3963491.0
1577030830525,3983548.0
1577030830570,3973170.0
1577030830624,3975974.0
1577030830671,3989894.0
1577030830720,3966589.0
1577030830763,3905021.0
1577030830817,3898611.0
1577030830863,3979593.0
1577030830915,4045988.0
1577030830967,4097729.0
1577030831013,4116362.0
1577030831062,4134658.0
1577030831110,4080079.0
1577030831160,3968024.0
1577030831203,3933527.0
1577030831258,3995615.0
1577030831304,4047288.0
1577030831350,4076346.0
1577030831407,4103688.0
1577030831452,4126268.0
1577030831501,4122130.0
1577030831549,4026483.0
1577030831599,3986354.0
1577030831643,4067234.0
1577030831692,4128631.0
1577030831746,4196949.0
1577030831794,4214938.0
1577030831844,4219530.0
1577030831891,4173293.0
1577030831942,4051177.0
1577030831990,4018805.0
1577030832039,4050204.0
1577030832081,4099797.0
1577030832137,4132215.0
1577030832187,4166182.0
1577030832234,4170648.0
1577030832282,4095670.0
1577030832331,4064824.0
1577030832385,4138536.0
1577030832427,4194574.0
1577030832479,4253653.0
1577030832521,4256796.0
1577030832576,4202026.0
1577030832627,4108040.0
1577030832673,4061681.0
1577030832722,4117766.0
1577030832771,4174539.0
1577030832820,4187066.0
1577030832865,4195433.0
1577030832918,4220852.0
1577030832967,4186093.0
1577030833016,4060324.0
1577030833064,4077240.0
1577030833113,4183426.0
1577030833164,4251030.0
1577030833209,4294213.0
1577030833261,4320591.0
1577030833304,4320038.0
1577030833353,4293071.0
1577030833410,4198465.0
1577030833455,4200397.0
1577030833499,4225883.0
1577030833551,4278609.0
1577030833604,4295434.0
1577030833648,4287937.0
1577030833700,4281740.0
1577030833744,4243421.0
1577030833797,4222547.0
1577030833851,4248813.0
1577030833895,4317289.0
1577030833945,4345943.0
1577030833992,4360529.0
1577030834042,4370783.0
1577030834085,4357894.0
1577030834140,4285653.0
1577030834188,4227478.0
1577030834237,4262202.0
1577030834291,4315515.0
1577030834335,4316283.0
1577030834387,4332940.0
1577030834433,4337304.0
1577030834482,4330961.0
1577030834527,4234126.0
1577030834579,4197650.0
1577030834630,4285257.0
1577030834676,4306299.0
1577030834726,4326924.0
1577030834774,4330282.0
1577030834820,4325284.0
1577030834871,4241160.0
1577030834922,4171180.0
1577030834965,4195354.0
1577030835019,4218522.0
1577030835070,4259669.0
1577030835116,4299966.0
1577030835166,4306062.0
1577030835215,4310416.0
1577030835264,4204478.0
1577030835305,4157724.0
1577030835357,4166204.0
1577030835410,4223453.0
1577030835452,4275805.0
1577030835510,4324910.0
1577030835553,4355870.0
1577030835602,4335731.0
1577030835650,4262235.0
1577030835700,4246653.0
1577030835752,4259929.0
1577030835802,4301630.0
1577030835849,4322797.0
1577030835899,4334726.0
1577030835949,4370094.0
1577030835996,4380021.0
1577030836046,4304219.0
1577030836090,4274560.0
1577030836144,4353145.0
1577030836186,4424435.0
1577030836241,4486704.0
1577030836292,4512406.0
1577030836339,4517709.0
1577030836390,4480814.0
1577030836437,4389361.0
1577030836486,4358255.0
1577030836535,4422085.0
1577030836583,4431221.0
1577030836626,4435913.0
1577030836682,4448339.0
1577030836731,4464577.0
1577030836778,4445094.0
1577030836828,4382498.0
1577030836875,4356028.0
1577030836925,4416430.0
1577030836973,4431809.0
1577030837023,4478110.0
1577030837068,4476889.0
1577030837122,4485676.0
1577030837173,4468975.0
1577030837218,4417958.0
1577030837267,4392844.0
1577030837316,4448056.0
1577030837361,4484567.0
1577030837408,4497763.0
1577030837457,4524527.0
1577030837511,4530497.0
1577030837554,4529288.0
1577030837609,4437134.0
1577030837652,4431028.0
1577030837701,4471474.0
1577030837749,4502194.0
1577030837798,4552466.0
1577030837848,4538989.0
1577030837902,4536082.0
1577030837951,4458877.0
1577030838001,4406097.0
1577030838049,4381832.0
1577030838093,4432069.0
1577030838147,4477580.0
1577030838191,4488049.0
1577030838245,4503304.0
1577030838288,4507747.0
1577030838345,4462642.0
1577030838394,4367142.0
1577030838441,4355417.0
1577030838488,4404061.0
1577030838539,4431662.0
1577030838586,4456661.0
1577030838631,4461704.0
1577030838681,4406853.0
1577030838730,4357126.0
1577030838779,4337881.0
1577030838830,4322401.0
1577030838876,4350193.0
1577030838925,4373361.0
1577030838974,4404920.0
1577030839023,4448849.0
1577030839072,4453258.0
1577030839121,4400408.0
1577030839172,4327533.0
1577030839219,4345376.0
1577030839266,4432442.0
1577030839316,4470580.0
1577030839365,4475375.0
1577030839413,4482848.0
1577030839463,4415006.0
1577030839509,4346949.0
1577030839561,4275600.0
1577030839616,4317289.0
1577030839663,4383187.0
1577030839709,4404004.0
1577030839760,4425500.0
1577030839808,4434048.0
1577030839858,4428925.0
1577030839905,4354840.0
1577030839956,4276979.0
1577030840005,4334421.0
1577030840051,4381651.0
1577030840098,4436500.0
1577030840150,4458890.0
1577030840195,4455383.0
1577030840248,4410540.0
1577030840298,4332499.0
1577030840346,4280496.0
1577030840389,4311466.0
1577030840444,4349255.0
1577030840496,4370728.0
1577030840544,4389859.0
1577030840590,4392504.0
1577030840641,4378292.0
1577030840688,4297977.0
1577030840736,4274074.0
1577030840786,4350285.0
1577030840833,4386568.0
1577030840885,4422627.0
1577030840935,4439033.0
1577030840982,4415922.0
1577030841030,4387281.0
1577030841074,4319280.0
1577030841128,4302726.0
1577030841172,4359489.0
1577030841222,4415435.0
1577030841272,4425941.0
1577030841324,4440007.0
1577030841368,4445151.0
1577030841424,4412789.0
1577030841470,4336603.0
1577030841519,4324843.0
1577030841568,4396621.0
1577030841613,4437666.0
1577030841667,4456458.0
1577030841716,4450600.0
1577030841765,4451494.0
1577030841812,4390018.0
1577030841859,4351189.0
1577030841910,4301098.0
1577030841961,4376573.0
1577030842008,4403179.0
1577030842051,4418590.0
1577030842102,4428925.0
1577030842158,4437812.0
1577030842200,4405327.0
1577030842253,4341703.0
1577030842303,4325408.0
1577030842351,4413830.0
1577030842400,4478122.0
1577030842448,4482375.0
1577030842492,4497954.0
1577030842545,4463061.0
1577030842595,4411501.0
1577030842642,4375974.0
1577030842689,4382837.0
1577030842740,4422424.0
1577030842791,4446033.0
1577030842839,4441555.0
1577030842888,4436217.0
1577030842935,4447762.0
1577030842986,4399177.0
1577030843039,4328722.0
1577030843084,4361354.0
1577030843132,4385891.0
1577030843183,4438818.0
1577030843230,4459613.0
1577030843280,4450838.0
1577030843324,4450714.0
1577030843375,4377931.0
1577030843428,4327669.0
1577030843478,4333074.0
1577030843525,4356559.0
1577030843572,4379444.0
1577030843623,4417493.0
1577030843670,4426776.0
1577030843720,4435799.0
1577030843768,4389723.0
1577030843819,4305678.0
1577030843866,4314701.0
1577030843914,4375895.0
1577030843965,4450669.0
1577030844013,4467437.0
1577030844064,4472344.0
1577030844106,4474447.0
1577030844154,4411365.0
1577030844204,4370750.0
1577030844260,4353891.0
1577030844306,4395853.0
1577030844355,4425770.0
1577030844405,4457317.0
1577030844453,4473045.0
1577030844497,4484760.0
1577030844544,4462902.0
1577030844594,4356526.0
1577030844649,4364779.0
1577030844701,4438672.0
1577030844747,4503891.0
1577030844795,4541939.0
1577030844845,4522368.0
1577030844893,4529231.0
1577030844944,4388955.0
1577030844991,4352353.0
1577030845039,4412145.0
1577030845089,4436705.0
1577030845139,4471881.0
1577030845187,4507690.0
1577030845236,4550737.0
1577030845286,4573553.0
1577030845333,4547943.0
1577030845378,4408720.0
1577030845431,4443150.0
1577030845475,4443828.0
1577030845529,4458640.0
1577030845578,4520557.0
1577030845627,4540775.0
1577030845676,4554073.0
1577030845725,4525238.0
1577030845774,4480700.0
1577030845823,4473520.0
1577030845872,4528067.0
1577030845918,4535732.0
1577030845969,4554672.0
1577030846021,4580610.0
1577030846068,4606695.0
1577030846109,4538762.0
1577030846160,4482476.0
1577030846209,4496180.0
1577030846265,4541318.0
1577030846307,4622628.0
1577030846359,4628134.0
1577030846409,4638717.0
1577030846461,4643659.0
1577030846501,4547514.0
1577030846557,4495026.0
1577030846606,4539012.0
1577030846656,4576946.0
1577030846701,4574742.0
1577030846752,4590730.0
1577030846800,4606254.0
1577030846850,4615233.0
1577030846901,4536297.0
1577030846949,4457803.0
1577030846997,4502885.0
1577030847047,4509862.0
1577030847095,4544292.0
1577030847143,4554242.0
1577030847193,4574707.0
1577030847240,4562994.0
1577030847290,4553981.0
1577030847340,4491058.0
1577030847383,4580315.0
1577030847438,4654242.0
1577030847487,4639837.0
1577030847535,4639520.0
1577030847583,4650477.0
1577030847629,4610992.0
1577030847682,4500183.0
1577030847731,4512983.0
1577030847781,4582420.0
1577030847829,4601075.0
1577030847879,4636355.0
1577030847928,4631537.0
1577030847976,4626393.0
1577030848025,4544121.0
1577030848074,4498328.0
1577030848123,4495467.0
1577030848171,4528654.0
1577030848225,4537665.0
1577030848270,4536218.0
1577030848318,4551675.0
1577030848363,4558945.0
1577030848418,4458120.0
1577030848460,4421802.0
1577030848513,4512755.0
1577030848563,4527207.0
1577030848611,4551111.0
1577030848660,4548406.0
1577030848709,4545152.0
1577030848758,4438818.0
1577030848801,4384318.0
1577030848856,4398520.0
1577030848904,4423531.0
1577030848954,4428021.0
1577030849002,4445785.0
1577030849051,4447628.0
1577030849101,4472683.0
1577030849150,4451380.0
1577030849198,4442053.0
1577030849248,4481154.0
1577030849296,4491499.0
1577030849343,4534296.0
1577030849387,4560889.0
1577030849444,4570851.0
1577030849491,4568059.0
1577030849543,4560213.0
1577030849590,4554095.0
1577030849639,4562620.0
1577030849682,4559681.0
1577030849736,4559284.0
1577030849785,4538841.0
1577030849834,4541590.0
1577030849885,4550499.0
1577030849932,4522536.0
1577030849982,4540243.0
1577030850030,4560629.0
1577030850080,4579445.0
1577030850127,4613390.0
1577030850173,4634059.0
1577030850222,4665266.0
1577030850275,4674505.0
1577030850326,4667800.0
1577030850366,4655112.0
1577030850423,4651392.0
1577030850469,4717561.0
1577030850519,4796598.0
1577030850562,4878598.0
1577030850617,4890018.0
1577030850664,4856899.0
1577030850713,4803112.0
1577030850767,4770377.0
1577030850812,4793805.0
1577030850863,4856242.0
1577030850910,4901642.0
1577030850961,4923633.0
1577030851007,4929208.0
1577030851057,4903824.0
1577030851105,4855905.0
1577030851158,4821847.0
1577030851205,4861129.0
1577030851253,4887338.0
1577030851303,4904208.0
1577030851349,4940322.0
1577030851399,4940493.0
1577030851443,4934081.0
1577030851498,4845954.0
1577030851541,4827987.0
1577030851595,4866748.0
1577030851647,4900612.0
1577030851686,4916782.0
1577030851739,4916894.0
1577030851791,4897367.0
1577030851840,4860698.0
1577030851882,4795320.0
1577030851938,4770218.0
1577030851984,4819937.0
1577030852035,4861332.0
1577030852089,4875046.0
1577030852133,4886184.0
1577030852183,4887893.0
1577030852231,4838107.0
1577030852274,4787744.0
1577030852323,4778112.0
1577030852372,4836581.0
1577030852423,4858370.0
1577030852469,4877003.0
1577030852530,4800363.0
1577030852573,4794530.0
1577030852623,4645660.0
1577030852671,4562135.0
1577030852721,4531978.0
1577030852767,4626777.0
1577030852818,4662225.0
1577030852868,4697083.0
1577030852915,4725148.0
1577030852968,4742901.0
1577030853013,4668806.0
1577030853062,4576540.0
1577030853107,4614723.0
1577030853161,4659929.0
1577030853203,4695117.0
1577030853259,4640729.0
1577030853309,4608357.0
1577030853356,4531718.0
1577030853405,4432316.0
1577030853449,4423893.0
1577030853503,4470954.0
1577030853551,4522853.0
1577030853601,4551686.0
1577030853648,4571836.0
1577030853698,4575522.0
1577030853748,4567990.0
1577030853796,4480971.0
1577030853845,4390525.0
1577030853894,4437587.0
1577030853944,4491138.0
1577030853992,4517924.0
1577030854042,4478474.0
1577030854083,4457837.0
1577030854138,4393839.0
1577030854189,4298837.0
1577030854236,4251087.0
1577030854285,4308482.0
1577030854333,4351494.0
1577030854382,4375251.0
1577030854430,4407113.0
1577030854481,4401064.0
1577030854524,4325046.0
1577030854579,4235448.0
1577030854626,4195354.0
1577030854677,4247649.0
1577030854725,4257271.0
1577030854775,4281898.0
1577030854825,4266046.0
1577030854870,4245140.0
1577030854921,4160201.0
1577030854966,4111026.0
1577030855018,4083561.0
1577030855071,4100555.0
1577030855112,4131175.0
1577030855167,4137711.0
1577030855214,4157305.0
1577030855264,4159906.0
1577030855308,4131705.0
1577030855363,4028168.0
1577030855411,4005032.0
1577030855460,4050816.0
1577030855512,4083447.0
1577030855556,4125283.0
1577030855606,4108560.0
1577030855655,4097322.0
1577030855704,4028517.0
1577030855746,4011727.0
1577030855802,3993059.0
1577030855845,4009906.0
1577030855901,4015616.0
1577030855950,4030293.0
1577030855997,4053245.0
1577030856045,4093850.0
1577030856095,4093964.0
1577030856145,4023747.0
1577030856194,4003370.0
1577030856244,4019449.0
1577030856288,4075068.0
1577030856339,4141001.0
1577030856390,4138026.0
1577030856440,4139507.0
1577030856487,4097932.0
1577030856535,4051573.0
1577030856581,4047729.0
1577030856632,4090526.0
1577030856683,4104886.0
1577030856727,4109758.0
1577030856781,4107995.0
1577030856832,4126155.0
1577030856879,4148158.0
1577030856927,4103472.0
1577030856976,4097095.0
1577030857026,4115831.0
1577030857072,4129342.0
1577030857118,4168691.0
1577030857169,4225284.0
1577030857221,4234522.0
1577030857272,4232815.0
1577030857318,4171678.0
1577030857367,4139507.0
1577030857416,4141251.0
1577030857466,4169110.0
1577030857510,4182757.0
1577030857562,4191205.0
1577030857612,4197457.0
1577030857660,4220139.0
1577030857713,4190425.0
1577030857754,4181865.0
1577030857807,4154875.0
1577030857853,4165028.0
1577030857906,4197085.0
1577030857953,4296303.0
1577030858004,4327885.0
1577030858048,4337292.0
1577030858102,4323555.0
1577030858153,4246326.0
1577030858194,4211750.0
1577030858248,4231537.0
1577030858297,4240548.0
1577030858346,4251562.0
1577030858391,4260427.0
1577030858445,4264350.0
1577030858489,4298396.0
1577030858544,4287349.0
1577030858592,4246225.0
1577030858640,4233866.0
1577030858688,4275634.0
1577030858737,4346416.0
1577030858787,4408752.0
1577030858836,4405745.0
1577030858885,4407068.0
1577030858929,4325883.0
1577030858983,4300013.0
1577030859034,4291159.0
1577030859077,4307758.0
1577030859173,4329886.0
1577030859245,4353789.0
1577030859245,4367008.0
1577030859275,4388673.0
1577030859330,4392029.0
1577030859370,4315639.0
1577030859424,4269687.0
1577030859475,4288784.0
1577030859522,4334782.0
1577030859566,4366577.0
1577030859615,4396348.0
1577030859664,4412259.0
1577030859710,4411920.0
1577030859762,4380281.0
1577030859810,4376222.0
1577030859861,4357418.0
1577030859911,4368613.0
1577030859958,4380814.0
1577030860006,4388841.0
1577030860055,4397186.0
1577030860104,4427794.0
1577030860153,4411534.0
1577030860203,4353314.0
1577030860253,4373894.0
1577030860301,4438107.0
1577030860352,4460901.0
1577030860399,4491329.0
1577030860446,4498905.0
1577030860496,4507668.0
1577030860549,4454174.0
1577030860596,4418320.0
1577030860647,4403529.0
1577030860690,4423159.0
1577030860746,4432792.0
1577030860794,4434578.0
1577030860842,4424244.0
1577030860891,4419856.0
1577030860941,4413649.0
1577030860989,4375058.0
1577030861039,4354243.0
1577030861087,4388536.0
1577030861131,4403281.0
1577030861186,4410144.0
1577030861237,4407860.0
1577030861284,4406119.0
1577030861332,4381626.0
1577030861382,4351313.0
1577030861430,4317799.0
1577030861479,4337212.0
1577030861528,4347310.0
1577030861574,4343986.0
1577030861627,4330802.0
1577030861677,4329569.0
1577030861725,4324492.0
1577030861773,4270242.0
1577030861822,4228699.0
1577030861870,4262269.0
1577030861920,4279501.0
1577030861968,4304491.0
1577030862014,4320615.0
1577030862067,4318014.0
1577030862118,4280055.0
1577030862164,4247424.0
1577030862213,4213920.0
1577030862262,4238728.0
1577030862311,4268489.0
1577030862361,4286287.0
1577030862404,4309353.0
1577030862453,4312066.0
1577030862508,4323531.0
1577030862558,4265593.0
1577030862606,4178234.0
1577030862653,4217244.0
1577030862703,4234274.0
1577030862751,4288603.0
1577030862803,4298181.0
1577030862849,4307724.0
1577030862900,4281232.0
1577030862947,4228721.0
1577030862996,4179512.0
1577030863041,4199775.0
1577030863094,4246237.0
1577030863144,4259567.0
1577030863192,4261195.0
1577030863243,4270163.0
1577030863290,4266963.0
1577030863336,4230022.0
1577030863389,4181073.0
1577030863437,4210133.0
1577030863486,4236399.0
1577030863540,4274403.0
1577030863585,4270874.0
1577030863632,4271666.0
1577030863679,4239949.0
1577030863731,4192471.0
1577030863777,4164305.0
1577030863829,4212169.0
1577030863876,4242425.0
1577030863927,4239825.0
1577030863979,4247773.0
1577030864025,4259262.0
1577030864073,4259488.0
1577030864117,4185122.0
1577030864165,4168307.0
1577030864215,4180542.0
1577030864266,4229343.0
1577030864318,4261432.0
1577030864364,4277308.0
1577030864414,4290842.0
1577030864466,4276459.0
1577030864515,4219314.0
1577030864564,4172129.0
1577030864612,4183356.0
1577030864662,4215617.0
1577030864710,4228744.0
1577030864758,4249301.0
1577030864808,4268759.0
1577030864860,4279785.0
1577030864901,4200137.0
1577030864956,4174606.0
1577030865005,4205474.0
1577030865052,4255305.0
1577030865103,4311399.0
1577030865150,4328598.0
1577030865197,4335313.0
1577030865248,4291929.0
1577030865299,4236038.0
1577030865346,4198487.0
1577030865396,4201199.0
1577030865445,4222752.0
1577030865492,4256605.0
1577030865539,4280112.0
1577030865591,4302025.0
1577030865639,4314949.0
1577030865685,4246440.0
1577030865736,4229672.0
1577030865783,4223114.0
1577030865829,4263480.0
1577030865886,4330418.0
1577030865933,4351902.0
1577030865982,4353304.0
1577030866031,4348271.0
1577030866078,4298611.0
1577030866124,4278631.0
1577030866181,4300409.0
1577030866228,4317765.0
1577030866276,4331560.0
1577030866326,4341069.0
1577030866374,4363501.0
1577030866425,4397718.0
1577030866473,4367132.0
1577030866519,4311060.0
1577030866569,4306718.0
1577030866624,4366555.0
1577030866668,4400024.0
1577030866717,4430010.0
1577030866767,4436217.0
1577030866812,4428574.0
1577030866864,4333673.0
1577030866906,4313413.0
1577030866959,4311986.0
1577030867003,4354604.0
1577030867057,4369958.0
1577030867101,4380960.0
1577030867150,4412925.0
1577030867202,4441047.0
1577030867255,4424311.0
1577030867299,4377195.0
1577030867352,4376970.0
1577030867403,4392878.0
1577030867450,4455440.0
1577030867503,4467244.0
1577030867549,4479162.0
1577030867598,4470139.0
1577030867648,4425329.0
1577030867696,4410731.0
1577030867746,4386907.0
1577030867795,4407058.0
1577030867841,4397049.0
1577030867893,4388175.0
1577030867944,4393319.0
1577030867990,4405022.0
1577030868039,4388695.0
1577030868088,4362597.0
1577030868135,4353383.0
1577030868187,4364237.0
1577030868234,4417188.0
1577030868282,4450986.0
1577030868332,4452760.0
1577030868380,4460099.0
1577030868430,4352759.0
1577030868481,4354208.0
1577030868528,4344291.0
1577030868577,4348509.0
1577030868627,4335540.0
1577030868675,4343476.0
1577030868720,4353383.0
1577030868773,4369066.0
1577030868819,4343060.0
1577030868865,4302421.0
1577030868922,4301007.0
1577030868969,4300273.0
1577030869018,4330837.0
1577030869061,4362597.0
1577030869116,4375137.0
1577030869164,4377252.0
1577030869214,4356140.0
1577030869264,4344472.0
1577030869311,4325024.0
1577030869361,4315107.0
1577030869410,4306084.0
1577030869462,4306074.0
1577030869506,4318986.0
1577030869555,4333279.0
1577030869603,4316781.0
1577030869654,4254648.0
1577030869708,4234069.0
1577030869752,4252602.0
1577030869802,4287043.0
1577030869848,4303857.0
1577030869898,4313648.0
1577030869946,4310924.0
1577030869996,4290990.0
1577030870043,4248452.0
1577030870095,4245128.0
1577030870147,4298282.0
1577030870192,4307092.0
1577030870243,4305351.0
1577030870289,4300692.0
1577030870340,4322277.0
1577030870383,4314485.0
1577030870436,4269596.0
1577030870485,4246881.0
1577030870535,4286829.0
1577030870583,4290889.0
1577030870628,4317494.0
1577030870676,4347717.0
1577030870725,4345636.0
1577030870777,4319585.0
1577030870823,4271949.0
1577030870874,4270151.0
1577030870920,4316001.0
1577030870975,4319642.0
1577030871027,4313673.0
1577030871073,4304682.0
1577030871122,4299572.0
1577030871172,4307679.0
1577030871221,4271575.0
1577030871263,4266215.0
1577030871319,4266884.0
1577030871360,4284127.0
1577030871417,4327612.0
1577030871469,4372762.0
1577030871514,4363276.0
1577030871562,4319280.0
1577030871605,4295218.0
1577030871662,4290210.0
1577030871710,4305237.0
1577030871759,4314317.0
1577030871803,4319370.0
1577030871851,4309262.0
1577030871908,4312315.0
1577030871949,4319347.0
1577030872001,4294213.0
1577030872048,4288910.0
1577030872098,4285076.0
1577030872149,4314453.0
1577030872200,4328303.0
1577030872246,4331786.0
1577030872298,4349673.0
1577030872347,4328868.0
1577030872395,4324786.0
1577030872448,4298329.0
1577030872493,4313977.0
1577030872544,4326178.0
1577030872590,4319337.0
1577030872641,4316883.0
1577030872687,4334793.0
1577030872738,4294710.0
1577030872786,4276935.0
1577030872836,4285326.0
1577030872888,4316283.0
1577030872933,4351122.0
1577030872983,4371563.0
1577030873031,4381616.0
1577030873081,4384544.0
1577030873125,4322537.0
1577030873179,4302173.0
1577030873223,4314124.0
1577030873276,4312665.0
1577030873328,4317200.0
1577030873374,4313933.0
1577030873424,4320355.0
1577030873473,4339328.0
1577030873522,4330837.0
1577030873569,4319607.0
1577030873620,4312779.0
1577030873667,4313502.0
1577030873717,4362800.0
1577030873769,4440968.0
1577030873815,4424041.0
1577030873864,4428361.0
1577030873912,4367427.0
1577030873962,4354998.0
1577030874009,4314745.0
1577030874060,4319427.0
1577030874108,4343251.0
1577030874157,4336806.0
1577030874205,4339055.0
1577030874255,4363650.0
1577030874305,4351483.0
1577030874346,4287169.0
1577030874403,4266782.0
1577030874444,4290039.0
1577030874495,4323419.0
1577030874543,4361557.0
1577030874593,4357871.0
1577030874645,4344766.0
1577030874691,4289147.0
1577030874745,4256119.0
1577030874794,4287540.0
1577030874842,4318218.0
1577030874890,4322931.0
1577030874941,4321598.0
1577030874985,4330428.0
1577030875039,4349809.0
1577030875089,4335823.0
1577030875132,4307238.0
1577030875186,4329388.0
1577030875234,4330282.0
1577030875284,4354253.0
1577030875330,4378812.0
1577030875383,4384670.0
1577030875425,4390154.0
1577030875482,4397118.0
1577030875528,4387744.0
1577030875577,4345738.0
1577030875626,4354649.0
1577030875675,4356435.0
1577030875725,4361455.0
1577030875772,4370366.0
1577030875823,4410325.0
1577030875866,4402986.0
1577030875921,4347174.0
1577030875972,4324707.0
1577030876017,4348893.0
1577030876066,4384737.0
1577030876116,4430587.0
1577030876165,4433731.0
1577030876214,4426563.0
1577030876263,4386647.0
1577030876305,4361569.0
1577030876361,4320026.0
1577030876412,4336660.0
1577030876458,4341239.0
1577030876507,4349787.0
1577030876556,4351979.0
1577030876605,4370082.0
1577030876654,4356786.0
1577030876702,4297660.0
1577030876751,4292528.0
1577030876801,4303947.0
1577030876846,4341713.0
1577030876893,4390706.0
1577030876944,4392957.0
1577030876993,4381299.0
1577030877042,4318149.0
1577030877090,4314475.0
1577030877140,4292912.0
1577030877188,4316895.0
1577030877243,4337123.0
1577030877293,4351719.0
1577030877339,4338740.0
1577030877387,4347117.0
1577030877433,4304999.0
1577030877489,4244959.0
1577030877535,4235879.0
1577030877584,4294981.0
1577030877632,4332578.0
1577030877683,4354919.0
1577030877730,4338005.0
1577030877781,4330485.0
1577030877831,4277264.0
1577030877879,4269133.0
1577030877928,4240979.0
1577030877976,4270014.0
1577030878027,4274425.0
1577030878071,4265041.0
1577030878124,4255961.0
1577030878167,4258413.0
1577030878222,4182182.0
1577030878271,4133922.0
1577030878320,4139859.0
1577030878367,4169573.0
1577030878418,4208709.0
1577030878466,4209204.0
1577030878516,4211173.0
1577030878565,4197853.0
1577030878608,4146338.0
1577030878664,4117753.0
1577030878713,4125748.0
1577030878761,4144867.0
1577030878808,4152206.0
1577030878859,4146088.0
1577030878907,4158561.0
1577030878956,4173498.0
1577030879006,4147197.0
1577030879049,4073530.0
1577030879104,4078585.0
1577030879155,4101946.0
1577030879198,4151222.0
1577030879249,4148746.0
1577030879300,4160912.0
1577030879347,4176629.0
1577030879396,4159443.0
1577030879441,4160337.0
1577030879495,4127364.0
1577030879544,4139814.0
1577030879593,4149504.0
1577030879644,4151245.0
1577030879693,4156176.0
1577030879740,4181310.0
1577030879788,4147388.0
1577030879838,4107849.0
1577030879887,4099707.0
1577030879935,4123747.0
1577030879984,4168533.0
1577030880029,4191792.0
1577030880078,4198621.0
1577030880131,4195671.0
1577030880182,4186658.0
1577030880229,4148193.0
1577030880280,4140537.0
1577030880325,4146033.0
1577030880373,4159557.0
1577030880423,4160778.0
1577030880472,4168285.0
1577030880522,4187178.0
1577030880570,4164577.0
1577030880623,4142856.0
1577030880673,4130373.0
1577030880722,4160201.0
1577030880769,4224040.0
1577030880819,4247163.0
1577030880867,4260585.0
1577030880917,4255768.0
1577030880960,4203847.0
1577030881012,4179456.0
1577030881058,4183641.0
1577030881111,4191126.0
1577030881156,4200939.0
1577030881204,4203847.0
1577030881261,4215210.0
1577030881308,4222344.0
1577030881352,4185539.0
1577030881407,4168240.0
1577030881455,4174945.0
1577030881506,4203562.0
1577030881557,4236590.0
1577030881604,4259907.0
1577030881651,4276256.0
1577030881703,4250374.0
1577030881749,4237925.0
1577030881800,4196620.0
1577030881848,4212508.0
1577030881898,4221303.0
1577030881946,4229536.0
1577030881994,4235188.0
1577030882044,4260551.0
1577030882091,4235087.0
1577030882138,4201969.0
1577030882186,4193590.0
1577030882239,4209873.0
1577030882288,4251335.0
1577030882337,4310099.0
1577030882386,4320117.0
1577030882436,4318929.0
1577030882485,4273214.0
1577030882533,4261863.0
1577030882582,4235290.0
1577030882630,4242685.0
1577030882681,4256402.0
1577030882729,4258019.0
1577030882778,4259760.0
1577030882827,4277239.0
1577030882876,4249514.0
1577030882925,4220672.0
1577030882974,4224199.0
1577030883024,4266081.0
1577030883071,4299582.0
1577030883123,4326777.0
1577030883169,4327692.0
1577030883219,4328913.0
1577030883267,4285754.0
1577030883316,4271756.0
1577030883362,4236682.0
1577030883419,4302782.0
1577030883461,4316137.0
1577030883515,4313445.0
1577030883563,4316487.0
1577030883611,4323248.0
1577030883659,4306458.0
1577030883708,4238661.0
1577030883757,4243636.0
1577030883807,4280407.0
1577030883860,4299741.0
1577030883905,4323949.0
1577030883954,4310822.0
1577030884003,4299515.0
1577030884052,4244744.0
1577030884099,4188659.0
1577030884145,4193625.0
1577030884194,4200194.0
1577030884248,4207542.0
1577030884298,4215899.0
1577030884346,4232905.0
1577030884393,4252635.0
1577030884439,4214621.0
1577030884491,4166554.0
1577030884538,4163332.0
1577030884583,4182081.0
1577030884634,4230202.0
1577030884684,4241375.0
1577030884734,4245829.0
1577030884783,4246101.0
1577030884832,4208392.0
1577030884885,4173395.0
1577030884933,4157374.0
1577030884983,4173949.0
1577030885025,4181040.0
1577030885078,4177704.0
1577030885130,4181231.0
1577030885174,4187587.0
1577030885228,4150747.0
1577030885279,4108436.0
1577030885327,4122152.0
1577030885376,4150328.0
1577030885426,4178291.0
1577030885469,4189090.0
1577030885520,4198148.0
1577030885568,4145387.0
1577030885620,4118771.0
1577030885669,4086863.0
1577030885717,4092166.0
1577030885767,4105553.0
1577030885818,4099685.0
1577030885866,4093263.0
1577030885914,4112540.0
1577030885964,4068668.0
1577030886009,4032294.0
1577030886060,4008460.0
1577030886110,4035799.0
1577030886159,4042754.0
1577030886204,4055767.0
1577030886263,4060574.0
1577030886307,4065468.0
1577030886356,4018318.0
1577030886406,3972480.0
1577030886449,3931570.0
1577030886503,3930936.0
1577030886551,3941373.0
1577030886597,3945760.0
1577030886649,3944675.0
1577030886702,3953913.0
1577030886747,3883832.0
1577030886797,3849628.0
1577030886846,3849876.0
1577030886895,3857306.0
1577030886946,3884239.0
1577030886992,3885539.0
1577030887042,3860868.0
1577030887090,3854478.0
1577030887139,3844234.0
1577030887189,3844065.0
1577030887240,3850341.0
1577030887288,3843624.0
1577030887338,3824640.0
1577030887386,3827805.0
1577030887436,3852013.0
1577030887483,3860224.0
1577030887533,3823508.0
1577030887579,3828055.0
1577030887630,3825024.0
1577030887680,3845999.0
1577030887728,3875137.0
1577030887777,3894076.0
1577030887827,3907701.0
1577030887875,3891407.0
1577030887924,3875307.0
1577030887974,3872536.0
1577030888019,3903077.0
1577030888066,3897388.0
1577030888119,3898136.0
1577030888169,3906141.0
1577030888219,3906141.0
1577030888268,3887394.0
1577030888316,3870331.0
1577030888365,3865504.0
1577030888414,3862857.0
1577030888465,3879547.0
1577030888513,3910708.0
1577030888564,3928699.0
1577030888609,3924412.0
1577030888660,3907600.0
1577030888709,3916600.0
1577030888758,3937802.0
1577030888807,3923498.0
1577030888855,3920251.0
1577030888905,3927840.0
1577030888953,3918329.0
1577030889004,3914735.0
1577030889050,3889056.0
1577030889112,3882938.0
1577030889146,3877150.0
1577030889199,3879050.0
1577030889248,3898938.0
1577030889302,3954887.0
1577030889341,3957510.0
1577030889398,3957757.0
1577030889440,3915966.0
1577030889499,3883798.0
1577030889543,3848972.0
1577030889594,3859545.0
1577030889645,3872977.0
1577030889690,3861445.0
1577030889742,3838740.0
1577030889784,3840526.0
1577030889840,3783911.0
1577030889882,3775646.0
1577030889938,3775329.0
1577030889983,3816612.0
1577030890037,3829806.0
1577030890085,3841759.0
1577030890133,3835901.0
1577030890185,3820818.0
1577030890223,3780486.0
1577030890281,3736059.0
1577030890323,3757803.0
1577030890379,3789756.0
1577030890423,3799188.0
1577030890477,3788434.0
1577030890528,3787901.0
1577030890565,3782804.0
1577030890617,3722942.0
1577030890664,3697954.0
1577030890717,3714113.0
1577030890763,3722784.0
1577030890815,3724391.0
1577030890863,3743455.0
1577030890918,3772627.0
1577030890964,3776436.0
1577030891009,3746891.0
1577030891070,3718432.0
1577030891107,3727975.0
1577030891158,3730236.0
1577030891206,3723091.0
1577030891261,3722784.0
1577030891304,3741305.0
1577030891360,3735799.0
1577030891406,3710957.0
1577030891451,3711817.0
1577030891514,3716567.0
1577030891557,3722095.0
1577030891602,3750635.0
1577030891646,3766385.0
1577030891704,3783775.0
1577030891743,3776674.0
1577030891800,3743997.0
1577030891841,3757249.0
1577030891898,3791916.0
1577030891946,3807034.0
1577030891996,3820568.0
1577030892043,3833685.0
1577030892093,3853281.0
1577030892145,3858267.0
1577030892186,3836377.0
1577030892241,3819505.0
1577030892283,3840481.0
1577030892338,3860585.0
1577030892384,3890604.0
1577030892434,3916781.0
1577030892482,3928880.0
1577030892537,3907429.0
1577030892584,3892551.0
1577030892631,3879592.0
1577030892683,3905066.0
1577030892723,3911545.0
1577030892779,3928675.0
1577030892825,3940638.0
1577030892877,3961884.0
1577030892925,3950748.0
1577030892976,3930235.0
1577030893034,3925611.0
1577030893071,3946835.0
1577030893116,3985245.0
1577030893173,4046484.0
1577030893220,4070003.0
1577030893268,4075578.0
1577030893312,4027851.0
1577030893371,4020784.0
1577030893416,4016272.0
1577030893462,4021723.0
1577030893505,4030496.0
1577030893564,4035291.0
1577030893606,4048678.0
1577030893662,4065741.0
1577030893704,4021948.0
1577030893755,4010699.0
1577030893810,4035561.0
1577030893857,4070276.0
1577030893906,4118229.0
1577030893952,4141771.0
1577030894001,4155700.0
1577030894054,4133833.0
1577030894097,4095502.0
1577030894144,4046021.0
1577030894193,4055021.0
1577030894251,4073530.0
1577030894297,4086863.0
1577030894347,4085674.0
1577030894395,4107814.0
1577030894441,4101731.0
1577030894491,4062122.0
1577030894538,4071259.0
1577030894589,4073260.0
1577030894642,4109127.0
1577030894690,4162982.0
1577030894739,4172367.0
1577030894786,4169709.0
1577030894837,4145095.0
1577030894887,4129818.0
1577030894933,4084929.0
1577030894979,4119088.0
1577030895029,4120116.0
1577030895081,4132770.0
1577030895128,4117221.0
1577030895180,4130180.0
1577030895227,4123440.0
1577030895278,4097661.0
1577030895326,4094008.0
1577030895375,4105270.0
1577030895422,4139916.0
1577030895466,4193387.0
1577030895536,4199661.0
1577030895569,4208471.0
1577030895621,4170400.0
1577030895665,4158041.0
1577030895710,4127782.0
1577030895760,4144879.0
1577030895807,4158549.0
1577030895858,4156672.0
1577030895906,4154908.0
1577030895957,4165979.0
1577030896009,4162224.0
1577030896061,4128631.0
1577030896111,4116091.0
1577030896152,4136852.0
1577030896201,4151133.0
1577030896251,4176121.0
1577030896299,4181989.0
1577030896352,4192436.0
1577030896401,4177850.0
1577030896451,4162224.0
1577030896505,4155371.0
1577030896552,4174742.0
1577030896603,4169392.0
1577030896647,4167708.0
1577030896697,4168760.0
1577030896747,4186331.0
1577030896794,4187146.0
1577030896841,4152139.0
1577030896886,4157543.0
1577030896944,4159522.0
1577030896988,4185776.0
1577030897032,4213808.0
1577030897089,4228077.0
1577030897138,4238163.0
1577030897187,4234556.0
1577030897237,4240050.0
1577030897282,4205779.0
1577030897331,4235800.0
1577030897382,4212778.0
1577030897433,4200431.0
1577030897480,4207136.0
1577030897527,4234014.0
1577030897577,4235517.0
1577030897629,4209794.0
1577030897671,4204231.0
1577030897727,4211998.0
1577030897767,4259793.0
1577030897821,4318500.0
1577030897869,4318218.0
1577030897922,4326912.0
1577030897970,4293398.0
1577030898020,4257239.0
1577030898067,4241737.0
1577030898115,4239396.0
1577030898160,4239045.0
1577030898216,4232248.0
1577030898261,4239441.0
1577030898312,4253427.0
1577030898364,4238175.0
1577030898411,4202071.0
1577030898461,4208820.0
1577030898514,4237598.0
1577030898552,4279072.0
1577030898599,4310914.0
1577030898648,4321247.0
1577030898697,4326832.0
1577030898749,4275748.0
1577030898802,4222401.0
1577030898843,4203666.0
1577030898897,4210450.0
1577030898945,4215503.0
1577030898994,4208629.0
1577030899042,4211002.0
1577030899090,4226596.0
1577030899147,4211332.0
1577030899188,4147559.0
1577030899244,4142380.0
1577030899290,4170930.0
1577030899342,4197786.0
1577030899391,4238401.0
1577030899438,4249707.0
1577030899489,4245524.0
1577030899532,4226980.0
1577030899587,4149243.0
1577030899629,4112552.0
1577030899683,4121597.0
1577030899731,4122989.0
1577030899785,4120988.0
1577030899831,4115945.0
1577030899880,4110799.0
1577030899930,4101709.0
1577030899973,4075895.0
1577030900034,4072616.0
1577030900069,4062325.0
1577030900126,4067900.0
1577030900178,4098870.0
1577030900221,4117674.0
1577030900273,4119121.0
1577030900320,4119393.0
1577030900371,4026018.0
1577030900415,4019675.0
1577030900469,3999018.0
1577030900518,4021621.0
1577030900570,4015447.0
1577030900614,4005497.0
1577030900663,4009805.0
1577030900713,4013716.0
1577030900763,3979073.0
1577030900812,3941510.0
1577030900854,3944009.0
1577030900903,3947773.0
1577030900951,3949775.0
1577030901006,3990164.0
1577030901059,4006198.0
1577030901105,4003291.0
1577030901154,3992517.0
1577030901198,3972762.0
1577030901252,3951494.0
1577030901303,3925386.0
1577030901351,3928043.0
1577030901401,3916702.0
1577030901449,3909205.0
