"1572604027448","3098213.0"
"1572604027488","3129216.0"
"1572604027544","3120585.0"
"1572604027588","3113165.0"
"1572604027640","3063407.0"
"1572604027696","3082749.0"
"1572604027732","3140664.0"
"1572604027777","3220969.0"
"1572604027832","3283815.0"
"1572604027872","3238509.0"
"1572604027921","3193693.0"
"1572604027971","3092360.0"
"1572604028032","2902367.0"
"1572604028081","2692211.0"
"1572604028122","2564400.0"
"1572604028182","2451659.0"
"1572604028215","2369607.0"
"1572604028268","2299710.0"
"1572604028318","2233205.0"
"1572604028372","2182452.0"
"1572604028467","2141797.0"
"1572604028468","2095234.0"
"1572604028560","2056175.0"
"1572604028564","2026081.0"
"1572604028612","1997964.0"
"1572604028655","1968335.0"
"1572604028707","1945037.0"
"1572604028753","1928001.0"
"1572604028806","1913413.0"
"1572604040002","1888339.0"
"1572604040002","1873729.0"
"1572604040002","1860195.0"
"1572604040003","1838411.0"
"1572604040003","1822169.0"
"1572604040003","1810868.0"
"1572604040003","1800352.0"
"1572604040004","1791638.0"
"1572604040004","1779665.0"
"1572604040004","1766700.0"
"1572604040004","1756070.0"
"1572604040005","1751716.0"
"1572604040005","1748717.0"
"1572604040005","1746041.0"
"1572604040005","1737236.0"
"1572604040005","1723028.0"
"1572604040006","1713324.0"
"1572604040006","1707863.0"
"1572604040006","1708806.0"
"1572604040007","1704285.0"
"1572604040007","1700520.0"
"1572604040007","1696954.0"
"1572604040007","1691635.0"
"1572604040008","1689996.0"
"1572604040008","1687816.0"
"1572604040008","1686590.0"
"1572604040008","1678012.0"
"1572604040009","1666887.0"
"1572604040009","1659544.0"
"1572604040009","1655511.0"
"1572604040009","1649800.0"
"1572604040010","1643869.0"
"1572604040010","1639543.0"
"1572604040010","1635165.0"
"1572604040010","1631817.0"
"1572604040011","1630573.0"
"1572604040011","1627257.0"
"1572604040011","1620648.0"
"1572604040011","1609786.0"
"1572604040012","1597527.0"
"1572604040012","1588831.0"
"1572604040012","1583794.0"
"1572604040012","1580342.0"
"1572604040012","1576082.0"
"1572604040013","1572593.0"
"1572604040013","1569779.0"
"1572604040013","1563666.0"
"1572604040013","1617107.0"
"1572604040014","1640555.0"
"1572604040014","1698860.0"
"1572604040014","1746373.0"
"1572604040014","1781595.0"
"1572604040015","1806021.0"
"1572604040015","1786199.0"
"1572604040015","1774833.0"
"1572604040015","1757417.0"
"1572604040015","1763313.0"
"1572604040016","1768496.0"
"1572604040016","1773344.0"
"1572604040016","1767730.0"
"1572604040028","1755863.0"
"1572604040028","1746576.0"
"1572604040028","1738059.0"
"1572604040028","1730167.0"
"1572604040067","1724068.0"
"1572604040067","1715693.0"
"1572604040068","1708422.0"
"1572604040068","1701504.0"
"1572604040068","1696288.0"
"1572604040069","1689835.0"
"1572604040069","1682679.0"
"1572604040069","1669422.0"
"1572604040069","1657823.0"
"1572604040070","1651147.0"
"1572604040070","1644375.0"
"1572604040070","1637741.0"
"1572604040070","1631026.0"
"1572604040071","1622426.0"
"1572604040071","1616430.0"
"1572604040071","1611190.0"
"1572604040071","1605800.0"
"1572604040072","1601371.0"
"1572604040072","1593195.0"
"1572604040072","1585682.0"
"1572604040072","1576679.0"
"1572604040073","1572778.0"
"1572604040073","1570389.0"
"1572604040073","1564247.0"
"1572604040073","1558615.0"
"1572604040073","1557306.0"
"1572604040074","1554194.0"
"1572604040074","1550990.0"
"1572604040074","1549901.0"
"1572604040074","1547121.0"
"1572604040074","1542337.0"
"1572604040075","1533866.0"
"1572604040075","1528892.0"
"1572604040080","1525829.0"
"1572604040081","1518614.0"
"1572604040081","1514542.0"
"1572604040081","1509729.0"
"1572604040081","1508374.0"
"1572604040082","1505743.0"
"1572604040082","1504292.0"
"1572604040082","1503290.0"
"1572604040082","1499877.0"
"1572604040083","1493408.0"
"1572604040083","1484562.0"
"1572604040083","1483066.0"
"1572604040084","1480458.0"
"1572604040084","1479139.0"
"1572604040084","1476918.0"
"1572604040084","1473716.0"
"1572604040085","1472587.0"
"1572604040085","1470642.0"
"1572604040085","1469667.0"
"1572604040086","1469559.0"
"1572604040086","1465646.0"
"1572604040086","1459413.0"
"1572604040086","1454953.0"
"1572604040087","1452399.0"
"1572604040087","1451544.0"
"1572604040087","1451091.0"
"1572604040087","1447799.0"
"1572604040088","1446517.0"
"1572604040088","1443665.0"
"1572604040088","1442803.0"
"1572604040088","1440739.0"
"1572604040089","1438242.0"
"1572604040089","1432925.0"
"1572604040089","1426753.0"
"1572604040089","1423112.0"
"1572604040090","1422965.0"
"1572604040090","1420826.0"
"1572604040090","1419585.0"
"1572604040090","1417474.0"
"1572604040091","1416588.0"
"1572604040091","1416460.0"
"1572604040092","1416529.0"
"1572604040092","1415233.0"
"1572604040092","1415659.0"
"1572604040092","1413621.0"
"1572604040093","1408816.0"
"1572604040093","1404369.0"
"1572604040093","1403686.0"
"1572604040093","1404003.0"
"1572604040094","1401453.0"
"1572604040094","1399184.0"
"1572604040094","1397455.0"
"1572604040094","1395752.0"
"1572604040095","1394610.0"
"1572604040095","1392095.0"
"1572604040095","1390364.0"
"1572604040096","1389553.0"
"1572604040096","1385396.0"
"1572604040096","1384413.0"
"1572604040096","1381906.0"
"1572604040097","1383017.0"
"1572604040097","1382759.0"
"1572604040097","1381847.0"
"1572604040098","1382022.0"
"1572604040098","1381412.0"
"1572604040099","1381977.0"
"1572604040100","1381591.0"
"1572604040100","1382540.0"
"1572604040100","1378525.0"
"1572604040100","1377718.0"
"1572604040101","1376546.0"
"1572604040108","1377066.0"
"1572604040109","1375579.0"
"1572604040109","1374923.0"
"1572604040109","1374096.0"
"1572604040109","1372960.0"
"1572604040110","1373277.0"
"1572604040110","1373324.0"
"1572604040110","1374407.0"
"1572604040110","1373736.0"
"1572604040111","1370305.0"
"1572604040111","1370211.0"
"1572604040111","1368783.0"
"1572604040111","1369392.0"
"1572604040112","1369337.0"
"1572604040112","1372261.0"
"1572604040112","1372271.0"
"1572604040113","1374744.0"
"1572604040113","1379752.0"
"1572604040113","1384740.0"
"1572604040113","1389448.0"
"1572604040114","1391928.0"
"1572604040114","1392581.0"
"1572604040114","1392530.0"
"1572604040114","1394308.0"
"1572604040115","1395336.0"
"1572604040115","1398580.0"
"1572604040115","1404283.0"
"1572604040115","1400224.0"
"1572604040116","1395941.0"
"1572604040116","1397215.0"
"1572604040116","1404275.0"
"1572604040116","1410151.0"
"1572604040117","1412372.0"
"1572604040117","1414869.0"
"1572604040117","1419351.0"
"1572604040117","1425324.0"
"1572604040118","1430001.0"
"1572604040118","1434626.0"
"1572604040118","1436015.0"
"1572604040119","1433725.0"
"1572604040119","1434963.0"
"1572604040119","1436062.0"
"1572604040119","1437610.0"
"1572604040120","1437925.0"
"1572604040120","1440316.0"
"1572604040120","1443311.0"
"1572604040120","1445117.0"
"1572604040121","1447617.0"
"1572604040121","1458011.0"
"1572604040121","1454766.0"
"1572604040121","1446091.0"
"1572604040122","1449809.0"
"1572604040122","1441619.0"
"1572604040122","1439601.0"
"1572604040122","1440786.0"
"1572604040123","1437470.0"
"1572604040124","1427441.0"
"1572604040124","1427456.0"
"1572604040124","1426401.0"
"1572604040124","1435987.0"
"1572604040124","1448588.0"
"1572604040125","1456544.0"
"1572604040131","1473576.0"
"1572604040164","1479761.0"
"1572604040211","1492022.0"
"1572604040296","1492033.0"
"1572604040332","1492650.0"
"1572604040356","1496443.0"
"1572604040408","1497276.0"
"1572604040455","1495724.0"
"1572604040505","1492632.0"
"1572604040553","1490531.0"
"1572604040607","1491319.0"
"1572604040650","1494117.0"
"1572604040699","1494184.0"
"1572604040749","1492553.0"
"1572604040797","1492372.0"
"1572604040846","1492510.0"
"1572604040894","1492662.0"
"1572604040945","1489048.0"
"1572604040993","1489895.0"
"1572604041050","1489657.0"
"1572604041091","1489773.0"
"1572604041139","1491984.0"
"1572604041188","1489712.0"
"1572604041245","1487232.0"
"1572604041285","1484865.0"
"1572604041344","1483312.0"
"1572604041383","1481732.0"
"1572604041440","1481573.0"
"1572604041478","1480108.0"
"1572604041532","1478296.0"
"1572604041583","1477030.0"
"1572604041631","1475898.0"
"1572604041679","1476091.0"
"1572604041724","1475649.0"
"1572604041774","1475626.0"
"1572604041822","1475898.0"
"1572604041870","1476926.0"
"1572604041919","1474330.0"
"1572604041970","1468779.0"
"1572604042017","1464513.0"
"1572604042074","1467987.0"
"1572604042115","1462781.0"
"1572604042172","1459258.0"
"1572604042213","1455652.0"
"1572604042260","1452489.0"
"1572604042315","1447399.0"
"1572604042364","1447314.0"
"1572604042409","1449029.0"
"1572604042454","1457814.0"
"1572604042505","1467052.0"
"1572604042553","1474186.0"
"1572604042606","1488761.0"
"1572604042695","1502090.0"
"1572604042748","1505231.0"
"1572604042773","1494883.0"
"1572604042874","1491238.0"
"1572604042875","1491163.0"
"1572604042893","1489068.0"
"1572604042983","1487360.0"
"1572604042992","1482827.0"
"1572604043046","1481165.0"
"1572604043090","1481079.0"
"1572604043151","1479810.0"
"1572604043203","1478840.0"
"1572604043240","1478095.0"
"1572604043288","1476551.0"
"1572604043342","1475328.0"
"1572604043386","1475642.0"
"1572604043434","1472570.0"
"1572604043480","1465821.0"
"1572604043528","1460559.0"
"1572604043580","1455179.0"
"1572604043630","1449685.0"
"1572604043678","1442966.0"
"1572604043725","1434071.0"
"1572604043776","1438561.0"
"1572604043824","1510369.0"
"1572604043873","1548200.0"
"1572604043920","1626652.0"
"1572604043968","1726724.0"
"1572604044016","1776065.0"
"1572604044065","1783210.0"
"1572604044116","1826060.0"
"1572604044164","1870464.0"
"1572604044213","1899952.0"
"1572604044260","1944521.0"
"1572604044317","1976872.0"
"1572604044358","2017007.0"
"1572604044435","2053453.0"
"1572604044491","2095993.0"
"1572604044535","2145430.0"
"1572604044569","2191325.0"
"1572604044604","2240272.0"
"1572604044651","2272922.0"
"1572604044706","2307472.0"
"1572604044756","2332818.0"
"1572604044795","2364655.0"
"1572604044850","2407052.0"
"1572604044894","2421711.0"
"1572604044946","2437829.0"
"1572604044993","2453233.0"
"1572604045048","2475363.0"
"1572604045089","2495053.0"
"1572604045150","2509470.0"
"1572604045195","2509773.0"
"1572604045245","2538067.0"
"1572604045294","2560394.0"
"1572604045338","2597579.0"
"1572604045391","2626891.0"
"1572604045438","2638490.0"
"1572604045479","2673424.0"
"1572604045532","2701519.0"
"1572604045584","2728059.0"
"1572604045635","2746908.0"
"1572604045683","2758554.0"
"1572604045724","2762199.0"
"1572604045781","2761447.0"
"1572604045828","2770393.0"
"1572604045876","2776431.0"
"1572604045920","2791358.0"
"1572604045976","2797133.0"
"1572604046015","2823885.0"
"1572604046064","2828649.0"
"1572604046113","2838432.0"
"1572604046169","2849818.0"
"1572604046213","2857793.0"
"1572604046260","2864830.0"
"1572604046318","2866003.0"
"1572604046357","2861177.0"
"1572604046413","2873910.0"
"1572604046468","2879112.0"
"1572604046519","2890936.0"
"1572604046559","2892602.0"
"1572604046609","2898446.0"
"1572604046660","2904161.0"
"1572604046707","2916683.0"
"1572604046760","2924777.0"
"1572604046804","2935119.0"
"1572604046856","2940233.0"
"1572604046901","2946297.0"
"1572604046953","2951879.0"
"1572604046990","2949018.0"
"1572604047050","2951072.0"
"1572604047089","2947126.0"
"1572604047146","2955897.0"
"1572604047187","2969797.0"
"1572604047245","2981371.0"
"1572604047284","2987879.0"
"1572604047342","2998054.0"
"1572604047383","3014534.0"
"1572604047433","3024603.0"
"1572604047484","3028504.0"
"1572604047530","3035859.0"
"1572604047577","3047742.0"
"1572604047627","3060542.0"
"1572604047676","3065793.0"
"1572604047725","3059785.0"
"1572604047773","3058096.0"
"1572604047822","3056812.0"
"1572604047876","3061416.0"
"1572604047918","3066540.0"
"1572604047970","3070789.0"
"1572604048016","3070807.0"
"1572604048067","3086973.0"
"1572604048114","3092916.0"
"1572604048163","3103447.0"
"1572604048213","3110219.0"
"1572604048261","3111493.0"
"1572604048311","3099264.0"
"1572604048357","3109942.0"
"1572604048415","3118000.0"
"1572604048455","3126820.0"
"1572604048508","3141770.0"
"1572604048557","3132413.0"
"1572604048610","3131778.0"
"1572604048660","3129807.0"
"1572604048706","3129344.0"
"1572604048763","3118579.0"
"1572604048804","3096596.0"
"1572604048865","3066839.0"
"1572604048894","3048988.0"
"1572604048946","3035438.0"
"1572604048991","3052038.0"
"1572604049047","3053563.0"
"1572604049090","3060719.0"
"1572604049143","3066640.0"
"1572604049188","3077755.0"
"1572604049246","3071835.0"
"1572604049288","3083300.0"
"1572604049343","3090566.0"
"1572604049382","3086061.0"
"1572604049432","3083926.0"
"1572604049479","3072245.0"
"1572604049529","3068787.0"
"1572604049577","3053149.0"
"1572604049627","3045248.0"
"1572604049675","3031586.0"
"1572604049724","3018355.0"
"1572604049776","3015866.0"
"1572604049822","3013426.0"
"1572604049874","3011234.0"
"1572604049919","3017593.0"
"1572604049972","3025737.0"
"1572604050018","3034839.0"
"1572604050068","3044242.0"
"1572604050113","3048645.0"
"1572604050163","3027309.0"
"1572604050212","2962249.0"
"1572604050262","2929210.0"
"1572604050309","2882001.0"
"1572604050357","2855816.0"
"1572604050406","2824957.0"
"1572604050454","2822993.0"
"1572604050506","2800922.0"
"1572604050553","2770129.0"
"1572604050603","2735130.0"
"1572604050661","2708876.0"
"1572604050706","2685994.0"
"1572604050751","2666235.0"
"1572604050799","2647627.0"
"1572604050866","2628577.0"
"1572604050903","2592101.0"
"1572604050949","2552106.0"
"1572604050994","2536701.0"
"1572604051053","2544067.0"
"1572604051089","2533006.0"
"1572604051141","2528674.0"
"1572604051188","2504370.0"
"1572604051242","2471923.0"
"1572604051285","2435112.0"
"1572604051342","2407306.0"
"1572604051385","2388471.0"
"1572604051436","2378634.0"
"1572604051486","2367595.0"
"1572604051533","2350210.0"
"1572604051577","2338860.0"
"1572604051638","2329321.0"
"1572604051673","2329244.0"
"1572604051724","2329187.0"
"1572604051772","2318508.0"
"1572604051820","2324412.0"
"1572604051873","2322659.0"
"1572604051919","2321850.0"
"1572604051985","2328701.0"
"1572604052015","2330699.0"
"1572604052065","2339043.0"
"1572604052113","2342838.0"
"1572604052162","2318248.0"
"1572604052212","2260736.0"
"1572604052264","2245829.0"
"1572604052312","2229213.0"
"1572604052358","2209188.0"
"1572604052408","2192367.0"
"1572604052462","2174279.0"
"1572604052509","2158913.0"
"1572604052553","2152045.0"
"1572604052610","2147072.0"
"1572604052656","2146773.0"
"1572604052699","2144743.0"
"1572604052750","2132591.0"
"1572604052797","2126780.0"
"1572604052845","2125204.0"
"1572604052893","2128347.0"
"1572604052942","2128392.0"
"1572604052991","2122626.0"
"1572604053048","2117347.0"
"1572604053090","2101512.0"
"1572604053147","2080900.0"
"1572604053197","2074873.0"
"1572604053247","2069694.0"
"1572604053288","2075698.0"
"1572604053341","2068616.0"
"1572604053385","2064991.0"
"1572604053434","2062342.0"
"1572604053494","2058733.0"
"1572604053534","2064028.0"
"1572604053581","2061427.0"
"1572604053641","2062329.0"
"1572604053674","2057986.0"
"1572604053722","2050068.0"
"1572604053772","2045901.0"
"1572604053825","2046758.0"
"1572604053874","2047638.0"
"1572604053918","2036516.0"
"1572604053986","2025833.0"
"1572604054019","2018616.0"
"1572604054070","2017178.0"
"1572604054115","2009559.0"
"1572604054170","1999616.0"
"1572604054214","1990064.0"
"1572604054267","1977411.0"
"1572604054318","1973438.0"
"1572604054363","1967987.0"
"1572604054409","1960047.0"
"1572604054463","1953495.0"
"1572604054504","1945600.0"
"1572604054552","1963450.0"
"1572604054601","1992844.0"
"1572604054650","1961226.0"
"1572604054697","1952056.0"
"1572604054749","1925276.0"
"1572604054795","1907421.0"
"1572604054844","1890533.0"
"1572604054893","1887280.0"
"1572604054942","1879954.0"
"1572604054993","1872788.0"
"1572604055048","1864433.0"
"1572604055089","1856205.0"
"1572604055142","1859175.0"
"1572604055187","1859441.0"
"1572604055243","1852911.0"
"1572604055284","1850754.0"
"1572604055338","1847610.0"
"1572604055382","1855457.0"
"1572604055433","1872062.0"
"1572604055482","1862552.0"
"1572604055543","1849128.0"
"1572604055577","1845475.0"
"1572604055630","1847606.0"
"1572604055674","1846609.0"
"1572604055722","1848287.0"
"1572604055775","1844994.0"
"1572604055821","1845270.0"
"1572604055874","1844230.0"
"1572604055918","1845908.0"
"1572604055968","1849675.0"
"1572604056015","1851507.0"
"1572604056066","1854201.0"
"1572604056114","1858334.0"
"1572604056163","1855280.0"
"1572604056211","1843644.0"
"1572604056263","1839914.0"
"1572604056314","1838713.0"
"1572604056356","1842791.0"
"1572604056408","1834896.0"
"1572604056454","1832246.0"
"1572604056514","1826795.0"
"1572604056558","1818374.0"
"1572604056604","1816582.0"
"1572604056651","1817925.0"
"1572604056698","1814135.0"
"1572604056752","1814855.0"
"1572604056796","1813461.0"
"1572604056852","1813953.0"
"1572604056905","1813699.0"
"1572604056948","1801918.0"
"1572604056999","1789500.0"
"1572604057056","1779104.0"
"1572604057101","1776221.0"
"1572604057149","1762616.0"
"1572604057197","1755926.0"
"1572604057252","1750702.0"
"1572604057293","1751936.0"
"1572604057347","1749749.0"
"1572604057397","1747661.0"
"1572604057437","1745286.0"
"1572604057496","1742482.0"
"1572604057536","1739127.0"
"1572604057585","1736777.0"
"1572604057635","1735543.0"
"1572604057684","1728741.0"
"1572604057725","1718806.0"
"1572604057779","1711670.0"
"1572604057820","1708686.0"
"1572604057875","1724682.0"
"1572604057918","1732356.0"
"1572604057972","1724659.0"
"1572604058018","1721742.0"
"1572604058066","1719499.0"
"1572604058114","1718631.0"
"1572604058162","1739377.0"
"1572604058222","1736315.0"
"1572604058263","1737213.0"
"1572604058309","1738103.0"
"1572604058358","1733617.0"
"1572604058414","1727967.0"
"1572604058468","1725868.0"
"1572604058507","1726234.0"
"1572604058557","1728774.0"
"1572604058601","1733546.0"
"1572604058651","1733890.0"
"1572604058702","1736708.0"
"1572604058753","1736712.0"
"1572604058795","1740066.0"
"1572604058847","1741570.0"
"1572604058896","1743526.0"
"1572604058943","1747265.0"
"1572604058992","1750777.0"
"1572604059053","1754674.0"
"1572604059092","1752443.0"
"1572604059145","1747303.0"
"1572604059191","1743315.0"
"1572604059241","1743772.0"
"1572604059287","1742592.0"
"1572604059349","1750182.0"
"1572604059392","1752919.0"
"1572604059433","1752399.0"
"1572604059489","1756489.0"
"1572604059530","1755203.0"
"1572604059576","1755008.0"
"1572604059634","1762673.0"
"1572604059683","1761749.0"
"1572604059724","1766302.0"
"1572604059778","1769577.0"
"1572604059828","1772450.0"
"1572604059878","1772111.0"
"1572604059928","1763309.0"
"1572604059967","1756820.0"
"1572604060018","1754302.0"
"1572604060065","1751641.0"
"1572604060115","1747043.0"
"1572604060162","1742358.0"
"1572604060213","1737892.0"
"1572604060259","1734217.0"
"1572604060310","1731744.0"
"1572604060358","1730505.0"
"1572604060409","1731523.0"
"1572604060455","1728826.0"
"1572604060505","1728741.0"
"1572604060554","1726687.0"
"1572604060600","1725819.0"
"1572604060649","1726189.0"
"1572604060699","1727278.0"
"1572604060750","1727746.0"
"1572604060797","1721451.0"
"1572604060849","1714539.0"
"1572604060900","1712993.0"
"1572604060948","1715285.0"
"1572604061010","1718074.0"
"1572604061058","1717841.0"
"1572604061097","1718265.0"
"1572604061153","1719371.0"
"1572604061195","1715267.0"
"1572604061239","1711256.0"
"1572604061285","1707483.0"
"1572604061339","1702101.0"
"1572604061386","1699425.0"
"1572604061431","1702440.0"
"1572604061488","1707483.0"
"1572604061530","1703612.0"
"1572604061576","1710506.0"
"1572604061624","1719592.0"
"1572604061673","1746809.0"
"1572604061721","1782623.0"
"1572604061771","1829113.0"
"1572604061818","1882374.0"
"1572604061874","1959617.0"
"1572604061915","2236399.0"
"1572604061966","2361640.0"
"1572604062014","2574181.0"
"1572604062064","2775082.0"
"1572604062112","2791925.0"
"1572604062160","2996965.0"
"1572604062209","2916569.0"
"1572604062264","2637974.0"
"1572604062310","2672375.0"
"1572604062357","2656282.0"
"1572604062410","2481875.0"
"1572604062452","2256424.0"
"1572604062511","2241989.0"
"1572604062554","2273007.0"
"1572604062600","2270128.0"
"1572604062651","2254815.0"
"1572604062697","2250467.0"
"1572604062750","2249476.0"
"1572604062795","2263428.0"
"1572604062851","2263574.0"
"1572604062894","2268497.0"
"1572604062944","2271364.0"
"1572604062993","2287512.0"
"1572604063044","2286579.0"
"1572604063091","2308825.0"
"1572604063149","2379556.0"
"1572604063188","2432373.0"
"1572604063244","2495108.0"
"1572604063285","2529818.0"
"1572604063341","2579309.0"
"1572604063385","2635838.0"
"1572604063433","2672835.0"
"1572604063496","2707029.0"
"1572604063528","2747763.0"
"1572604063584","2758861.0"
"1572604063635","2767262.0"
"1572604063682","2753968.0"
"1572604063723","2740069.0"
"1572604063779","2730290.0"
"1572604063827","2729413.0"
"1572604063877","2723716.0"
"1572604063921","2728307.0"
"1572604063977","2717354.0"
"1572604064013","2689103.0"
"1572604064063","2678936.0"
"1572604064112","2686945.0"
"1572604064170","2740843.0"
"1572604064213","2804577.0"
"1572604064267","2868910.0"
"1572604064314","2984687.0"
"1572604064357","3115438.0"
"1572604064409","3211546.0"
"1572604064460","3324070.0"
"1572604064503","3440276.0"
"1572604064562","3566273.0"
"1572604064608","3625132.0"
"1572604064655","3586110.0"
"1572604064707","3573969.0"
"1572604064764","3495706.0"
"1572604064798","3398152.0"
"1572604064856","3325474.0"
"1572604064898","3271056.0"
"1572604064946","3223478.0"
"1572604064995","3186482.0"
"1572604065043","3148186.0"
"1572604065087","3115916.0"
"1572604065146","3085578.0"
"1572604065187","3054401.0"
"1572604065251","3023845.0"
"1572604065291","2995803.0"
"1572604065340","2967316.0"
"1572604065394","2944512.0"
"1572604065435","2922160.0"
"1572604065480","2907574.0"
"1572604065527","2890329.0"
"1572604065583","2873114.0"
"1572604065629","2847099.0"
"1572604065681","2812986.0"
"1572604065723","2782841.0"
"1572604065780","2756679.0"
"1572604065827","2735733.0"
"1572604065876","2715292.0"
"1572604065926","2695698.0"
"1572604065976","2676847.0"
"1572604066015","2657625.0"
"1572604066064","2641708.0"
"1572604066112","2625109.0"
"1572604066162","2611074.0"
"1572604066213","2597075.0"
"1572604066261","2574516.0"
"1572604066318","2549067.0"
"1572604066355","2522437.0"
"1572604066407","2506014.0"
"1572604066460","2488441.0"
"1572604066514","2479616.0"
"1572604066554","2467191.0"
"1572604066608","2450466.0"
"1572604066659","2442857.0"
"1572604066698","2432134.0"
"1572604066761","2426524.0"
"1572604066804","2421443.0"
"1572604066859","2412050.0"
"1572604066900","2393638.0"
"1572604066952","2380487.0"
"1572604066993","2366754.0"
"1572604067046","2333084.0"
"1572604067089","2327003.0"
"1572604067153","2319969.0"
"1572604067195","2313506.0"
"1572604067236","2308577.0"
"1572604067291","2305091.0"
"1572604067333","2301112.0"
"1572604067393","2296957.0"
"1572604067435","2292857.0"
"1572604067480","2284895.0"
"1572604067535","2273607.0"
"1572604067582","2274121.0"
"1572604067624","2275598.0"
"1572604067682","2278956.0"
"1572604067739","2289338.0"
"1572604067776","2302496.0"
"1572604067823","2308089.0"
"1572604067875","2312960.0"
"1572604067923","2317927.0"
"1572604067977","2325780.0"
"1572604068014","2334394.0"
"1572604068063","2340989.0"
"1572604068111","2335585.0"
"1572604068170","2328259.0"
"1572604068209","2328226.0"
"1572604068256","2329774.0"
"1572604068307","2333062.0"
"1572604068356","2337084.0"
"1572604068405","2338129.0"
"1572604068456","2347160.0"
"1572604068503","2356014.0"
"1572604068552","2360911.0"
"1572604068606","2364806.0"
"1572604068648","2369442.0"
"1572604068706","2366157.0"
"1572604068754","2366677.0"
"1572604068802","2371163.0"
"1572604068861","2375436.0"
"1572604068898","2374572.0"
"1572604068950","2377472.0"
"1572604068989","2376791.0"
"1572604069044","2377421.0"
"1572604069087","2375058.0"
"1572604069140","2374062.0"
"1572604069193","2375247.0"
"1572604069251","2367634.0"
"1572604069289","2369891.0"
"1572604069334","2369962.0"
"1572604069390","2367400.0"
"1572604069435","2367622.0"
"1572604069478","2367496.0"
"1572604069535","2368308.0"
"1572604069582","2375186.0"
"1572604069631","2388809.0"
"1572604069671","2393092.0"
"1572604069721","2396661.0"
"1572604069779","2392257.0"
"1572604069823","2385241.0"
"1572604069874","2378617.0"
"1572604069920","2375180.0"
"1572604069973","2372601.0"
"1572604070012","2372707.0"
"1572604070060","2364285.0"
"1572604070109","2362863.0"
"1572604070159","2361348.0"
"1572604070209","2361081.0"
"1572604070265","2358298.0"
"1572604070305","2358548.0"
"1572604070360","2357707.0"
"1572604070406","2349915.0"
"1572604070453","2351006.0"
"1572604070502","2356798.0"
"1572604070550","2358647.0"
"1572604070597","2363887.0"
"1572604070654","2355870.0"
"1572604070694","2363560.0"
"1572604070745","2370289.0"
"1572604070800","2377860.0"
"1572604070851","2392500.0"
"1572604070895","2396097.0"
"1572604070944","2389656.0"
"1572604071001","2374101.0"
"1572604071041","2360362.0"
"1572604071084","2351979.0"
"1572604071142","2345937.0"
"1572604071190","2338129.0"
"1572604071239","2329000.0"
"1572604071280","2323063.0"
"1572604071336","2317053.0"
"1572604071388","2325664.0"
"1572604071432","2340293.0"
"1572604071480","2342440.0"
"1572604071532","2347995.0"
"1572604071581","2357556.0"
"1572604071628","2352749.0"
"1572604071676","2353263.0"
"1572604071719","2354072.0"
"1572604071769","2354818.0"
"1572604071821","2351609.0"
"1572604071871","2345571.0"
"1572604071919","2344874.0"
"1572604071970","2344261.0"
"1572604072011","2334029.0"
"1572604072058","2328541.0"
"1572604072109","2335126.0"
"1572604072168","2344964.0"
"1572604072208","2352268.0"
"1572604072253","2347542.0"
"1572604072309","2339933.0"
"1572604072363","2337592.0"
"1572604072406","2335546.0"
"1572604072449","2329447.0"
"1572604072499","2314225.0"
"1572604072547","2310144.0"
"1572604072596","2310093.0"
"1572604072645","2307968.0"
"1572604072697","2309506.0"
"1572604081428","2309069.0"
"1572604081428","2302805.0"
"1572604081428","2289503.0"
"1572604081428","2283373.0"
"1572604081429","2285236.0"
"1572604081429","2298628.0"
"1572604081429","2304217.0"
"1572604081429","2309827.0"
"1572604081429","2313014.0"
"1572604081430","2313451.0"
"1572604081430","2316245.0"
"1572604081430","2311830.0"
"1572604081430","2314004.0"
"1572604081431","2312943.0"
"1572604081431","2305428.0"
"1572604081431","2297892.0"
"1572604081431","2301283.0"
"1572604081431","2301521.0"
"1572604081432","2301141.0"
"1572604081432","2305877.0"
"1572604081432","2306712.0"
"1572604081432","2310462.0"
"1572604081432","2310757.0"
"1572604081433","2316655.0"
"1572604081433","2319510.0"
"1572604081433","2318331.0"
"1572604081433","2313856.0"
"1572604081433","2310160.0"
"1572604081434","2305621.0"
"1572604081434","2307785.0"
"1572604081434","2303995.0"
"1572604081434","2302506.0"
"1572604081435","2302130.0"
"1572604081435","2303597.0"
"1572604081435","2305212.0"
"1572604081442","2302850.0"
"1572604081443","2301748.0"
"1572604081446","2302268.0"
"1572604081446","2300747.0"
"1572604081447","2291734.0"
"1572604081447","2283666.0"
"1572604081447","2277132.0"
"1572604081447","2271597.0"
"1572604081448","2269401.0"
"1572604081448","2277701.0"
"1572604081448","2279556.0"
"1572604081448","2280324.0"
"1572604081448","2279334.0"
"1572604081449","2280982.0"
"1572604081449","2281319.0"
"1572604081449","2285730.0"
"1572604081449","2285121.0"
"1572604081450","2283660.0"
"1572604081450","2282658.0"
"1572604081450","2283373.0"
"1572604081450","2277065.0"
"1572604081450","2268094.0"
"1572604081451","2260675.0"
"1572604081451","2256105.0"
"1572604081451","2251828.0"
"1572604081451","2248307.0"
"1572604081452","2243449.0"
"1572604081452","2241525.0"
"1572604081452","2238453.0"
"1572604081452","2236517.0"
"1572604081452","2239522.0"
"1572604081453","2241846.0"
"1572604081453","2246438.0"
"1572604081453","2247866.0"
"1572604081453","2252641.0"
"1572604081454","2254793.0"
"1572604081454","2258074.0"
"1572604081454","2257091.0"
"1572604081454","2254516.0"
"1572604081454","2245934.0"
"1572604081455","2238161.0"
"1572604081455","2232744.0"
"1572604081455","2231858.0"
"1572604081455","2233004.0"
"1572604081456","2232305.0"
"1572604081456","2233971.0"
"1572604081457","2233236.0"
"1572604081457","2235499.0"
"1572604081458","2240125.0"
"1572604081459","2238614.0"
"1572604081459","2239500.0"
"1572604081459","2238039.0"
"1572604081459","2237346.0"
"1572604081460","2239638.0"
"1572604081460","2243831.0"
"1572604081461","2246139.0"
"1572604081461","2259750.0"
"1572604081461","2259496.0"
"1572604081461","2260410.0"
"1572604081462","2264913.0"
"1572604081462","2265130.0"
"1572604081462","2259547.0"
"1572604081462","2262148.0"
"1572604081463","2265532.0"
"1572604081463","2266473.0"
"1572604081463","2266871.0"
"1572604081463","2264151.0"
"1572604081464","2260796.0"
"1572604081464","2260498.0"
"1572604081464","2260851.0"
"1572604081464","2261351.0"
"1572604081465","2261428.0"
"1572604081465","2260492.0"
"1572604081465","2260366.0"
"1572604081465","2260033.0"
"1572604081466","2250914.0"
"1572604081466","2238547.0"
"1572604081467","2231111.0"
"1572604081467","2224664.0"
"1572604081467","2222943.0"
"1572604081468","2223215.0"
"1572604081468","2218075.0"
"1572604081468","2217278.0"
"1572604081468","2219003.0"
"1572604081469","2218650.0"
"1572604081469","2216602.0"
"1572604081469","2213946.0"
"1572604081469","2210123.0"
"1572604081470","2209936.0"
"1572604081470","2208751.0"
"1572604081471","2206118.0"
"1572604081474","2207628.0"
"1572604081476","2211673.0"
"1572604081476","2211397.0"
"1572604081476","2214899.0"
"1572604081476","2204883.0"
"1572604081477","2198962.0"
"1572604081477","2194415.0"
"1572604081477","2194692.0"
"1572604081477","2194104.0"
"1572604081477","2194432.0"
"1572604081478","2198156.0"
"1572604081478","2199848.0"
"1572604081478","2196843.0"
"1572604081478","2196654.0"
"1572604081479","2198509.0"
"1572604081479","2199495.0"
"1572604081479","2200911.0"
"1572604081479","2198005.0"
"1572604081479","2205525.0"
"1572604081480","2209962.0"
"1572604081480","2209298.0"
"1572604081480","2214422.0"
"1572604081480","2214200.0"
"1572604081480","2205049.0"
"1572604081481","2199235.0"
"1572604081481","2196798.0"
"1572604081481","2199499.0"
"1572604081481","2198836.0"
"1572604081482","2197103.0"
"1572604081482","2196733.0"
"1572604081482","2194037.0"
"1572604081482","2197292.0"
"1572604081482","2202459.0"
"1572604081483","2209249.0"
"1572604081483","2215899.0"
"1572604081483","2218999.0"
"1572604081483","2224516.0"
"1572604081483","2219879.0"
"1572604081484","2207118.0"
"1572604081484","2199316.0"
"1572604081484","2205470.0"
"1572604081484","2209641.0"
"1572604081485","2208857.0"
"1572604081485","2207030.0"
"1572604081485","2202022.0"
"1572604081485","2207622.0"
"1572604081486","2208867.0"
"1572604081486","2213814.0"
"1572604081486","2218601.0"
"1572604081486","2218357.0"
"1572604081486","2217677.0"
"1572604081487","2218705.0"
"1572604081487","2200417.0"
"1572604081511","2195216.0"
"1572604081561","2194679.0"
"1572604141429","1992419.0"
"1572604141429","1999402.0"
"1572604141429","2008283.0"
"1572604141430","2009213.0"
"1572604141430","2014569.0"
"1572604141432","2015284.0"
"1572604141432","2018564.0"
"1572604141433","2028462.0"
"1572604141442","2039293.0"
"1572604141442","2036410.0"
"1572604141442","2035559.0"
"1572604141442","2033611.0"
"1572604141443","2037089.0"
"1572604141443","2042181.0"
"1572604141443","2044544.0"
"1572604141443","2037428.0"
"1572604141444","2033210.0"
"1572604141445","2030764.0"
"1572604141447","2035114.0"
"1572604141448","2037534.0"
"1572604141449","2035709.0"
"1572604141450","2035630.0"
"1572604141450","2030230.0"
"1572604141451","2029340.0"
"1572604141451","2025085.0"
"1572604141451","2033867.0"
"1572604141451","2034876.0"
"1572604141452","2035860.0"
"1572604141452","2032367.0"
"1572604141452","2034533.0"
"1572604141452","2025766.0"
"1572604141453","2021508.0"
"1572604141453","2030799.0"
"1572604141453","2037940.0"
"1572604141453","2056850.0"
"1572604141453","2063660.0"
"1572604141454","2068270.0"
"1572604141454","2063800.0"
"1572604141454","2056293.0"
"1572604141454","2050375.0"
"1572604141455","2039844.0"
"1572604141455","2020370.0"
"1572604141456","1997409.0"
"1572604141473","1982563.0"
"1572604141473","1969830.0"
"1572604141474","1958877.0"
"1572604141474","1945274.0"
"1572604141474","1941827.0"
"1572604141474","1955437.0"
"1572604141475","1945203.0"
"1572604141475","1960326.0"
"1572604141476","1955677.0"
"1572604141476","1940689.0"
"1572604141476","1932838.0"
"1572604141477","1927757.0"
"1572604141477","1921074.0"
"1572604141477","1917372.0"
"1572604141477","1911998.0"
"1572604141478","1911633.0"
"1572604141478","1912515.0"
"1572604141478","1910588.0"
"1572604141478","1905765.0"
"1572604141478","1901600.0"
"1572604141479","1899475.0"
"1572604141479","1896699.0"
"1572604141479","1893467.0"
"1572604141479","1885895.0"
"1572604141479","1875793.0"
"1572604141480","1866329.0"
"1572604141480","1860506.0"
"1572604141480","1855975.0"
"1572604141480","1889753.0"
"1572604141480","1907586.0"
"1572604141481","1955531.0"
"1572604141481","1992208.0"
"1572604141484","2030222.0"
"1572604141485","2039915.0"
"1572604141485","2028017.0"
"1572604141486","2009258.0"
"1572604141486","2000954.0"
"1572604141486","1993169.0"
"1572604141486","1981242.0"
"1572604141486","1972703.0"
"1572604141487","1961998.0"
"1572604141487","1949994.0"
"1572604141487","1936026.0"
"1572604141487","1919691.0"
"1572604141487","1904804.0"
"1572604141489","1896663.0"
"1572604141489","1885657.0"
"1572604141490","1880425.0"
"1572604141490","1877843.0"
"1572604141490","1870626.0"
"1572604141490","1859858.0"
"1572604141491","1843281.0"
"1572604141491","1824138.0"
"1572604141491","1808347.0"
"1572604141492","1793312.0"
"1572604141494","1780504.0"
"1572604141494","1771237.0"
"1572604141494","1763344.0"
"1572604141494","1754404.0"
"1572604141495","1745497.0"
"1572604141495","1737010.0"
"1572604141501","1731092.0"
"1572604141501","1725797.0"
"1572604141501","1718538.0"
"1572604141501","1707280.0"
"1572604141502","1694396.0"
"1572604141502","1685774.0"
"1572604141502","1676001.0"
"1572604141502","1667147.0"
"1572604141503","1661372.0"
"1572604141503","1652049.0"
"1572604141503","1643217.0"
"1572604141503","1632920.0"
"1572604141504","1624779.0"
"1572604141504","1624187.0"
"1572604141504","1621235.0"
"1572604141504","1616262.0"
"1572604141505","1602549.0"
"1572604141505","1590353.0"
"1572604141506","1580818.0"
"1572604141507","1574424.0"
"1572604141507","1568142.0"
"1572604141511","1562605.0"
"1572604141511","1556408.0"
"1572604141511","1551321.0"
"1572604141512","1548980.0"
"1572604141512","1549271.0"
"1572604141512","1546971.0"
"1572604141512","1543237.0"
"1572604141513","1537503.0"
"1572604141513","1518553.0"
"1572604141513","1502575.0"
"1572604141513","1509217.0"
"1572604141514","1514528.0"
"1572604141514","1509556.0"
"1572604141514","1505519.0"
"1572604141514","1503378.0"
"1572604141514","1501196.0"
"1572604141515","1498924.0"
"1572604141515","1497092.0"
"1572604141516","1493530.0"
"1572604141516","1492939.0"
"1572604141516","1491608.0"
"1572604141517","1488249.0"
"1572604141517","1482999.0"
"1572604141517","1478296.0"
"1572604141518","1473875.0"
"1572604141518","1467930.0"
"1572604141518","1463588.0"
"1572604141518","1462692.0"
"1572604141519","1455904.0"
"1572604141519","1454041.0"
"1572604141519","1452903.0"
"1572604141519","1452903.0"
"1572604141519","1459078.0"
"1572604141520","1459220.0"
"1572604141520","1459421.0"
"1572604141520","1455089.0"
"1572604141520","1453574.0"
"1572604141520","1453714.0"
"1572604141521","1443813.0"
"1572604141521","1435849.0"
"1572604141521","1446300.0"
"1572604141521","1452730.0"
"1572604141521","1455075.0"
"1572604141522","1451863.0"
"1572604141522","1448754.0"
"1572604141522","1445678.0"
"1572604141522","1445859.0"
"1572604141523","1443537.0"
"1572604141523","1452462.0"
"1572604141523","1453498.0"
"1572604141523","1456473.0"
"1572604141523","1455534.0"
"1572604141524","1456936.0"
"1572604141524","1481157.0"
"1572604141524","1529750.0"
"1572604141524","1574889.0"
"1572604141524","1619514.0"
"1572604141525","1649184.0"
"1572604141525","1684681.0"
"1572604141525","1723721.0"
"1572604141526","1767765.0"
"1572604141526","1795811.0"
"1572604141526","1791337.0"
"1572604141526","1784348.0"
"1572604141527","1784612.0"
"1572604141527","1779714.0"
"1572604141527","1766367.0"
"1572604141527","1747917.0"
"1572604141527","1730832.0"
"1572604141528","1715638.0"
"1572604141530","1705085.0"
"1572604141530","1699226.0"
"1572604141530","1705142.0"
"1572604141531","1698698.0"
"1572604141531","1698874.0"
"1572604141531","1699667.0"
"1572604141532","1698072.0"
"1572604141532","1691160.0"
"1572604141532","1690384.0"
"1572604141532","1690985.0"
"1572604141533","1691473.0"
"1572604141533","1690544.0"
"1572604141533","1692686.0"
"1572604141533","1698781.0"
"1572604141534","1700589.0"
"1572604141534","1698954.0"
"1572604141534","1681119.0"
"1572604141534","1658199.0"
"1572604141534","1651468.0"
"1572604141535","1655324.0"
"1572604141535","1664188.0"
"1572604141535","1653737.0"
"1572604141536","1654351.0"
"1572604141536","1650110.0"
"1572604141536","1657189.0"
"1572604141536","1659582.0"
"1572604141537","1665066.0"
"1572604141537","1659235.0"
"1572604141537","1668270.0"
"1572604141538","1674882.0"
"1572604141538","1674666.0"
"1572604141538","1673856.0"
"1572604141539","1670660.0"
"1572604141539","1673274.0"
"1572604141539","1678910.0"
"1572604141539","1684963.0"
"1572604141540","1682852.0"
"1572604141540","1666265.0"
"1572604141540","1651490.0"
"1572604141540","1647928.0"
"1572604141540","1657181.0"
"1572604141541","1654475.0"
"1572604141541","1648038.0"
"1572604141541","1644838.0"
"1572604141541","1640929.0"
"1572604141541","1651114.0"
"1572604141542","1647465.0"
"1572604141542","1639161.0"
"1572604141542","1627983.0"
"1572604141542","1633783.0"
"1572604141543","1638883.0"
"1572604141543","1642965.0"
"1572604141543","1642093.0"
"1572604141543","1635957.0"
"1572604141543","1631672.0"
"1572604141544","1639192.0"
"1572604141544","1638261.0"
"1572604141544","1631729.0"
"1572604141544","1623165.0"
"1572604141545","1621059.0"
"1572604141545","1629679.0"
"1572604141546","1634986.0"
"1572604141546","1627105.0"
"1572604141546","1616739.0"
"1572604141546","1608734.0"
"1572604141546","1613326.0"
"1572604141547","1621022.0"
"1572604141547","1623102.0"
"1572604141547","1622932.0"
"1572604141547","1621662.0"
"1572604141548","1626912.0"
"1572604141548","1632928.0"
"1572604141548","1628436.0"
"1572604141548","1617527.0"
"1572604141548","1611893.0"
"1572604141549","1615839.0"
"1572604141549","1615386.0"
"1572604141549","1612820.0"
"1572604141549","1610969.0"
"1572604141549","1605546.0"
"1572604141550","1614606.0"
"1572604141550","1626335.0"
"1572604141552","1619181.0"
"1572604141552","1610902.0"
"1572604141553","1608937.0"
"1572604141553","1610498.0"
"1572604141553","1614059.0"
"1572604141553","1604321.0"
"1572604141554","1595920.0"
"1572604141554","1591115.0"
"1572604141554","1599861.0"
"1572604141554","1607936.0"
"1572604141555","1606330.0"
"1572604141555","1602255.0"
"1572604141555","1599733.0"
"1572604141555","1602659.0"
"1572604141556","1605075.0"
"1572604141556","1597541.0"
"1572604141556","1587356.0"
"1572604141557","1579857.0"
"1572604141557","1586852.0"
"1572604141557","1601576.0"
"1572604141557","1611851.0"
"1572604141558","1599225.0"
"1572604141558","1597242.0"
"1572604141558","1590190.0"
"1572604141558","1595836.0"
"1572604141559","1597114.0"
"1572604141559","1594743.0"
"1572604141559","1589004.0"
"1572604141559","1599301.0"
"1572604141560","1598957.0"
"1572604141560","1594721.0"
"1572604141560","1591336.0"
"1572604141560","1588197.0"
"1572604141560","1591005.0"
"1572604141561","1605004.0"
"1572604141561","1633219.0"
"1572604141561","1693828.0"
"1572604141561","1702308.0"
"1572604141562","1702930.0"
"1572604141562","1713997.0"
"1572604141562","1706046.0"
"1572604141562","1683622.0"
"1572604141563","1667143.0"
"1572604141563","1654735.0"
"1572604141563","1656899.0"
"1572604141563","1657445.0"
"1572604141564","1650692.0"
"1572604141564","1636335.0"
"1572604141564","1630364.0"
"1572604141564","1630896.0"
"1572604141565","1631993.0"
"1572604141566","1617987.0"
"1572604141566","1625364.0"
"1572604141566","1611422.0"
"1572604141566","1610678.0"
"1572604141567","1608539.0"
"1572604141567","1605414.0"
"1572604141567","1594831.0"
"1572604141567","1584729.0"
"1572604141568","1585536.0"
"1572604141568","1598132.0"
"1572604141568","1603687.0"
"1572604141568","1609994.0"
"1572604141569","1611723.0"
"1572604141569","1603783.0"
"1572604141569","1602818.0"
"1572604141569","1593090.0"
"1572604141570","1580749.0"
"1572604141570","1584583.0"
"1572604141570","1627097.0"
"1572604141570","1621816.0"
"1572604141571","1623456.0"
"1572604141571","1621101.0"
"1572604141571","1618771.0"
"1572604141571","1620093.0"
"1572604141571","1628032.0"
"1572604141572","1623415.0"
"1572604141572","1608324.0"
"1572604141572","1597027.0"
"1572604141572","1590225.0"
"1572604141573","1602444.0"
"1572604141573","1617531.0"
"1572604141573","1620784.0"
"1572604141573","1605798.0"
"1572604141574","1600944.0"
"1572604141574","1605987.0"
"1572604141574","1606985.0"
"1572604141574","1601174.0"
"1572604141575","1597123.0"
"1572604141575","1593372.0"
"1572604141575","1602281.0"
"1572604141576","1603096.0"
"1572604141576","1602598.0"
"1572604141576","1605701.0"
"1572604141577","1610237.0"
"1572604141577","1610721.0"
"1572604141577","1609092.0"
"1572604141578","1607050.0"
"1572604141578","1593447.0"
"1572604141578","1584975.0"
"1572604141578","1598529.0"
"1572604141579","1631869.0"
"1572604141579","1638292.0"
"1572604141580","1620768.0"
"1572604141580","1615376.0"
"1572604141581","1610445.0"
"1572604141581","1617052.0"
"1572604141581","1612454.0"
"1572604141582","1605979.0"
"1572604141582","1597537.0"
"1572604141582","1602700.0"
"1572604141583","1617615.0"
"1572604141583","1622958.0"
"1572604141583","1624409.0"
"1572604141584","1615014.0"
"1572604141585","1616325.0"
"1572604141585","1611026.0"
"1572604141585","1600843.0"
"1572604141586","1589926.0"
"1572604180308","1584178.0"
"1572604180308","1595298.0"
"1572604180308","1618316.0"
"1572604180309","1637315.0"
"1572604180309","1637386.0"
"1572604180310","1628182.0"
"1572604180310","1617836.0"
"1572604180310","1613366.0"
"1572604180310","1610223.0"
"1572604180311","1600424.0"
"1572604180311","1596330.0"
"1572604180311","1593557.0"
"1572604180311","1617011.0"
"1572604180312","1620874.0"
"1572604180312","1621782.0"
"1572604180312","1614980.0"
"1572604180312","1611060.0"
"1572604180312","1606706.0"
"1572604180313","1595430.0"
"1572604180313","1580712.0"
"1572604180313","1572100.0"
"1572604180313","1579487.0"
"1572604180314","1601210.0"
"1572604180314","1619021.0"
"1572604180314","1636945.0"
"1572604180314","1631089.0"
"1572604180315","1622853.0"
"1572604180315","1616144.0"
"1572604180315","1616002.0"
"1572604180315","1593748.0"
"1572604180315","1582825.0"
"1572604180360","1595483.0"
"1572604180361","1620252.0"
"1572604180361","1635586.0"
"1572604180361","1630848.0"
"1572604180361","1620723.0"
"1572604180362","1613072.0"
"1572604180362","1607558.0"
"1572604180362","1599640.0"
"1572604180362","1585204.0"
"1572604180363","1589339.0"
"1572604180363","1607785.0"
"1572604180363","1631796.0"
"1572604180363","1639923.0"
"1572604180364","1634974.0"
"1572604180364","1619291.0"
"1572604180364","1611666.0"
"1572604180364","1616650.0"
"1572604180365","1611282.0"
"1572604180365","1602482.0"
"1572604180365","1592622.0"
"1572604180365","1601629.0"
"1572604180366","1623271.0"
"1572604180366","1626630.0"
"1572604180366","1619216.0"
"1572604180367","1610796.0"
"1572604180367","1601192.0"
"1572604180367","1594910.0"
"1572604180367","1588100.0"
"1572604180372","1575363.0"
"1572604180372","1573573.0"
"1572604180373","1597657.0"
"1572604180373","1618793.0"
"1572604180373","1643085.0"
"1572604180373","1658361.0"
"1572604180374","1649982.0"
"1572604180374","1635687.0"
"1572604180374","1622869.0"
"1572604180374","1628107.0"
"1572604180375","1625136.0"
"1572604180375","1613326.0"
"1572604180375","1601294.0"
"1572604180376","1613720.0"
"1572604180376","1636191.0"
"1572604180377","1633357.0"
"1572604180377","1625612.0"
"1572604180377","1607834.0"
"1572604180377","1603571.0"
"1572604180378","1600883.0"
"1572604180378","1593315.0"
"1572604180378","1579818.0"
"1572604180378","1564184.0"
"1572604180379","1573894.0"
"1572604180379","1590710.0"
"1572604180380","1614520.0"
"1572604180380","1626298.0"
"1572604180380","1629886.0"
"1572604180381","1630659.0"
"1572604180381","1625423.0"
"1572604180381","1621128.0"
"1572604180382","1614500.0"
"1572604180382","1606521.0"
"1572604180383","1602425.0"
"1572604180383","1625990.0"
"1572604180383","1635740.0"
"1572604180383","1631945.0"
"1572604180384","1628485.0"
"1572604180384","1625669.0"
"1572604180384","1625959.0"
"1572604180384","1620321.0"
"1572604180385","1607966.0"
"1572604180385","1597480.0"
"1572604180385","1607905.0"
"1572604180385","1629019.0"
"1572604180385","1643420.0"
"1572604180386","1648109.0"
"1572604180386","1632056.0"
"1572604180386","1623671.0"
"1572604180386","1619709.0"
"1572604180387","1625148.0"
"1572604180387","1627477.0"
"1572604180387","1617038.0"
"1572604180387","1609236.0"
"1572604180387","1609823.0"
"1572604180388","1628643.0"
"1572604180388","1635141.0"
"1572604180388","1632148.0"
"1572604180388","1626264.0"
"1572604180388","1629464.0"
"1572604180389","1627749.0"
"1572604180389","1619661.0"
"1572604180389","1606737.0"
"1572604180390","1598837.0"
"1572604180390","1610863.0"
"1572604180390","1629641.0"
"1572604180390","1641096.0"
"1572604180391","1646504.0"
"1572604180391","1635638.0"
"1572604180391","1630659.0"
"1572604180391","1631254.0"
"1572604180391","1633942.0"
"1572604180392","1628988.0"
"1572604180392","1611396.0"
"1572604180392","1612277.0"
"1572604180392","1629181.0"
"1572604180393","1643014.0"
"1572604180393","1641646.0"
"1572604180393","1640628.0"
"1572604180393","1636327.0"
"1572604180394","1629830.0"
"1572604180394","1629600.0"
"1572604180394","1623950.0"
"1572604180394","1613819.0"
"1572604180394","1616619.0"
"1572604180395","1636939.0"
"1572604180395","1654011.0"
"1572604180395","1670954.0"
"1572604180395","1668433.0"
"1572604180396","1663012.0"
"1572604180396","1657498.0"
"1572604180397","1656868.0"
"1572604180401","1654337.0"
"1572604180401","1639196.0"
"1572604180401","1637278.0"
"1572604180402","1638725.0"
"1572604180402","1649507.0"
"1572604180402","1648434.0"
"1572604180403","1656224.0"
"1572604180403","1649731.0"
"1572604180403","1643993.0"
"1572604180403","1638227.0"
"1572604180404","1638818.0"
"1572604180404","1625148.0"
"1572604180404","1613379.0"
"1572604180404","1632400.0"
"1572604180404","1655029.0"
"1572604180405","1670987.0"
"1572604180405","1668685.0"
"1572604180405","1654178.0"
"1572604180405","1649048.0"
"1572604180406","1652926.0"
"1572604180406","1656364.0"
"1572604180406","1643436.0"
"1572604180406","1637575.0"
"1572604180406","1634115.0"
"1572604180407","1644883.0"
"1572604180407","1653760.0"
"1572604180407","1655893.0"
"1572604180407","1646403.0"
"1572604180407","1643123.0"
"1572604180408","1636983.0"
"1572604180408","1633113.0"
"1572604180408","1624598.0"
"1572604180408","1616940.0"
"1572604180409","1625545.0"
"1572604180409","1647368.0"
"1572604180409","1658674.0"
"1572604180409","1662787.0"
"1572604180410","1657295.0"
"1572604180410","1653178.0"
"1572604180410","1646606.0"
"1572604180410","1644954.0"
"1572604180411","1638011.0"
"1572604180411","1626471.0"
"1572604180411","1627383.0"
"1572604180411","1644265.0"
"1572604180411","1667720.0"
"1572604180412","1669552.0"
"1572604180412","1667380.0"
"1572604180412","1668926.0"
"1572604180412","1664898.0"
"1572604180413","1654554.0"
"1572604180413","1648855.0"
"1572604180413","1626022.0"
"1572604180413","1621349.0"
"1572604180413","1648780.0"
"1572604180414","1673031.0"
"1572604180414","1696032.0"
"1572604180414","1698072.0"
"1572604180414","1685985.0"
"1572604180415","1684786.0"
"1572604180415","1682407.0"
"1572604180415","1680000.0"
"1572604180415","1668089.0"
"1572604180416","1658317.0"
"1572604180416","1666785.0"
"1572604180416","1664889.0"
"1572604180416","1668138.0"
"1572604180416","1676513.0"
"1572604180417","1693007.0"
"1572604180417","1689067.0"
"1572604180417","1685497.0"
"1572604180417","1677090.0"
"1572604180418","1662744.0"
"1572604180418","1648132.0"
"1572604180418","1651581.0"
"1572604180418","1662398.0"
"1572604180418","1684526.0"
"1572604180419","1699139.0"
"1572604180419","1686633.0"
"1572604180419","1675820.0"
"1572604180420","1677779.0"
"1572604180420","1688177.0"
"1572604180421","1685130.0"
"1572604180421","1676332.0"
"1572604180421","1675826.0"
"1572604180421","1681481.0"
"1572604180422","1701747.0"
"1572604180422","1714734.0"
"1572604180422","1713503.0"
"1572604180422","1706849.0"
"1572604180423","1702912.0"
"1572604180423","1700020.0"
"1572604180423","1688340.0"
"1572604180423","1672413.0"
"1572604180424","1672017.0"
"1572604180424","1692434.0"
"1572604180424","1715175.0"
"1572604180424","1719432.0"
"1572604180425","1709074.0"
"1572604180425","1700360.0"
"1572604180425","1695626.0"
"1572604180425","1711837.0"
"1572604180425","1708923.0"
"1572604180426","1702968.0"
"1572604180426","1690591.0"
"1572604180426","1700868.0"
"1572604180427","1704762.0"
"1572604180427","1706790.0"
"1572604180427","1734802.0"
"1572604180428","1751399.0"
"1572604180428","1755828.0"
"1572604180428","1759390.0"
"1572604180428","1756216.0"
"1572604180428","1738554.0"
"1572604180429","1715236.0"
"1572604180429","1710110.0"
"1572604180429","1718009.0"
"1572604180430","1730742.0"
"1572604180430","1731224.0"
"1572604180430","1721297.0"
"1572604180431","1712451.0"
"1572604180431","1712213.0"
"1572604180432","1716977.0"
"1572604180433","1709251.0"
"1572604180433","1703202.0"
"1572604180433","1695400.0"
"1572604180434","1710004.0"
"1572604180434","1718926.0"
"1572604180434","1738435.0"
"1572604180434","1747925.0"
"1572604180435","1738030.0"
"1572604180435","1730003.0"
"1572604180435","1718651.0"
"1572604180435","1702670.0"
"1572604180436","1680652.0"
"1572604180436","1687789.0"
"1572604180436","1714072.0"
"1572604180436","1742023.0"
"1572604180437","1747163.0"
"1572604180437","1736407.0"
"1572604180437","1725133.0"
"1572604180437","1715330.0"
"1572604180438","1719476.0"
"1572604180438","1709051.0"
"1572604180438","1701042.0"
"1572604180438","1696256.0"
"1572604180439","1711498.0"
"1572604180439","1717719.0"
"1572604180439","1707597.0"
"1572604180440","1728099.0"
"1572604180440","1747303.0"
"1572604180440","1741767.0"
"1572604180440","1737699.0"
"1572604180441","1726208.0"
"1572604180441","1702176.0"
"1572604180441","1683161.0"
"1572604180441","1684108.0"
"1572604180442","1700770.0"
"1572604180442","1717388.0"
"1572604180442","1715998.0"
"1572604180443","1711418.0"
"1572604180443","1707544.0"
"1572604180443","1699620.0"
"1572604180443","1696944.0"
"1572604180444","1690918.0"
"1572604180444","1685276.0"
"1572604180444","1695400.0"
"1572604180444","1712357.0"
"1572604180444","1716445.0"
"1572604180445","1725594.0"
"1572604180445","1724092.0"
"1572604180445","1719212.0"
"1572604180445","1715695.0"
"1572604180446","1712349.0"
"1572604180446","1700668.0"
"1572604180446","1678831.0"
"1572604180446","1676867.0"
"1572604180446","1692730.0"
"1572604180447","1716083.0"
"1572604180447","1732207.0"
"1572604180447","1722038.0"
"1572604180447","1708696.0"
"1572604180448","1703001.0"
"1572604180448","1709947.0"
"1572604180448","1703978.0"
"1572604180448","1695471.0"
"1572604180449","1677206.0"
"1572604180449","1686158.0"
"1572604180449","1688124.0"
"1572604180456","1698614.0"
"1572604180459","1705742.0"
"1572604180460","1693232.0"
"1572604180460","1689264.0"
"1572604180460","1682446.0"
"1572604180461","1675115.0"
"1572604180461","1663831.0"
"1572604180461","1661240.0"
"1572604180461","1678650.0"
"1572604180462","1698434.0"
"1572604180462","1709549.0"
"1572604180462","1717109.0"
"1572604180462","1703680.0"
"1572604180462","1697397.0"
"1572604180463","1703763.0"
"1572604180463","1704155.0"
"1572604180463","1698434.0"
"1572604180463","1690152.0"
"1572604180464","1686611.0"
"1572604180464","1695038.0"
"1572604180464","1706329.0"
"1572604180464","1715029.0"
"1572604180464","1721851.0"
"1572604180465","1727063.0"
"1572604180465","1722183.0"
"1572604180465","1716985.0"
"1572604180465","1706500.0"
"1572604180465","1686422.0"
"1572604180466","1688145.0"
"1572604180466","1698505.0"
"1572604180466","1714113.0"
"1572604180466","1720856.0"
"1572604180466","1713909.0"
"1572604180467","1709590.0"
"1572604180467","1710080.0"
"1572604180467","1715161.0"
"1572604180467","1707316.0"
"1572604180467","1698222.0"
"1572604180468","1712737.0"
"1572604180468","1732118.0"
"1572604180468","1734261.0"
"1572604180468","1736143.0"
"1572604180469","1756088.0"
"1572604180469","1755784.0"
"1572604180469","1751765.0"
"1572604180470","1750231.0"
"1572604180470","1737616.0"
"1572604180470","1715315.0"
"1572604180470","1702828.0"
"1572604180471","1702974.0"
"1572604180471","1713117.0"
"1572604180471","1727217.0"
"1572604180471","1725374.0"
"1572604180471","1717898.0"
"1572604180472","1707893.0"
"1572604180472","1700321.0"
"1572604180472","1696979.0"
"1572604180472","1689583.0"
"1572604180473","1688212.0"
"1572604180473","1690270.0"
"1572604180473","1696692.0"
"1572604180473","1694929.0"
"1572604180473","1696975.0"
"1572604180474","1694894.0"
"1572604180474","1696680.0"
"1572604180474","1695697.0"
"1572604180474","1686278.0"
"1572604180474","1674428.0"
"1572604180475","1665048.0"
"1572604180475","1676113.0"
"1572604180475","1688374.0"
"1572604180475","1711335.0"
"1572604180476","1728235.0"
"1572604180476","1715214.0"
"1572604180476","1701595.0"
"1572604180476","1696485.0"
"1572604180477","1697503.0"
"1572604180477","1690719.0"
"1572604180477","1680018.0"
"1572604180477","1673565.0"
"1572604180477","1680583.0"
"1572604180478","1689291.0"
"1572604180478","1693104.0"
"1572604180478","1684390.0"
"1572604180478","1674552.0"
"1572604180478","1673283.0"
"1572604180479","1674768.0"
"1572604180479","1671749.0"
"1572604180479","1661761.0"
"1572604180481","1654611.0"
"1572604180481","1657118.0"
"1572604180482","1670011.0"
"1572604180482","1689693.0"
"1572604180482","1694220.0"
"1572604180482","1691940.0"
"1572604180483","1690857.0"
"1572604180483","1704529.0"
"1572604180483","1697235.0"
"1572604180483","1687115.0"
"1572604180484","1680101.0"
"1572604180484","1683596.0"
"1572604180484","1689870.0"
"1572604180484","1685593.0"
"1572604180484","1680885.0"
"1572604180485","1680079.0"
"1572604180485","1686617.0"
"1572604180485","1717485.0"
"1572604180485","1768289.0"
"1572604180486","1776678.0"
"1572604180486","1763846.0"
"1572604180486","1761810.0"
"1572604180486","1771749.0"
"1572604180487","1784704.0"
"1572604180487","1789659.0"
"1572604180487","1771274.0"
"1572604180487","1765319.0"
"1572604180487","1764557.0"
"1572604180488","1764817.0"
"1572604180488","1757401.0"
"1572604180488","1754313.0"
"1572604180488","1753612.0"
"1572604180489","1758602.0"
"1572604180489","1765160.0"
"1572604180489","1767094.0"
"1572604180497","1755938.0"
"1572604180497","1751261.0"
"1572604180498","1748947.0"
"1572604180498","1744958.0"
"1572604180498","1737986.0"
"1572604180498","1720222.0"
"1572604180499","1715858.0"
"1572604180499","1723196.0"
"1572604180499","1743746.0"
"1572604180500","1759116.0"
"1572604180500","1753427.0"
"1572604180501","1732951.0"
"1572604180501","1716035.0"
"1572604180501","1710208.0"
"1572604180501","1715797.0"
"1572604180501","1717441.0"
"1572604180502","1719054.0"
"1572604180502","1743120.0"
"1572604180502","1750318.0"
"1572604180502","1752380.0"
"1572604180502","1751818.0"
"1572604180503","1745152.0"
"1572604180503","1748467.0"
"1572604180503","1751923.0"
"1572604180503","1748603.0"
"1572604180504","1736320.0"
"1572604180504","1727967.0"
"1572604180504","1725895.0"
"1572604180504","1735310.0"
"1572604180504","1744381.0"
"1572604180505","1745135.0"
"1572604180505","1731356.0"
"1572604180505","1723954.0"
"1572604180505","1717678.0"
"1572604180506","1727199.0"
"1572604180506","1724247.0"
"1572604180506","1719251.0"
"1572604180506","1711890.0"
"1572604180506","1723995.0"
"1572604180507","1722298.0"
"1572604180507","1725480.0"
"1572604180507","1733361.0"
"1572604180507","1731620.0"
"1572604180508","1731108.0"
"1572604180508","1729347.0"
"1572604180508","1725133.0"
"1572604180508","1713503.0"
"1572604180508","1699783.0"
"1572604180509","1698486.0"
"1572604180509","1701166.0"
"1572604180509","1705847.0"
"1572604180510","1707253.0"
"1572604180510","1692840.0"
"1572604180510","1684796.0"
"1572604180511","1686365.0"
"1572604180511","1694886.0"
"1572604180511","1693563.0"
"1572604180512","1689979.0"
"1572604180512","1687832.0"
"1572604180512","1692003.0"
"1572604180513","1688332.0"
"1572604180513","1690865.0"
"1572604180514","1689128.0"
"1572604180515","1692724.0"
"1572604180515","1694277.0"
"1572604180515","1689203.0"
"1572604180516","1681288.0"
"1572604180516","1670434.0"
"1572604180516","1680369.0"
"1572604180516","1698442.0"
"1572604180517","1715262.0"
"1572604180517","1722170.0"
"1572604180517","1710049.0"
"1572604180517","1701833.0"
"1572604180518","1695445.0"
"1572604180518","1705244.0"
"1572604180518","1706089.0"
"1572604180518","1703330.0"
"1572604180519","1700427.0"
"1572604180519","1715244.0"
"1572604180526","1737504.0"
"1572604180526","1739735.0"
"1572604180526","1736964.0"
"1572604180527","1728574.0"
"1572604180527","1732299.0"
"1572604180527","1732325.0"
"1572604180527","1727967.0"
"1572604180528","1721455.0"
"1572604180528","1717162.0"
"1572604180528","1729019.0"
"1572604180528","1754875.0"
"1572604180530","1776912.0"
"1572604180530","1770877.0"
"1572604180531","1756696.0"
"1572604180531","1747726.0"
"1572604180531","1752716.0"
"1572604180532","1758681.0"
"1572604180532","1755471.0"
"1572604180533","1755274.0"
"1572604180533","1754498.0"
"1572604180533","1759089.0"
"1572604180534","1760637.0"
"1572604180534","1757758.0"
"1572604180534","1747555.0"
"1572604180534","1747492.0"
"1572604180535","1742256.0"
"1572604180535","1735803.0"
"1572604180535","1726520.0"
"1572604180536","1715866.0"
"1572604180536","1724448.0"
"1572604180536","1742724.0"
"1572604180536","1765432.0"
"1572604180537","1778080.0"
"1572604180537","1765428.0"
"1572604180537","1758587.0"
"1572604180537","1760002.0"
"1572604180537","1763626.0"
"1572604180538","1757366.0"
"1572604180538","1747492.0"
"1572604180538","1745109.0"
"1572604180539","1749331.0"
"1572604180539","1757509.0"
"1572604180539","1758888.0"
"1572604180540","1756326.0"
"1572604180540","1753977.0"
"1572604180540","1747206.0"
"1572604180540","1740873.0"
"1572604180541","1734714.0"
"1572604180541","1726988.0"
"1572604180541","1726502.0"
"1572604180541","1743443.0"
"1572604180542","1755225.0"
"1572604180542","1757167.0"
"1572604180542","1743676.0"
"1572604180542","1739387.0"
"1572604180543","1741427.0"
"1572604180543","1748317.0"
"1572604180543","1742848.0"
"1572604180543","1745267.0"
"1572604180543","1732329.0"
"1572604180544","1745905.0"
"1572604180544","1744733.0"
"1572604180544","1752791.0"
"1572604180544","1757588.0"
"1572604180545","1750979.0"
"1572604180545","1747974.0"
"1572604180545","1739599.0"
"1572604180545","1735163.0"
"1572604180546","1735107.0"
"1572604180546","1731933.0"
"1572604180546","1745509.0"
"1572604180546","1766239.0"
"1572604180547","1775884.0"
"1572604180547","1775593.0"
"1572604180547","1763608.0"
"1572604180547","1760871.0"
"1572604180548","1762029.0"
"1572604180548","1765195.0"
"1572604180548","1765138.0"
"1572604180548","1752324.0"
"1572604180549","1761991.0"
"1572604180549","1776497.0"
"1572604180549","1792361.0"
"1572604180550","1808079.0"
"1572604180550","1800947.0"
"1572604180550","1789415.0"
"1572604180550","1781906.0"
"1572604180551","1773133.0"
"1572604180551","1759333.0"
"1572604180551","1745434.0"
"1572604180552","1755652.0"
"1572604180552","1782355.0"
"1572604180552","1809978.0"
"1572604180552","1816573.0"
"1572604180553","1813642.0"
"1572604180553","1800092.0"
"1572604180553","1792516.0"
"1572604180553","1796636.0"
"1572604180554","1791876.0"
"1572604180554","1773204.0"
"1572604180554","1777712.0"
"1572604180554","1780892.0"
"1572604180555","1801581.0"
"1572604180555","1818402.0"
"1572604180555","1837990.0"
"1572604180555","1829280.0"
"1572604180556","1820897.0"
"1572604180556","1802711.0"
"1572604180556","1790228.0"
"1572604180556","1776193.0"
"1572604180557","1770603.0"
"1572604180557","1775888.0"
"1572604180557","1796248.0"
"1572604180557","1821218.0"
"1572604180558","1832084.0"
"1572604180558","1825771.0"
"1572604180558","1821096.0"
"1572604180558","1819314.0"
"1572604180559","1815576.0"
"1572604180559","1809277.0"
"1572604180559","1796236.0"
"1572604180560","1797205.0"
"1572604180560","1785600.0"
"1572604180560","1777387.0"
"1572604180560","1819887.0"
"1572604180561","1825755.0"
"1572604180561","1821738.0"
"1572604180561","1821937.0"
"1572604180561","1806880.0"
"1572604180562","1798712.0"
"1572604180562","1791729.0"
"1572604180562","1797800.0"
"1572604180562","1815206.0"
"1572604180563","1831330.0"
"1572604180563","1842505.0"
"1572604180563","1833191.0"
"1572604180563","1834567.0"
"1572604180564","1829589.0"
"1572604180564","1837813.0"
"1572604180564","1836523.0"
"1572604180564","1831515.0"
"1572604180565","1824711.0"
"1572604180565","1841653.0"
"1572604180565","1835985.0"
"1572604180565","1832671.0"
"1572604180566","1828744.0"
"1572604180566","1828998.0"
"1572604180566","1844321.0"
"1572604180566","1837911.0"
"1572604180566","1829585.0"
"1572604180567","1819725.0"
"1572604180567","1816829.0"
"1572604180567","1811900.0"
"1572604180567","1817644.0"
"1572604180568","1826332.0"
"1572604180568","1831515.0"
"1572604180568","1831868.0"
"1572604180568","1844827.0"
"1572604180569","1848890.0"
"1572604180569","1837533.0"
"1572604180569","1838035.0"
"1572604180569","1821169.0"
"1572604180570","1815767.0"
"1572604180570","1808652.0"
"1572604180570","1810635.0"
"1572604180570","1813024.0"
"1572604180571","1811346.0"
"1572604180571","1803284.0"
"1572604180571","1788525.0"
"1572604180572","1776822.0"
"1572604180572","1770957.0"
"1572604180572","1767592.0"
"1572604180572","1792845.0"
"1572604180573","1819270.0"
"1572604180573","1864098.0"
"1572604180573","1865782.0"
"1572604180573","1849904.0"
"1572604180574","1849293.0"
"1572604180574","1849323.0"
"1572604180574","1858937.0"
"1572604180574","1858377.0"
"1572604180575","1845642.0"
"1572604180575","1852802.0"
"1572604180575","1917931.0"
"1572604180575","1936193.0"
"1572604180576","1956417.0"
"1572604180576","1958867.0"
"1572604180576","1949805.0"
"1572604180576","1946538.0"
"1572604180577","1928149.0"
"1572604180577","1905731.0"
"1572604180577","1871548.0"
"1572604180577","1863194.0"
"1572604180578","1924209.0"
"1572604180579","1995052.0"
"1572604180580","2016495.0"
"1572604180580","2004260.0"
"1572604180580","1976513.0"
"1572604180580","1958430.0"
"1572604180581","1960671.0"
"1572604180581","1956817.0"
"1572604180581","1944254.0"
"1572604180581","1918037.0"
"1572604180582","1913193.0"
"1572604180582","1921655.0"
"1572604180582","1926109.0"
"1572604180582","1924526.0"
"1572604180582","1908482.0"
"1572604180583","1893282.0"
"1572604180583","1881575.0"
"1572604180583","1868044.0"
"1572604180583","1850363.0"
"1572604180584","1860000.0"
"1572604180584","1897687.0"
"1572604180584","1922801.0"
"1572604180584","1938891.0"
"1572604180585","1937259.0"
"1572604180585","1932306.0"
"1572604180585","1925566.0"
"1572604180585","1925345.0"
"1572604180586","1913912.0"
"1572604180586","1906631.0"
"1572604180586","1894507.0"
"1572604180586","1904099.0"
"1572604180586","1928801.0"
"1572604180587","1937696.0"
"1572604180587","1945754.0"
"1572604180587","1936898.0"
"1572604180587","1930010.0"
"1572604180588","1922176.0"
"1572604180588","1904113.0"
"1572604180588","1883426.0"
"1572604180588","1868974.0"
"1572604180589","1894005.0"
"1572604180589","1933539.0"
"1572604180589","1962910.0"
"1572604180589","1964157.0"
"1572604180590","1950051.0"
"1572604180590","1945193.0"
"1572604180590","1941585.0"
"1572604180590","1940778.0"
"1572604180591","1928295.0"
"1572604180591","1909831.0"
"1572604180591","1907145.0"
"1572604180591","1949752.0"
"1572604180592","2061222.0"
"1572604180592","2142529.0"
"1572604180592","2152072.0"
"1572604180592","2147258.0"
"1572604180592","2133912.0"
"1572604180593","2114931.0"
"1572604180593","2086987.0"
"1572604180593","2051577.0"
"1572604180593","2017544.0"
"1572604180594","2014896.0"
"1572604180594","2033479.0"
"1572604180594","2041469.0"
"1572604180594","2043018.0"
"1572604180595","2023499.0"
"1572604180595","2008553.0"
"1572604180595","1996734.0"
"1572604180595","2009461.0"
"1572604180596","1993222.0"
"1572604180596","1979068.0"
"1572604180596","1962402.0"
"1572604180596","1987673.0"
"1572604180596","1999987.0"
"1572604180597","2000518.0"
"1572604180597","1989101.0"
"1572604180597","1975419.0"
"1572604180597","1965413.0"
"1572604180598","1960697.0"
"1572604180598","1947812.0"
"1572604180598","1945784.0"
"1572604180598","1962892.0"
"1572604180599","1999640.0"
"1572604180599","2028639.0"
"1572604180599","2024433.0"
"1572604180600","2016668.0"
"1572604180600","2012978.0"
"1572604180600","2009518.0"
"1572604180600","2017562.0"
"1572604180601","2006028.0"
"1572604180601","1993398.0"
"1572604180601","2026567.0"
"1572604180601","2080867.0"
"1572604180627","2073837.0"
"1572604180677","2113385.0"
"1572604180727","2147748.0"
"1572604180775","2197063.0"
"1572604180824","2272944.0"
"1572604180874","2352505.0"
"1572604180923","2439407.0"
"1572604180972","2422556.0"
"1572604181021","2407868.0"
"1572604181070","2323750.0"
"1572604181118","2327875.0"
"1572604181166","2360868.0"
"1572604181216","2385243.0"
"1572604181265","2442329.0"
"1572604181314","2506437.0"
"1572604181362","2545351.0"
"1572604181410","2550127.0"
"1572604181460","2566798.0"
"1572604181509","2588476.0"
"1572604181556","2614188.0"
"1572604181607","2661347.0"
"1572604181655","2787598.0"
"1572604181703","2861372.0"
"1572604181753","2923389.0"
"1572604181801","2909324.0"
"1572604181849","2793634.0"
"1572604181899","2788837.0"
"1572604181947","2822064.0"
"1572604181997","2859158.0"
"1572604182043","2876838.0"
"1572604182092","2898539.0"
"1572604182141","2884120.0"
"1572604182191","2930820.0"
"1572604182241","2937914.0"
"1572604182290","2949262.0"
"1572604182338","2955005.0"
"1572604182388","2950087.0"
"1572604182437","2956505.0"
"1572604182484","2966731.0"
"1572604182534","2987231.0"
"1572604182583","3003975.0"
"1572604182632","2976503.0"
"1572604182681","2968850.0"
"1572604182731","2966432.0"
"1572604182879","2987674.0"
"1572604182925","3021897.0"
"1572604182972","3020714.0"
"1572604183021","3041080.0"
"1572604183072","3053072.0"
"1572604183120","3058545.0"
"1572604183168","3052895.0"
"1572604183218","3062087.0"
"1572604183266","3086703.0"
"1572604183314","3082796.0"
"1572604183365","3087246.0"
"1572604183414","3071934.0"
"1572604183462","3055772.0"
"1572604183511","3068505.0"
"1572604183560","3069789.0"
"1572604183609","3048673.0"
"1572604183658","3024619.0"
"1572604183706","3078420.0"
"1572604201437","3078962.0"
"1572604201437","3079836.0"
"1572604201438","3078121.0"
"1572604201438","3065709.0"
"1572604201440","3064964.0"
"1572604201441","3094377.0"
"1572604201441","3131207.0"
"1572604201441","3128336.0"
"1572604201446","3125963.0"
"1572604201446","3110712.0"
"1572604201446","3108658.0"
"1572604201446","3095960.0"
"1572604201447","3086787.0"
"1572604201447","3054931.0"
"1572604201447","3025617.0"
"1572604201447","3084568.0"
"1572604201448","3073180.0"
"1572604201448","3069600.0"
"1572604201448","3067430.0"
"1572604201448","3075299.0"
"1572604201449","3096415.0"
"1572604201449","3114735.0"
"1572604201449","3212702.0"
"1572604201449","3445160.0"
"1572604201450","3448336.0"
"1572604201450","3400064.0"
"1572604201450","3366674.0"
"1572604201450","3358551.0"
"1572604201451","3338680.0"
"1572604201452","3298344.0"
"1572604201452","3218525.0"
"1572604201452","3195259.0"
"1572604201452","3183268.0"
"1572604201452","3182850.0"
"1572604201453","3184182.0"
"1572604201453","3190857.0"
"1572604201453","3223946.0"
"1572604201453","3259294.0"
"1572604201454","3267596.0"
"1572604201454","3489470.0"
"1572604201463","3634013.0"
"1572604201465","3636173.0"
"1572604201466","3605573.0"
"1572604201466","3560129.0"
"1572604201466","3517157.0"
"1572604201467","3463450.0"
"1572604201467","3419767.0"
"1572604201467","3442606.0"
"1572604201467","3407603.0"
"1572604201468","3377503.0"
"1572604201468","3362332.0"
"1572604201468","3333566.0"
"1572604201468","3314813.0"
"1572604201469","3298598.0"
"1572604201469","3340308.0"
"1572604201469","3527320.0"
"1572604201469","3678338.0"
"1572604201470","3799659.0"
"1572604201470","3787889.0"
"1572604201470","3744040.0"
"1572604201470","3716286.0"
"1572604201471","3663026.0"
"1572604201471","3603805.0"
"1572604201471","3494239.0"
"1572604201471","3598098.0"
"1572604201472","3490543.0"
"1572604201473","3425954.0"
"1572604201473","3389273.0"
"1572604201476","3381731.0"
"1572604201476","3392160.0"
"1572604201476","3406923.0"
"1572604201477","3475655.0"
"1572604201477","3686018.0"
"1572604201477","3870142.0"
"1572604201477","3866049.0"
"1572604201477","3773159.0"
"1572604201478","3803867.0"
"1572604201478","3770053.0"
"1572604201478","3705417.0"
"1572604201478","3689786.0"
"1572604201479","3650590.0"
"1572604201480","3699722.0"
"1572604201480","3566169.0"
"1572604201480","3507894.0"
"1572604201480","3439638.0"
"1572604201481","3405143.0"
"1572604201481","3399702.0"
"1572604201481","3411772.0"
"1572604201481","3459577.0"
"1572604201482","3625163.0"
"1572604201482","3670668.0"
"1572604201482","3695567.0"
"1572604201482","3677844.0"
"1572604201482","3620890.0"
"1572604201483","3587614.0"
"1572604201483","3561681.0"
"1572604201483","3540270.0"
"1572604201483","3570277.0"
"1572604201484","3515556.0"
"1572604201484","3472660.0"
"1572604201484","3438939.0"
"1572604201485","3433370.0"
"1572604201486","3453374.0"
"1572604201486","3481774.0"
"1572604201486","3504268.0"
"1572604201486","3686546.0"
"1572604201487","3736183.0"
"1572604201487","3732691.0"
"1572604201487","3689492.0"
"1572604201487","3645576.0"
"1572604201487","3628432.0"
"1572604201488","3616975.0"
"1572604201488","3606826.0"
"1572604201488","3561008.0"
"1572604201488","3489497.0"
"1572604201489","3439845.0"
"1572604201489","3406571.0"
"1572604201489","3380045.0"
"1572604201489","3376916.0"
"1572604201501","3393714.0"
"1572604201501","3408357.0"
"1572604201502","3461451.0"
"1572604201502","3728743.0"
"1572604201502","3907506.0"
"1572604201502","3882640.0"
"1572604201503","3768364.0"
"1572604201503","3751655.0"
"1572604201503","3721553.0"
"1572604201503","3658752.0"
"1572604201503","3657486.0"
"1572604201504","3653757.0"
"1572604201504","3653804.0"
"1572604201504","3516544.0"
"1572604201505","3438919.0"
"1572604201505","3379791.0"
"1572604201505","3359939.0"
"1572604201505","3357811.0"
"1572604201505","3395374.0"
"1572604201506","3446867.0"
"1572604201506","3360520.0"
"1572604201506","3317668.0"
"1572604201506","3299878.0"
"1572604201506","3308080.0"
"1572604201507","3324450.0"
"1572604201507","3317835.0"
"1572604201507","3306459.0"
"1572604201507","3264296.0"
"1572604201508","3351663.0"
"1572604201508","3272437.0"
"1572604201508","3256053.0"
"1572604201508","3234102.0"
"1572604201508","3231427.0"
"1572604201509","3238597.0"
"1572604201509","3255726.0"
"1572604201509","3308913.0"
"1572604201509","3365347.0"
"1572604201509","3334747.0"
"1572604201510","3315421.0"
"1572604201510","3303204.0"
"1572604201510","3289242.0"
"1572604201511","3289268.0"
"1572604201511","3279166.0"
"1572604201511","3263575.0"
"1572604201511","3225360.0"
"1572604201512","3220778.0"
"1572604201512","3193699.0"
"1572604201512","3196960.0"
"1572604201512","3190664.0"
"1572604201514","3208035.0"
"1572604201514","3216243.0"
"1572604201515","3262222.0"
"1572604201515","3530666.0"
"1572604201515","3533807.0"
"1572604201515","3487831.0"
"1572604201516","3456176.0"
"1572604201516","3437557.0"
"1572604201516","3430269.0"
"1572604201516","3405496.0"
"1572604201517","3395006.0"
"1572604201517","3423888.0"
"1572604201517","3395415.0"
"1572604201517","3378590.0"
"1572604201518","3375884.0"
"1572604201518","3364900.0"
"1572604201518","3373742.0"
"1572604201519","3385673.0"
"1572604201519","3401929.0"
"1572604201519","3419893.0"
"1572604201519","3405604.0"
"1572604201520","3386298.0"
"1572604201520","3371621.0"
"1572604201520","3386138.0"
"1572604201520","3386646.0"
"1572604201521","3383511.0"
"1572604201521","3348163.0"
"1572604201521","3381211.0"
"1572604201521","3385719.0"
"1572604201522","3384185.0"
"1572604201522","3380644.0"
"1572604201522","3361820.0"
"1572604201522","3353425.0"
"1572604201522","3358352.0"
"1572604201523","3321996.0"
"1572604201528","3308954.0"
"1572604201528","3340820.0"
"1572604201529","3408857.0"
"1572604201529","3389805.0"
"1572604201529","3363232.0"
"1572604201530","3368015.0"
"1572604201530","3362100.0"
"1572604201530","3341007.0"
"1572604201530","3293730.0"
"1572604201531","3333365.0"
"1572604201531","3276812.0"
"1572604201531","3260214.0"
"1572604201531","3262541.0"
"1572604201532","3266096.0"
"1572604201532","3278191.0"
"1572604201532","3300244.0"
"1572604201533","3351996.0"
"1572604201533","3591769.0"
"1572604201533","3818498.0"
"1572604201533","3834581.0"
"1572604201533","3830641.0"
"1572604201534","3856713.0"
"1572604201534","3836708.0"
"1572604201538","3780961.0"
"1572604201538","3752962.0"
"1572604201538","3830753.0"
"1572604201538","3827132.0"
"1572604201539","3718706.0"
"1572604201539","3640114.0"
"1572604201539","3594057.0"
"1572604201539","3572545.0"
"1572604201540","3579940.0"
"1572604201540","3575344.0"
"1572604201540","3816531.0"
"1572604201540","3882067.0"
"1572604201541","3873050.0"
"1572604201541","3838149.0"
"1572604201541","3801933.0"
"1572604201541","3756383.0"
"1572604201542","3721260.0"
"1572604201542","3703684.0"
"1572604201542","3642361.0"
"1572604201542","3690973.0"
"1572604201542","3596789.0"
"1572604201543","3563428.0"
"1572604201543","3541764.0"
"1572604201543","3499645.0"
"1572604201543","3479135.0"
"1572604201544","3486443.0"
"1572604201544","3519252.0"
"1572604201544","3729629.0"
"1572604201545","3897478.0"
"1572604201545","3813030.0"
"1572604201547","3826492.0"
"1572604201547","3767417.0"
"1572604201548","3701843.0"
"1572604201548","3645114.0"
"1572604201548","3596424.0"
"1572604201549","3551479.0"
"1572604201549","3532294.0"
"1572604201549","3431990.0"
"1572604201550","3407825.0"
"1572604201550","3392119.0"
"1572604201550","3394954.0"
"1572604201550","3381298.0"
"1572604201551","3351677.0"
"1572604201551","3444666.0"
"1572604201551","3588522.0"
"1572604201551","3645935.0"
"1572604201552","3581826.0"
"1572604201552","3549159.0"
"1572604201552","3536548.0"
"1572604201552","3523813.0"
"1572604201553","3477707.0"
"1572604201553","3393174.0"
"1572604201553","3475100.0"
"1572604201553","3360286.0"
"1572604201553","3321382.0"
"1572604201554","3321102.0"
"1572604201554","3327930.0"
"1572604201554","3347909.0"
"1572604201555","3377044.0"
"1572604201555","3373689.0"
"1572604201555","3251533.0"
"1572604201555","3183642.0"
"1572604201556","3167433.0"
"1572604201556","3155108.0"
"1572604201556","3156037.0"
"1572604201556","3158471.0"
"1572604201557","3156163.0"
"1572604201557","3134957.0"
"1572604201557","3090139.0"
"1572604201557","3062519.0"
"1572604201558","3039461.0"
"1572604201558","3031484.0"
"1572604201558","3022289.0"
"1572604201558","3036793.0"
"1572604201558","3063700.0"
"1572604201559","3102876.0"
"1572604201559","3165878.0"
"1572604201559","3203821.0"
"1572604201559","3200713.0"
"1572604201560","3157182.0"
"1572604201560","3146947.0"
"1572604201560","3144547.0"
"1572604201560","3133643.0"
"1572604201561","3119447.0"
"1572604201561","3081445.0"
"1572604201565","3135752.0"
"1572604201565","3109579.0"
"1572604201568","3087798.0"
"1572604201568","3077843.0"
"1572604201569","3077042.0"
"1572604201569","3093768.0"
"1572604201569","3127482.0"
"1572604201570","3197013.0"
"1572604201570","3310953.0"
"1572604201571","3428215.0"
"1572604201571","3383631.0"
"1572604201571","3302318.0"
"1572604201571","3285808.0"
"1572604201572","3283634.0"
"1572604201572","3281320.0"
"1572604201573","3271724.0"
"1572604201573","3321876.0"
"1572604201574","3311601.0"
"1572604201574","3280067.0"
"1572604201574","3276505.0"
"1572604201583","3263116.0"
"1572604201583","3261687.0"
"1572604201584","3274071.0"
"1572604201584","3281332.0"
"1572604201584","3440211.0"
"1572604201585","3612413.0"
"1572604201585","3743819.0"
"1572604201585","3676202.0"
"1572604201586","3670276.0"
"1572604201586","3603384.0"
"1572604201586","3571224.0"
"1572604201586","3521359.0"
"1572604201587","3548865.0"
"1572604201587","3678923.0"
"1572604201587","3661072.0"
"1572604201587","3575978.0"
"1572604201588","3520885.0"
"1572604201588","3488223.0"
"1572604201588","3491584.0"
"1572604201588","3515910.0"
"1572604201589","3575426.0"
"1572604201589","3750968.0"
"1572604201589","3896984.0"
"1572604201589","3960899.0"
"1572604201590","3939273.0"
"1572604201590","3879046.0"
"1572604201590","3827013.0"
"1572604201590","3772639.0"
"1572604201591","3711290.0"
"1572604201591","3592228.0"
"1572604201591","3658071.0"
"1572604201591","3532080.0"
"1572604201592","3490677.0"
"1572604201592","3474241.0"
"1572604253467","3462196.0"
"1572604253469","3547932.0"
"1572604253473","3675209.0"
"1572604253476","3720667.0"
"1572604253479","3697294.0"
"1572604253481","3650763.0"
"1572604253483","3621770.0"
"1572604253484","3613427.0"
"1572604253484","3573611.0"
"1572604253484","3545498.0"
"1572604253485","3538488.0"
"1572604253485","3477928.0"
"1572604253485","3415245.0"
"1572604253485","3406756.0"
"1572604253486","3414678.0"
"1572604253486","3405750.0"
"1572604253487","3385498.0"
"1572604253487","3349562.0"
"1572604253487","3330586.0"
"1572604253488","3359398.0"
"1572604253488","3346602.0"
"1572604253488","3311061.0"
"1572604253489","3314108.0"
"1572604253489","3321697.0"
"1572604253489","3293756.0"
"1572604253490","3261381.0"
"1572604253490","3134470.0"
"1572604253490","3257654.0"
"1572604253490","3098861.0"
"1572604253491","3064167.0"
"1572604253491","3051070.0"
"1572604253492","3034365.0"
"1572604253492","3042415.0"
"1572604253492","3069301.0"
"1572604253492","3109138.0"
"1572604253493","3171799.0"
"1572604253493","3228227.0"
"1572604253514","3187338.0"
"1572604253514","3135404.0"
"1572604253515","3118693.0"
"1572604253515","3110211.0"
"1572604253515","3086285.0"
"1572604253515","3042474.0"
"1572604253516","3092020.0"
"1572604253516","3052511.0"
"1572604253516","2998404.0"
"1572604253516","2997337.0"
"1572604253517","3007766.0"
"1572604253517","3030666.0"
"1572604253517","3062274.0"
"1572604253517","3104889.0"
"1572604253518","3146833.0"
"1572604253518","3180962.0"
"1572604253518","3147920.0"
"1572604253518","3091553.0"
"1572604253519","3076376.0"
"1572604253519","3076811.0"
"1572604253519","3067694.0"
"1572604253520","3040587.0"
"1572604253520","3026450.0"
"1572604253521","3049417.0"
"1572604253521","2994622.0"
"1572604253521","2975412.0"
"1572604253522","2948024.0"
"1572604253522","2944550.0"
"1572604253522","2960861.0"
"1572604253522","2982213.0"
"1572604253523","3029518.0"
"1572604253523","3050624.0"
"1572604253523","3039821.0"
"1572604253523","3003131.0"
"1572604253552","2978133.0"
"1572604253552","2977046.0"
"1572604253552","2979518.0"
"1572604253553","2966357.0"
"1572604253553","2926279.0"
"1572604253553","3012213.0"
"1572604253554","2977099.0"
"1572604253554","2967277.0"
"1572604253555","2963035.0"
"1572604253555","2947978.0"
"1572604253555","2954227.0"
"1572604253555","2976532.0"
"1572604253556","3016809.0"
"1572604253556","3046483.0"
"1572604253556","3066347.0"
"1572604253557","3082684.0"
"1572604253557","3052503.0"
"1572604253557","3048023.0"
"1572604253557","3040522.0"
"1572604253558","3024091.0"
"1572604253558","2985406.0"
"1572604253558","3031826.0"
"1572604253558","3014595.0"
"1572604253559","3004952.0"
"1572604253559","3013928.0"
"1572604253559","2998330.0"
"1572604253560","2979399.0"
"1572604253560","2986841.0"
"1572604253560","3028224.0"
"1572604253560","3140378.0"
"1572604253561","3163217.0"
"1572604253561","3162518.0"
"1572604253561","3098428.0"
"1572604253561","3076910.0"
"1572604253562","3084125.0"
"1572604253562","3055118.0"
"1572604253562","3011748.0"
"1572604253562","2937742.0"
"1572604253563","2944743.0"
"1572604253563","2955227.0"
"1572604253563","2990795.0"
"1572604253563","3004119.0"
"1572604253574","3032799.0"
"1572604253574","3043581.0"
"1572604253575","3047476.0"
"1572604253575","3042620.0"
"1572604253575","3021076.0"
"1572604253575","3031773.0"
"1572604253576","2979927.0"
"1572604253576","2981640.0"
"1572604253576","2997950.0"
"1572604253576","2991703.0"
"1572604253577","2974492.0"
"1572604253577","2908468.0"
"1572604253577","2985695.0"
"1572604253577","2913263.0"
"1572604253577","2895158.0"
"1572604253578","2902093.0"
"1572604253578","2898054.0"
"1572604253578","2904068.0"
"1572604253579","2900973.0"
"1572604253579","2872966.0"
"1572604253579","2856935.0"
"1572604253579","2868325.0"
"1572604253580","2830023.0"
"1572604253580","2840892.0"
"1572604253580","2867439.0"
"1572604253580","2866531.0"
"1572604253581","2851328.0"
"1572604253581","2806070.0"
"1572604253581","2883063.0"
"1572604253581","2787685.0"
"1572604253582","2769101.0"
"1572604253582","2774997.0"
"1572604253582","2787173.0"
"1572604253583","2809291.0"
"1572604253583","2836232.0"
"1572604253583","2847193.0"
"1572604253583","2860897.0"
"1572604253594","2852142.0"
"1572604253594","2798549.0"
"1572604253595","2780932.0"
"1572604253595","2788699.0"
"1572604253595","2803557.0"
"1572604253595","2803403.0"
"1572604253596","2757245.0"
"1572604253596","2817399.0"
"1572604253596","2789359.0"
"1572604253596","2756764.0"
"1572604253597","2772096.0"
"1572604253597","2768121.0"
"1572604253597","2787833.0"
"1572604253597","2828862.0"
"1572604253598","2868766.0"
"1572604253598","3021815.0"
"1572604253598","3167351.0"
"1572604253598","3049931.0"
"1572604253599","3017975.0"
"1572604253599","2967237.0"
"1572604253599","2964175.0"
"1572604253599","2962482.0"
"1572604253600","2855415.0"
"1572604253600","2930320.0"
"1572604253600","2956507.0"
"1572604253601","2887430.0"
"1572604253601","2870239.0"
"1572604253604","2877801.0"
"1572604253604","2889723.0"
"1572604253604","2901627.0"
"1572604253605","2902934.0"
"1572604253605","2931567.0"
"1572604253605","2930141.0"
"1572604253606","2911735.0"
"1572604253606","2903533.0"
"1572604253606","2902186.0"
"1572604253606","2908822.0"
"1572604253607","2884343.0"
"1572604253607","2864950.0"
"1572604253607","2837365.0"
"1572604253607","2879008.0"
"1572604253608","2866446.0"
"1572604253608","2883283.0"
"1572604253608","2884443.0"
"1572604253608","2894799.0"
"1572604253612","2902048.0"
"1572604253613","2898407.0"
"1572604253613","2910683.0"
"1572604253613","2885690.0"
"1572604253614","2869993.0"
"1572604253614","2882529.0"
"1572604253614","2906388.0"
"1572604253615","2896426.0"
"1572604253615","2879429.0"
"1572604253616","2816993.0"
"1572604253616","2880268.0"
"1572604253617","2843119.0"
"1572604253617","2837371.0"
"1572604253617","2871992.0"
"1572604253618","2892879.0"
"1572604253618","2902074.0"
"1572604253618","2897152.0"
"1572604253618","2884309.0"
"1572604253618","2874967.0"
"1572604253619","2856777.0"
"1572604253619","2851494.0"
"1572604253619","2850509.0"
"1572604253620","2858983.0"
"1572604253620","2858177.0"
"1572604253621","2847420.0"
"1572604253621","2823235.0"
"1572604253622","2794695.0"
"1572604253623","2791180.0"
"1572604253624","2781458.0"
"1572604253625","2797915.0"
"1572604253627","2799089.0"
"1572604253654","2802809.0"
"1572604253655","2806397.0"
"1572604253655","2794768.0"
"1572604253656","2731759.0"
"1572604253656","2742641.0"
"1572604253656","2745341.0"
"1572604253656","2767809.0"
"1572604253657","2811526.0"
"1572604253657","2788126.0"
"1572604253657","2799229.0"
"1572604253657","2794920.0"
"1572604253658","2735780.0"
"1572604253658","2720989.0"
"1572604253658","2705552.0"
"1572604253658","2679653.0"
"1572604253659","2674186.0"
"1572604253659","2684653.0"
"1572604253659","2702892.0"
"1572604253660","2729626.0"
"1572604253661","2713640.0"
"1572604253661","2718429.0"
"1572604253661","2719122.0"
"1572604253661","2748690.0"
"1572604253662","2805237.0"
"1572604253662","2780418.0"
"1572604253662","2757544.0"
"1572604253662","2728098.0"
"1572604253662","2815500.0"
"1572604253663","2763166.0"
"1572604253663","2752371.0"
"1572604253663","2754043.0"
"1572604253663","2759332.0"
"1572604253664","2767488.0"
"1572604253664","2783299.0"
"1572604253664","2808452.0"
"1572604253664","2829275.0"
"1572604253665","2833891.0"
"1572604253665","2809165.0"
"1572604253665","2829029.0"
"1572604253665","2873126.0"
"1572604253666","2822627.0"
"1572604253666","2772236.0"
"1572604253666","2703672.0"
"1572604253666","2691815.0"
"1572604253667","2719528.0"
"1572604253667","2754350.0"
"1572604253667","2782004.0"
"1572604253667","2810591.0"
"1572604253667","2828749.0"
"1572604253668","2841912.0"
"1572604253668","2998158.0"
"1572604253668","3041655.0"
"1572604253668","3098195.0"
"1572604253669","3066821.0"
"1572604253669","3040154.0"
"1572604253669","3032124.0"
"1572604253669","3027571.0"
"1572604253670","3011281.0"
"1572604253670","2955201.0"
"1572604253670","2982481.0"
"1572604253670","2983188.0"
"1572604253671","2978413.0"
"1572604253671","3004639.0"
"1572604253671","3008505.0"
"1572604253671","2998576.0"
"1572604253671","3011687.0"
"1572604253672","3085478.0"
"1572604253672","3190903.0"
"1572604253672","3431237.0"
"1572604253672","3478068.0"
"1572604253673","3377917.0"
"1572604253673","3406096.0"
"1572604253673","3366814.0"
"1572604253673","3323611.0"
"1572604253694","3243910.0"
"1572604253694","3222779.0"
"1572604253695","3265936.0"
"1572604253696","3214236.0"
"1572604253696","3179387.0"
"1572604253696","3138084.0"
"1572604253696","3110404.0"
"1572604253697","3094314.0"
"1572604253697","3075976.0"
"1572604253697","3073661.0"
"1572604253697","3067188.0"
"1572604253697","3039660.0"
"1572604253698","3036873.0"
"1572604253698","3023276.0"
"1572604253698","2999978.0"
"1572604253698","2969797.0"
"1572604253699","2929233.0"
"1572604253699","2909529.0"
"1572604253699","2979013.0"
"1572604253700","2942057.0"
"1572604253700","2932061.0"
"1572604253700","2912635.0"
"1572604253700","2895945.0"
"1572604253700","2899013.0"
"1572604253701","2920531.0"
"1572604253701","2979193.0"
"1572604253701","3025131.0"
"1572604253701","2951066.0"
"1572604253702","2924405.0"
"1572604253702","2922012.0"
"1572604253702","2912910.0"
"1572604253702","2893437.0"
"1572604253703","2855021.0"
"1572604253703","2791966.0"
"1572604253703","2807090.0"
"1572604253703","2774442.0"
"1572604253704","2780990.0"
"1572604253704","2740093.0"
"1572604253704","2720109.0"
"1572604253705","2735880.0"
"1572604253705","2776651.0"
"1572604253705","2834204.0"
"1572604253706","2957821.0"
"1572604253706","3079523.0"
"1572604253707","3120668.0"
"1572604253707","3088298.0"
"1572604253707","3005431.0"
"1572604253707","2992495.0"
"1572604253708","2957988.0"
"1572604253708","2951980.0"
"1572604253714","2993336.0"
"1572604253714","2930734.0"
"1572604253714","2903308.0"
"1572604253715","2882135.0"
"1572604253715","2859316.0"
"1572604253715","2876448.0"
"1572604253715","2906061.0"
"1572604253716","2992229.0"
"1572604253716","3067893.0"
"1572604253716","3056678.0"
"1572604253716","3015361.0"
"1572604253716","3024138.0"
"1572604253717","3020710.0"
"1572604253717","2994584.0"
"1572604253717","2978165.0"
"1572604253718","2934729.0"
"1572604253718","2947238.0"
"1572604253718","2923152.0"
"1572604253719","2931602.0"
"1572604253719","2963023.0"
"1572604253719","2970831.0"
"1572604253720","2976625.0"
"1572604253720","2982007.0"
"1572604253720","3028805.0"
"1572604253720","3137385.0"
"1572604253721","3146386.0"
"1572604253721","3144279.0"
"1572604253721","3136491.0"
"1572604253721","3168418.0"
"1572604253721","3145000.0"
"1572604253722","3102222.0"
"1572604253722","3077463.0"
"1572604253722","3124561.0"
"1572604253722","3082150.0"
"1572604253723","3076490.0"
"1572604253723","3084017.0"
"1572604253723","3081077.0"
"1572604253723","3066613.0"
"1572604253724","3061666.0"
"1572604253724","3077656.0"
"1572604253724","3080571.0"
"1572604253724","3107350.0"
"1572604253725","3099481.0"
"1572604253725","3115979.0"
"1572604253725","3159111.0"
"1572604253725","3134925.0"
"1572604253726","3089154.0"
"1572604253726","3055425.0"
"1572604253726","3128809.0"
"1572604253726","3066481.0"
"1572604253726","3059998.0"
"1572604253727","3083532.0"
"1572604253727","3083658.0"
"1572604253727","3075470.0"
"1572604253727","3055764.0"
"1572604253728","3063054.0"
"1572604253728","3068761.0"
"1572604253728","3115680.0"
"1572604253728","3096421.0"
"1572604253729","3114652.0"
"1572604253729","3129662.0"
"1572604253729","3104264.0"
"1572604253729","3073682.0"
"1572604253729","3043523.0"
"1572604253730","3137418.0"
"1572604253730","3079383.0"
"1572604253730","3051091.0"
"1572604253730","3068720.0"
"1572604253731","3059139.0"
"1572604253731","3042602.0"
"1572604253731","3023337.0"
"1572604253731","3008060.0"
"1572604253732","3030005.0"
"1572604253732","3043681.0"
"1572604253732","3033778.0"
"1572604253732","3019623.0"
"1572604253732","3025310.0"
"1572604253733","3028577.0"
"1572604253733","3000397.0"
"1572604253733","2943343.0"
"1572604253733","3022876.0"
"1572604253744","3014367.0"
"1572604253744","3005273.0"
"1572604253745","3027165.0"
"1572604253745","3021769.0"
"1572604253745","3024711.0"
"1572604253745","3033006.0"
"1572604253746","3049323.0"
"1572604253746","3119540.0"
"1572604253746","3113725.0"
"1572604253746","3095074.0"
"1572604253747","3072562.0"
"1572604253747","3052564.0"
"1572604253747","3050817.0"
"1572604253747","3024676.0"
"1572604253748","2960981.0"
"1572604253748","2962488.0"
"1572604253748","2969230.0"
"1572604253748","2978192.0"
"1572604253749","3027732.0"
"1572604253749","3053037.0"
"1572604253750","3088753.0"
"1572604253750","3089533.0"
"1572604253750","3073336.0"
"1572604253750","3066853.0"
"1572604253751","3047129.0"
"1572604253751","3024077.0"
"1572604253751","3010299.0"
"1572604253751","3023571.0"
"1572604253751","3015334.0"
"1572604253752","2995569.0"
"1572604253752","2949453.0"
"1572604253752","2980900.0"
"1572604253752","2921793.0"
"1572604253753","2915171.0"
"1572604253753","2940462.0"
"1572604253753","2948532.0"
"1572604253753","2967497.0"
"1572604253754","2977718.0"
"1572604253754","2990715.0"
"1572604253754","2996364.0"
"1572604253754","3015129.0"
"1572604253754","2996098.0"
"1572604253755","2981753.0"
"1572604253755","2988101.0"
"1572604253755","2978320.0"
"1572604253755","2955966.0"
"1572604253756","2932601.0"
"1572604253756","2999598.0"
"1572604253756","2938749.0"
"1572604253756","2900654.0"
"1572604253757","2922459.0"
"1572604253757","2926246.0"
"1572604253757","2950072.0"
"1572604253757","2958435.0"
"1572604253757","2956194.0"
"1572604253758","2937616.0"
"1572604253758","2885703.0"
"1572604253758","2866992.0"
"1572604253758","2849974.0"
"1572604253758","2849674.0"
"1572604253759","2853174.0"
"1572604253759","2851649.0"
"1572604253759","2825602.0"
"1572604253759","2851462.0"
"1572604253759","2785452.0"
"1572604253760","2778536.0"
"1572604253760","2788112.0"
"1572604253760","2807505.0"
"1572604253760","2828036.0"
"1572604253761","2834683.0"
"1572604253761","2822895.0"
"1572604253761","2776277.0"
"1572604253761","2717602.0"
"1572604253761","2729845.0"
"1572604253762","2727759.0"
"1572604253762","2729793.0"
"1572604253762","2731845.0"
"1572604253762","2737127.0"
"1572604253762","2738320.0"
"1572604253763","2670837.0"
"1572604253763","2644977.0"
"1572604253763","2636789.0"
"1572604253763","2664909.0"
"1572604253774","2698010.0"
"1572604253774","2725863.0"
"1572604253774","2730638.0"
"1572604253775","2704225.0"
"1572604253775","2670563.0"
"1572604253775","2643577.0"
"1572604253775","2633587.0"
"1572604253776","2626813.0"
"1572604253776","2629800.0"
"1572604253776","2634329.0"
"1572604253776","2642143.0"
"1572604253777","2618398.0"
"1572604253777","2617083.0"
"1572604253778","2586498.0"
"1572604253778","2581162.0"
"1572604253778","2599919.0"
"1572604253779","2634768.0"
"1572604253779","2670510.0"
"1572604253779","2698938.0"
"1572604253779","2783412.0"
"1572604253780","2859471.0"
"1572604253780","2833865.0"
"1572604253780","2791586.0"
"1572604253780","2755250.0"
"1572604253781","2752184.0"
"1572604253781","2747255.0"
"1572604253781","2729951.0"
"1572604253781","2697396.0"
"1572604253782","2762914.0"
"1572604253782","2705086.0"
"1572604253782","2710940.0"
"1572604253782","2711834.0"
"1572604253782","2724516.0"
"1572604253783","2755817.0"
"1572604253783","2794461.0"
"1572604253783","2812832.0"
"1572604253783","2805117.0"
"1572604253784","2827855.0"
"1572604253784","2777537.0"
"1572604253784","2789792.0"
"1572604253785","2777750.0"
"1572604253785","2765801.0"
"1572604253785","2730678.0"
"1572604253785","2715995.0"
"1572604253785","2753450.0"
"1572604253786","2736154.0"
"1572604253786","2746162.0"
"1572604253786","2760212.0"
"1572604253786","2790759.0"
"1572604253787","2822735.0"
"1572604253787","2821481.0"
"1572604253787","2855682.0"
"1572604253787","2918412.0"
"1572604253788","2962982.0"
"1572604253788","2937376.0"
"1572604253788","2917757.0"
"1572604253788","2902261.0"
"1572604253789","2867086.0"
"1572604253789","2854182.0"
"1572604253789","2820146.0"
"1572604253790","2826469.0"
"1572604253790","2827335.0"
"1572604253790","2864091.0"
"1572604253791","2910415.0"
"1572604253791","2922871.0"
"1572604253791","2902428.0"
"1572604253791","2907861.0"
"1572604253792","2924125.0"
"1572604253792","2959642.0"
"1572604253792","2932041.0"
"1572604253792","2915563.0"
"1572604253792","2902920.0"
"1572604253793","2885004.0"
"1572604253793","2863158.0"
"1572604253793","2848321.0"
"1572604253793","2784818.0"
"1572604253797","2780737.0"
"1572604253797","2789134.0"
"1572604253797","2820648.0"
"1572604253798","2845606.0"
"1572604253798","2857569.0"
"1572604253798","2874420.0"
"1572604253799","2900140.0"
"1572604253799","3036627.0"
"1572604253799","3107090.0"
"1572604253799","3142993.0"
"1572604253800","3112773.0"
"1572604253804","3083877.0"
"1572604253805","3042714.0"
"1572604253805","3007120.0"
"1572604253805","2947972.0"
"1572604253805","2878587.0"
"1572604253806","2890264.0"
"1572604253806","2881729.0"
"1572604253806","2904454.0"
"1572604253807","2917457.0"
"1572604253807","2906335.0"
"1572604253807","2953687.0"
"1572604253807","2960735.0"
"1572604253808","2961308.0"
"1572604253808","2992509.0"
"1572604253808","2988667.0"
"1572604253809","2961655.0"
"1572604253809","2948599.0"
"1572604253809","2927213.0"
"1572604253809","2897840.0"
"1572604253810","2862443.0"
"1572604253810","2826709.0"
"1572604253810","2793081.0"
"1572604253811","2784944.0"
"1572604253811","2803697.0"
"1572604253811","2789292.0"
"1572604253811","2785379.0"
"1572604253812","2793067.0"
"1572604253812","2803923.0"
"1572604253812","2806371.0"
"1572604253812","2790127.0"
"1572604253813","2785125.0"
"1572604253813","2788093.0"
"1572604253813","2783725.0"
"1572604253813","2752056.0"
"1572604253824","2728232.0"
"1572604253824","2684781.0"
"1572604253825","2659801.0"
"1572604253825","2678773.0"
"1572604253825","2695269.0"
"1572604253825","2730365.0"
"1572604253826","2748149.0"
"1572604253826","2760699.0"
"1572604253826","2774196.0"
"1572604253827","2860777.0"
"1572604253827","2910423.0"
"1572604253827","2930080.0"
"1572604253827","2900506.0"
"1572604253828","2877880.0"
"1572604253828","2859284.0"
"1572604253828","2828795.0"
"1572604253828","2797108.0"
"1572604253829","2752010.0"
"1572604253829","2821501.0"
"1572604253829","2803803.0"
"1572604253830","2793108.0"
"1572604253830","2823915.0"
"1572604253830","2846220.0"
"1572604253830","2849393.0"
"1572604253831","2848961.0"
"1572604253831","2876448.0"
"1572604253831","2930988.0"
"1572604253831","2888431.0"
"1572604253832","2835925.0"
"1572604253832","2826875.0"
"1572604253832","2847219.0"
"1572604253832","2837544.0"
"1572604253833","2815626.0"
"1572604253833","2776844.0"
"1572604253833","2758692.0"
"1572604253833","2789239.0"
"1572604253834","2780891.0"
"1572604253834","2816306.0"
"1572604253834","2844405.0"
"1572604253835","2848353.0"
"1572604253835","2878181.0"
"1572604253835","2925019.0"
"1572604253835","2886062.0"
"1572604253836","2873327.0"
"1572604253836","2901967.0"
"1572604253836","2903174.0"
"1572604253836","2949552.0"
"1572604253837","2963868.0"
"1572604253837","2944818.0"
"1572604253837","2921951.0"
"1572604253838","2897859.0"
"1572604253838","2959800.0"
"1572604253838","2913003.0"
"1572604253838","2908875.0"
"1572604253839","2906914.0"
"1572604253839","2906674.0"
"1572604253839","2918784.0"
"1572604253839","2929381.0"
"1572604253840","3085598.0"
"1572604253840","3236341.0"
"1572604253840","3212950.0"
"1572604253840","3226780.0"
"1572604253841","3240923.0"
"1572604253841","3199079.0"
"1572604253841","3179729.0"
"1572604253841","3149033.0"
"1572604253842","3053618.0"
"1572604253842","3143440.0"
"1572604253842","3060106.0"
"1572604253842","3063714.0"
"1572604253843","3088239.0"
"1572604253843","3097961.0"
"1572604253843","3100416.0"
"1572604253843","3091693.0"
"1572604253849","3107311.0"
"1572604253849","3121054.0"
"1572604253849","3135510.0"
"1572604253849","3146666.0"
"1572604253850","3139151.0"
"1572604253850","3154742.0"
"1572604253850","3141859.0"
"1572604253850","3126548.0"
"1572604253851","3078444.0"
"1572604253851","3129823.0"
"1572604253851","3095302.0"
"1572604253856","3093341.0"
"1572604261401","3121633.0"
"1572604261403","3146327.0"
"1572604261403","3161490.0"
"1572604261403","3174326.0"
"1572604261404","3177482.0"
"1572604261404","3174694.0"
"1572604261404","3156563.0"
"1572604261404","3154369.0"
"1572604261405","3144153.0"
"1572604261405","3161545.0"
"1572604261405","3163424.0"
"1572604261406","3126007.0"
"1572604261406","3098869.0"
"1572604261406","3036472.0"
"1572604261406","3034365.0"
"1572604261407","3029164.0"
"1572604261407","3056097.0"
"1572604261407","3095775.0"
"1572604261407","3118626.0"
"1572604261407","3110891.0"
"1572604261408","3091500.0"
"1572604261408","3129195.0"
"1572604261408","3111698.0"
"1572604261409","3109012.0"
"1572604261412","3079757.0"
"1572604261413","3080504.0"
"1572604261413","3078278.0"
"1572604261413","3053511.0"
"1572604261414","3018715.0"
"1572604261414","2945751.0"
"1572604261414","2933747.0"
"1572604261415","2913871.0"
"1572604261415","2963195.0"
"1572604261415","3000519.0"
"1572604261416","3031005.0"
"1572604261416","3038447.0"
"1572604261416","3016643.0"
"1572604261416","3009133.0"
"1572604261417","2957454.0"
"1572604261417","2937163.0"
"1572604261418","2940570.0"
"1572604261418","2958915.0"
"1572604261418","2968704.0"
"1572604261418","2947559.0"
"1572604261419","2926260.0"
"1572604261419","2870020.0"
"1572604261420","2803330.0"
"1572604261420","2767447.0"
"1572604261420","2769089.0"
"1572604261420","2795227.0"
"1572604261421","2826595.0"
"1572604261421","2857756.0"
"1572604261421","2849194.0"
"1572604261422","2898192.0"
"1572604261422","2849767.0"
"1572604261423","2827308.0"
"1572604261423","2810491.0"
"1572604261423","2799502.0"
"1572604261424","2795481.0"
"1572604261424","2774076.0"
"1572604261424","2792854.0"
"1572604261425","2748842.0"
"1572604261425","2693243.0"
"1572604261425","2657101.0"
"1572604261425","2679239.0"
"1572604261426","2706639.0"
"1572604261426","2744663.0"
"1572604261426","2766234.0"
"1572604261427","2773656.0"
"1572604261428","2770115.0"
"1572604261428","2688574.0"
"1572604261428","2686014.0"
"1572604261428","2679533.0"
"1572604261429","2686088.0"
"1572604261429","2684940.0"
"1572604261429","2681973.0"
"1572604261430","2665110.0"
"1572604261430","2640723.0"
"1572604261430","2600834.0"
"1572604261430","2592138.0"
"1572604261431","2612130.0"
"1572604261431","2640857.0"
"1572604261431","2678146.0"
"1572604261431","2706793.0"
"1572604261432","2711588.0"
"1572604261434","2730632.0"
"1572604261435","2682026.0"
"1572604261435","2664102.0"
"1572604261435","2650065.0"
"1572604261435","2651987.0"
"1572604261436","2643183.0"
"1572604261436","2625639.0"
"1572604261436","2585163.0"
"1572604261436","2616978.0"
"1572604261437","2600074.0"
"1572604261437","2628859.0"
"1572604261437","2627801.0"
"1572604261437","2649819.0"
"1572604261438","2678058.0"
"1572604261438","2697051.0"
"1572604261438","2719922.0"
"1572604261439","2729518.0"
"1572604261439","2720048.0"
"1572604261439","2683648.0"
"1572604261439","2686348.0"
"1572604261440","2690822.0"
"1572604261440","2703912.0"
"1572604261441","2680880.0"
"1572604261441","2649746.0"
"1572604261441","2686102.0"
"1572604261441","2680352.0"
"1572604261442","2712880.0"
"1572604261442","2709140.0"
"1572604261443","2701492.0"
"1572604261443","2699471.0"
"1572604261443","2717389.0"
"1572604261444","2820240.0"
"1572604261444","2926892.0"
"1572604261444","2937742.0"
"1572604261444","2939723.0"
"1572604261444","2917325.0"
"1572604261445","2884496.0"
"1572604261445","2842579.0"
"1572604261445","2779337.0"
"1572604261446","2710800.0"
"1572604261446","2733712.0"
"1572604261446","2747369.0"
"1572604261446","2797102.0"
"1572604261447","2813639.0"
"1572604261447","2821213.0"
"1572604261447","2833818.0"
"1572604261447","2883955.0"
"1572604261448","2934182.0"
"1572604261448","2916937.0"
"1572604261450","2890231.0"
"1572604261453","2884390.0"
"1572604261454","2883716.0"
"1572604261454","2882582.0"
"1572604261454","2848367.0"
"1572604261455","2798602.0"
"1572604261455","2817320.0"
"1572604261455","2786013.0"
"1572604261455","2790239.0"
"1572604261456","2826349.0"
"1572604261456","2848280.0"
"1572604261459","2878208.0"
"1572604261460","2883476.0"
"1572604261461","2902081.0"
"1572604261463","2900766.0"
"1572604261464","2867498.0"
"1572604261465","2868545.0"
"1572604261465","2853382.0"
"1572604261466","2856829.0"
"1572604261466","2847601.0"
"1572604261466","2835458.0"
"1572604261467","2780245.0"
"1572604261467","2731812.0"
"1572604261468","2707246.0"
"1572604261468","2730886.0"
"1572604261468","2760840.0"
"1572604261468","2803630.0"
"1572604261469","2836177.0"
"1572604261469","2839037.0"
"1572604261469","2838052.0"
"1572604261469","2786805.0"
"1572604261469","2736613.0"
"1572604261470","2734947.0"
"1572604261470","2727291.0"
"1572604261470","2730938.0"
"1572604261470","2722084.0"
"1572604261471","2708380.0"
"1572604261471","2651966.0"
"1572604261471","2673444.0"
"1572604261471","2661674.0"
"1572604261472","2699617.0"
"1572604261472","2707179.0"
"1572604261473","2717301.0"
"1572604261473","2750037.0"
"1572604261473","2785280.0"
"1572604261473","2806503.0"
"1572604261474","2746975.0"
"1572604261474","2709341.0"
"1572604261474","2675551.0"
"1572604261474","2668184.0"
"1572604261475","2663842.0"
"1572604261475","2654687.0"
"1572604261475","2641342.0"
"1572604261475","2619339.0"
"1572604261476","2628514.0"
"1572604261476","2586863.0"
"1572604261476","2587544.0"
"1572604261477","2613764.0"
"1572604261477","2671611.0"
"1572604261477","2681906.0"
"1572604261477","2724551.0"
"1572604261478","2699310.0"
"1572604261478","2672298.0"
"1572604261478","2656900.0"
"1572604261479","2650619.0"
"1572604261479","2643644.0"
"1572604261479","2625999.0"
"1572604261479","2615050.0"
"1572604261480","2559451.0"
"1572604261480","2558484.0"
"1572604261480","2502656.0"
"1572604261480","2509104.0"
"1572604261481","2541005.0"
"1572604261481","2555735.0"
"1572604261481","2588243.0"
"1572604261481","2602821.0"
"1572604261483","2626720.0"
"1572604261483","2632322.0"
"1572604261483","2633382.0"
"1572604261484","2632994.0"
"1572604261484","2613784.0"
"1572604261484","2583643.0"
"1572604261484","2558484.0"
"1572604261485","2509545.0"
"1572604261485","2473762.0"
"1572604261485","2481265.0"
"1572604261486","2499862.0"
"1572604261486","2547754.0"
"1572604261486","2563957.0"
"1572604261486","2580209.0"
"1572604261487","2595659.0"
"1572604261487","2714248.0"
"1572604261487","2923339.0"
"1572604261487","3175121.0"
"1572604261488","3213417.0"
"1572604261488","3138058.0"
"1572604261488","3055492.0"
"1572604261488","3042681.0"
"1572604261489","2997684.0"
"1572604261489","2916898.0"
"1572604261489","3048263.0"
"1572604261489","2984848.0"
"1572604261490","2964349.0"
"1572604261490","2946811.0"
"1572604261490","2930673.0"
"1572604261490","2932721.0"
"1572604261491","2950532.0"
"1572604261491","3094428.0"
"1572604261491","3222412.0"
"1572604261491","3245277.0"
"1572604261492","3182096.0"
"1572604261492","3138612.0"
"1572604261494","3113591.0"
"1572604261495","3100389.0"
"1572604261495","3066034.0"
"1572604261496","2963076.0"
"1572604261496","2984801.0"
"1572604261496","2977212.0"
"1572604261496","3010874.0"
"1572604261497","3047409.0"
"1572604261497","3064533.0"
"1572604261497","3088132.0"
"1572604261497","3115233.0"
"1572604261498","3174834.0"
"1572604261498","3190345.0"
"1572604261498","3175115.0"
"1572604261498","3135437.0"
"1572604261498","3121288.0"
"1572604261499","3108463.0"
"1572604261499","3097742.0"
"1572604261499","3051591.0"
"1572604261499","3022630.0"
"1572604261500","3096789.0"
"1572604261500","3055678.0"
"1572604261500","3062806.0"
"1572604261500","3079310.0"
"1572604261501","3104483.0"
"1572604261501","3132029.0"
"1572604261501","3137871.0"
"1572604261502","3137117.0"
"1572604261503","3138706.0"
"1572604261505","3113272.0"
"1572604261505","3059279.0"
"1572604261505","3056479.0"
"1572604261506","3059907.0"
"1572604261506","3046337.0"
"1572604261506","2995490.0"
"1572604261506","2916677.0"
"1572604261507","3004806.0"
"1572604261507","2944725.0"
"1572604261507","2958494.0"
"1572604261507","2961416.0"
"1572604261508","2973064.0"
"1572604261509","2980427.0"
"1572604261510","2983159.0"
"1572604261512","2973037.0"
"1572604261513","2919704.0"
"1572604261514","2885317.0"
"1572604261514","2871332.0"
"1572604261514","2888470.0"
"1572604261514","2901020.0"
"1572604261515","2894185.0"
"1572604261515","2859637.0"
"1572604261515","2772122.0"
"1572604261516","2760647.0"
"1572604261516","2736566.0"
"1572604261516","2736680.0"
"1572604261516","2758645.0"
"1572604261517","2785198.0"
"1572604261517","2807356.0"
"1572604261517","2823115.0"
"1572604261517","2771941.0"
"1572604261518","2703366.0"
"1572604261518","2705239.0"
"1572604261518","2697443.0"
"1572604261518","2724177.0"
"1572604261518","2739147.0"
"1572604261519","2720977.0"
"1572604261519","2671965.0"
"1572604261519","2620552.0"
"1572604261519","2587343.0"
"1572604261520","2564971.0"
"1572604261520","2620932.0"
"1572604261522","2645438.0"
"1572604261523","2687829.0"
"1572604261523","2753377.0"
"1572604261524","2778378.0"
"1572604261524","2810231.0"
"1572604261524","2807765.0"
"1572604261524","2767587.0"
"1572604261525","2754584.0"
"1572604261525","2756565.0"
"1572604261525","2757006.0"
"1572604261525","2771281.0"
"1572604261525","2774784.0"
"1572604261526","2705607.0"
"1572604261526","2682061.0"
"1572604261526","2648364.0"
"1572604261526","2686748.0"
"1572604261527","2710020.0"
"1572604261527","2744068.0"
"1572604261527","2762587.0"
"1572604261528","2816867.0"
"1572604261529","2842447.0"
"1572604261533","2906729.0"
"1572604261533","2876988.0"
"1572604261533","2880402.0"
"1572604261533","2879321.0"
"1572604261534","2868605.0"
"1572604261534","2855255.0"
"1572604261534","2905341.0"
"1572604261534","2843826.0"
"1572604261535","2818726.0"
"1572604261535","2844340.0"
"1572604261535","2872401.0"
"1572604261535","2895366.0"
"1572604261536","2925793.0"
"1572604261536","2989915.0"
"1572604261536","3049075.0"
"1572604261536","3038980.0"
"1572604261536","3075210.0"
"1572604261537","3058373.0"
"1572604261537","3059840.0"
"1572604261537","3046422.0"
"1572604261537","3036194.0"
"1572604261538","3004739.0"
"1572604261538","3012061.0"
"1572604261538","3014013.0"
"1572604261538","3000378.0"
"1572604261539","3047310.0"
"1572604261539","3073968.0"
"1572604261539","3085551.0"
"1572604261539","3115952.0"
"1572604261539","3121401.0"
"1572604261540","3115566.0"
"1572604261540","3116253.0"
"1572604261540","3116665.0"
"1572604261540","3100869.0"
"1572604261541","3101275.0"
"1572604261541","3108291.0"
"1572604261541","3094381.0"
"1572604261541","3058753.0"
"1572604261541","3095848.0"
"1572604261542","3063647.0"
"1572604261542","3049782.0"
"1572604261542","3074289.0"
"1572604261543","3086279.0"
"1572604261543","3109451.0"
"1572604261543","3125782.0"
"1572604261543","3135203.0"
"1572604261544","3141585.0"
"1572604261544","3128756.0"
"1572604261544","3129742.0"
"1572604261544","3125201.0"
"1572604261544","3120627.0"
"1572604261545","3119207.0"
"1572604261545","3091968.0"
"1572604261545","3061152.0"
"1572604261546","3117974.0"
"1572604261546","3014601.0"
"1572604261546","2960896.0"
"1572604261546","3019428.0"
"1572604261547","3018823.0"
"1572604261547","3031852.0"
"1572604261547","3036873.0"
"1572604261547","3051637.0"
"1572604261548","3039908.0"
"1572604261548","3053005.0"
"1572604261548","3046249.0"
"1572604261548","3056365.0"
"1572604261548","3057686.0"
"1572604261549","3064234.0"
"1572604261549","3032072.0"
"1572604261550","3004011.0"
"1572604261550","3039741.0"
"1572604261551","3013341.0"
"1572604261551","3023977.0"
"1572604261551","3018882.0"
"1572604261552","3006279.0"
"1572604261552","3000204.0"
"1572604261552","3059065.0"
"1572604261553","3208795.0"
"1572604261553","3180194.0"
"1572604261553","3191257.0"
"1572604261554","3095661.0"
"1572604261554","3048517.0"
"1572604261554","3020229.0"
"1572604261554","3004338.0"
"1572604261555","3004312.0"
"1572604261555","2954979.0"
"1572604261555","2941897.0"
"1572604261555","2905175.0"
"1572604261556","2902834.0"
"1572604261556","2908416.0"
"1572604261556","2915551.0"
"1572604261556","2933154.0"
"1572604261557","2978031.0"
"1572604261557","3029032.0"
"1572604261557","3066554.0"
"1572604261557","3059386.0"
"1572604261557","3035286.0"
"1572604261558","3022896.0"
"1572604261558","3002792.0"
"1572604261558","2972350.0"
"1572604261558","2953699.0"
"1572604261559","2962889.0"
"1572604261559","2916276.0"
"1572604261559","2888917.0"
"1572604261559","2893066.0"
"1572604261560","2886704.0"
"1572604261560","2892137.0"
"1572604261560","2890910.0"
"1572604261560","2922339.0"
"1572604261560","2957013.0"
"1572604261561","2908363.0"
"1572604261561","2911303.0"
"1572604261561","2898679.0"
"1572604261561","2904415.0"
"1572604261561","2897273.0"
"1572604261562","2891605.0"
"1572604261562","2903180.0"
"1572604261563","2883508.0"
"1572604261563","2862411.0"
"1572604261563","2815613.0"
"1572604261563","2800816.0"
"1572604261563","2806678.0"
"1572604261564","2814898.0"
"1572604261564","2827270.0"
"1572604261564","2866557.0"
"1572604261564","2903974.0"
"1572604261565","2871139.0"
"1572604261565","2890790.0"
"1572604261565","2902093.0"
"1572604261565","2916872.0"
"1572604261566","2903547.0"
"1572604261567","2883516.0"
"1572604261567","2848528.0"
"1572604261567","2940704.0"
"1572604261568","2897152.0"
"1572604261568","2903574.0"
"1572604261568","2900181.0"
"1572604261568","2901081.0"
"1572604261568","2917138.0"
"1572604261569","2943691.0"
"1572604261569","2974992.0"
"1572604261569","2974624.0"
"1572604261569","2967436.0"
"1572604261569","2981701.0"
"1572604261570","2986949.0"
"1572604261570","3004391.0"
"1572604261571","2993336.0"
"1572604261571","2970284.0"
"1572604261571","2944670.0"
"1572604261572","3040735.0"
"1572604261572","3022317.0"
"1572604261572","3030032.0"
"1572604261573","3033018.0"
"1572604261573","3040361.0"
"1572604261573","3044662.0"
"1572604261573","3070468.0"
"1572604261574","3109392.0"
"1572604261574","3149781.0"
"1572604261574","3173367.0"
"1572604261574","3180001.0"
"1572604261575","3185915.0"
"1572604261575","3170539.0"
"1572604261575","3140839.0"
"1572604261575","3101783.0"
"1572604261575","3095554.0"
"1572604261576","3097242.0"
"1572604261618","3124301.0"
"1572604267396","3129122.0"
"1572604267397","3140185.0"
"1572604267397","3148854.0"
"1572604267397","3152916.0"
"1572604267397","3156656.0"
"1572604267398","3147166.0"
"1572604267398","3157755.0"
"1572604267398","3180556.0"
"1572604267398","3184782.0"
"1572604267399","3169046.0"
"1572604267402","3136958.0"
"1572604267403","3101175.0"
"1572604267403","3160903.0"
"1572604267403","3097681.0"
"1572604267404","3121767.0"
"1572604267404","3129630.0"
"1572604267404","3106771.0"
"1572604267405","3096454.0"
"1572604267405","3116692.0"
"1572604267405","3167573.0"
"1572604267405","3219370.0"
"1572604267406","3242571.0"
"1572604267406","3273378.0"
"1572604267406","3269504.0"
"1572604267406","3250373.0"
"1572604267407","3215343.0"
"1572604267407","3177248.0"
"1572604267407","3143592.0"
"1572604267407","3187350.0"
"1572604267408","3126109.0"
"1572604267408","3136170.0"
"1572604267408","3125501.0"
"1572604267408","3113626.0"
"1572604267409","3112565.0"
"1572604267409","3129776.0"
"1572604267409","3179367.0"
"1572604267409","3198886.0"
"1572604267409","3195552.0"
"1572604267410","3201113.0"
"1572604267410","3189030.0"
"1572604267410","3173052.0"
"1572604267410","3148440.0"
"1572604267411","3132044.0"
"1572604267411","3091374.0"
"1572604267411","3225047.0"
"1572604267411","3135618.0"
"1572604267412","3140886.0"
"1572604267412","3112244.0"
"1572604267412","3076069.0"
"1572604267412","3061652.0"
"1572604267412","3089107.0"
"1572604267413","3129055.0"
"1572604267413","3127021.0"
"1572604267413","3129528.0"
"1572604267413","3124689.0"
"1572604267414","3104042.0"
"1572604267420","3071609.0"
"1572604267420","3028451.0"
"1572604267420","3001618.0"
"1572604267421","2962816.0"
"1572604267421","3043549.0"
"1572604267422","2970638.0"
"1572604267422","2954365.0"
"1572604267422","2924125.0"
"1572604267422","2894839.0"
"1572604267422","2900126.0"
"1572604267423","2935495.0"
"1572604267423","3041194.0"
"1572604267423","3153054.0"
"1572604267423","3192592.0"
"1572604267423","3205321.0"
"1572604267424","3167299.0"
"1572604267424","3139559.0"
"1572604267424","3110584.0"
"1572604267425","3078576.0"
"1572604267425","3042562.0"
"1572604267425","3138872.0"
"1572604267426","3037954.0"
"1572604267426","3043649.0"
"1572604267426","3002418.0"
"1572604267426","2980874.0"
"1572604267433","2977899.0"
"1572604267433","3021862.0"
"1572604267433","3082378.0"
"1572604267434","3063860.0"
"1572604267434","3074842.0"
"1572604267434","3068281.0"
"1572604267435","3060565.0"
"1572604267435","3047377.0"
"1572604267435","3052365.0"
"1572604267435","3023737.0"
"1572604267436","2990134.0"
"1572604267436","2987641.0"
"1572604267436","2988694.0"
"1572604267436","3045896.0"
"1572604267437","3063826.0"
"1572604267437","3045615.0"
"1572604267437","3037620.0"
"1572604267437","3043275.0"
"1572604267438","3047088.0"
"1572604267438","2991595.0"
"1572604267438","2999812.0"
"1572604267438","2995116.0"
"1572604267438","2998538.0"
"1572604267439","2950832.0"
"1572604267439","2925507.0"
"1572604267439","2885243.0"
"1572604267439","2915057.0"
"1572604267440","2842845.0"
"1572604267440","2843899.0"
"1572604267440","2867925.0"
"1572604267440","2862031.0"
"1572604267441","2855757.0"
"1572604267441","2869652.0"
"1572604267441","2944851.0"
"1572604267441","2978200.0"
"1572604267441","3008420.0"
"1572604267442","3007219.0"
"1572604267484","3002591.0"
"1572604267534","2975611.0"
"1572604268376","2939643.0"
"1572604268377","2922825.0"
"1572604268377","2935281.0"
"1572604268377","2915043.0"
"1572604268377","2937870.0"
"1572604268377","2963189.0"
"1572604268378","2961694.0"
"1572604268378","2975831.0"
"1572604268378","3055038.0"
"1572604268378","3160143.0"
"1572604268379","3207442.0"
"1572604268379","3263835.0"
"1572604268379","3230687.0"
"1572604268379","3199187.0"
"1572604268379","3133505.0"
"1572604268390","3073857.0"
"1572604268390","3030204.0"
"1572604268463","2958854.0"
"1572604268513","2957220.0"
"1572604268561","2983373.0"
"1572604269355","3003479.0"
"1572604269355","3008213.0"
"1572604269355","3033506.0"
"1572604269355","3134063.0"
"1572604269356","3239903.0"
"1572604269356","3342715.0"
"1572604269356","3394913.0"
"1572604269356","3416600.0"
"1572604269357","3370548.0"
"1572604269358","3307847.0"
"1572604269358","3262608.0"
"1572604269358","3223966.0"
"1572604269359","3258055.0"
"1572604269359","3218564.0"
"1572604269361","3183975.0"
"1572604269361","3180988.0"
"1572604269442","3130630.0"
"1572604269488","3127783.0"
"1572604270317","3189971.0"
"1572604270317","3175940.0"
"1572604270318","3162871.0"
"1572604270318","3155470.0"
"1572604270318","3146520.0"
"1572604270318","3140106.0"
"1572604270318","3120300.0"
"1572604270319","3101850.0"
"1572604270319","3061120.0"
"1572604270319","3068988.0"
"1572604270319","3062467.0"
"1572604270320","3063808.0"
"1572604270320","3054364.0"
"1572604270320","3053411.0"
"1572604270327","3068135.0"
"1572604270382","3144007.0"
"1572604270419","3224913.0"
"1572604270468","3282153.0"
"1572604271303","3270410.0"
"1572604271303","3234655.0"
"1572604271304","3190611.0"
"1572604271304","3170080.0"
"1572604271304","3155303.0"
"1572604271304","3133370.0"
"1572604271306","3235102.0"
"1572604271306","3236794.0"
"1572604271307","3184676.0"
"1572604271307","3158223.0"
"1572604271307","3153635.0"
"1572604271307","3161916.0"
"1572604271308","3179174.0"
"1572604271308","3215729.0"
"1572604271312","3303753.0"
"1572604271312","3391166.0"
"1572604271360","3495105.0"
"1572604271445","3513417.0"
"1572604271493","3497027.0"
"1572604271599","3426322.0"
"1572604271641","3365373.0"
"1572604271691","3288848.0"
"1572604321476","3220392.0"
"1572604321477","3188016.0"
"1572604321478","3157430.0"
"1572604321480","3151774.0"
"1572604321481","3156870.0"
"1572604321482","3170633.0"
"1572604321483","3176348.0"
"1572604321483","3120367.0"
"1572604321483","3064366.0"
"1572604321484","3057724.0"
"1572604321484","3054244.0"
"1572604321484","3068288.0"
"1572604321484","3052058.0"
"1572604321486","3032005.0"
"1572604321488","3016836.0"
"1572604321495","3046009.0"
"1572604321496","2933028.0"
"1572604321498","2872320.0"
"1572604321502","2859796.0"
"1572604321502","2873681.0"
"1572604321503","2897879.0"
"1572604321503","2919332.0"
"1572604321503","2945318.0"
"1572604321503","2960288.0"
"1572604321504","2926220.0"
"1572604321504","2881755.0"
"1572604321504","2879429.0"
"1572604321504","2876554.0"
"1572604321504","2881275.0"
"1572604321505","2882596.0"
"1572604321505","2872094.0"
"1572604321505","2815126.0"
"1572604321505","2857183.0"
"1572604321506","2759458.0"
"1572604321506","2740175.0"
"1572604321506","2777417.0"
"1572604321506","2793526.0"
"1572604321506","2819874.0"
"1572604321507","2848075.0"
"1572604321507","2905102.0"
"1572604321507","2967783.0"
"1572604321507","3009592.0"
"1572604321508","2992197.0"
"1572604321508","2978206.0"
"1572604321508","2975112.0"
"1572604321508","2963602.0"
"1572604321508","2955213.0"
"1572604321509","2914377.0"
"1572604321509","3009460.0"
"1572604321509","2931547.0"
"1572604321509","2905128.0"
"1572604321510","2920151.0"
"1572604321510","2931267.0"
"1572604321510","2956314.0"
"1572604321510","2975412.0"
"1572604321511","3020422.0"
"1572604321511","3102797.0"
"1572604321511","3108004.0"
"1572604321511","3121755.0"
"1572604321512","3114278.0"
"1572604321519","3115733.0"
"1572604321519","3120768.0"
"1572604321519","3096047.0"
"1572604321520","3054971.0"
"1572604321520","3028857.0"
"1572604321520","3040081.0"
"1572604321521","3027718.0"
"1572604321521","3053691.0"
"1572604321521","3085218.0"
"1572604321521","3117647.0"
"1572604321522","3128429.0"
"1572604321522","3152749.0"
"1572604321522","3220717.0"
"1572604321523","3257240.0"
"1572604321523","3293756.0"
"1572604321523","3280113.0"
"1572604321523","3307272.0"
"1572604321524","3304238.0"
"1572604321524","3286615.0"
"1572604321524","3263183.0"
"1572604321525","3313907.0"
"1572604321526","3302324.0"
"1572604321528","3249826.0"
"1572604321528","3258120.0"
"1572604321529","3284593.0"
"1572604321529","3305758.0"
"1572604321529","3318735.0"
"1572604321529","3352116.0"
"1572604321530","3406644.0"
"1572604321530","3404930.0"
"1572604321530","3417813.0"
"1572604321530","3421173.0"
"1572604321531","3447734.0"
"1572604321531","3449354.0"
"1572604321531","3410052.0"
"1572604321531","3377123.0"
"1572604321532","3419300.0"
"1572604321532","3368401.0"
"1572604321532","3352510.0"
