"1573136663816","2911967.0"
"1573136663869","2903793.0"
"1573136663947","2898212.0"
"1573136664054","2895991.0"
"1573136664056","2893785.0"
"1573136664083","2891629.0"
"1573136664188","2892231.0"
"1573136664193","2893941.0"
"1573136664219","2895374.0"
"1573136664269","2897046.0"
"1573136664311","2891162.0"
"1573136664356","2872035.0"
"1573136664405","2859812.0"
"1573136664454","2853936.0"
"1573136664504","2855838.0"
"1573136664552","2855257.0"
"1573136664606","2853973.0"
"1573136664649","2851216.0"
"1573136664704","2851921.0"
"1573136664747","2852049.0"
"1573136664799","2855584.0"
"1573136664949","2859093.0"
"1573136664949","2861045.0"
"1573136664949","2855629.0"
"1573136665066","2838375.0"
"1573136665067","2828895.0"
"1573136665106","2828344.0"
"1573136665141","2829846.0"
"1573136665187","2828145.0"
"1573136665237","2826711.0"
"1573136665286","2825224.0"
"1573136665334","2831191.0"
"1573136665383","2839647.0"
"1573136665433","2840903.0"
"1573136665482","2838481.0"
"1573136665531","2844625.0"
"1573136665580","2842433.0"
"1573136665632","2830984.0"
"1573136665681","2822832.0"
"1573136665730","2820224.0"
"1573136665778","2825788.0"
"1573136665832","2831065.0"
"1573136665870","2832544.0"
"1573136665926","2831577.0"
"1573136665972","2829712.0"
"1573136666023","2834096.0"
"1573136666068","2837343.0"
"1573136666120","2848170.0"
"1573136666168","2851833.0"
"1573136666388","2853237.0"
"1573136666388","2846535.0"
"1573136666388","2838131.0"
"1573136666388","2827810.0"
"1573136666438","2816835.0"
"1573136666511","2816026.0"
"1573136666512","2819435.0"
"1573136666556","2822282.0"
"1573136666611","2825849.0"
"1573136666654","2827245.0"
"1573136666703","2831376.0"
"1573136666752","2839133.0"
"1573136666803","2841482.0"
"1573136666850","2843674.0"
"1573136666900","2836742.0"
"1573136666947","2816323.0"
"1573136666998","2805453.0"
"1573136667043","2804902.0"
"1573136667096","2808535.0"
"1573136667211","2810853.0"
"1573136667211","2812481.0"
"1573136667360","2816709.0"
"1573136667360","2818937.0"
"1573136667360","2820313.0"
"1573136667394","2828084.0"
"1573136667441","2838302.0"
"1573136667489","2843266.0"
"1573136667532","2839958.0"
"1573136667588","2833672.0"
"1573136667633","2825677.0"
"1573136667684","2825165.0"
"1573136667728","2829021.0"
"1573136667782","2833940.0"
"1573136667833","2835374.0"
"1573136667878","2837455.0"
"1573136667930","2839046.0"
"1573136667972","2845279.0"
"1573136668026","2850198.0"
"1573136668075","2855911.0"
"1573136668119","2862390.0"
"1573136668169","2865586.0"
"1573136668218","2857510.0"
"1573136668265","2849328.0"
"1573136668321","2850903.0"
"1573136668369","2849863.0"
"1573136668414","2853936.0"
"1573136668468","2856202.0"
"1573136668517","2857027.0"
"1573136668559","2857317.0"
"1573136668613","2861663.0"
"1573136668663","2866462.0"
"1573136668711","2872689.0"
"1573136668753","2876322.0"
"1573136668803","2885871.0"
"1573136668855","2892418.0"
"1573136668907","2884526.0"
"1573136668955","2877958.0"
"1573136669007","2876227.0"
"1573136669053","2876590.0"
"1573136669106","2877446.0"
"1573136669151","2880351.0"
"1573136669196","2880900.0"
"1573136669249","2883204.0"
"1573136669298","2885692.0"
"1573136669347","2889912.0"
"1573136669397","2893874.0"
"1573136669445","2894772.0"
"1573136669495","2897552.0"
"1573136669544","2903094.0"
"1573136669591","2910088.0"
"1573136669634","2908072.0"
"1573136669688","2897269.0"
"1573136669736","2898050.0"
"1573136669787","2899900.0"
"1573136669839","2905287.0"
"1573136669880","2905390.0"
"1573136669932","2906201.0"
"1573136669976","2906103.0"
"1573136670027","2907026.0"
"1573136670076","2913371.0"
"1573136670125","2919970.0"
"1573136670174","2927697.0"
"1573136670227","2933818.0"
"1573136670275","2936785.0"
"1573136670321","2930267.0"
"1573136670373","2924917.0"
"1573136670417","2925066.0"
"1573136670465","2929338.0"
"1573136670519","2934794.0"
"1573136670564","2936821.0"
"1573136670618","2941206.0"
"1573136670667","2944979.0"
"1573136670716","2949483.0"
"1573136670764","2956155.0"
"1573136670814","2957805.0"
"1573136670862","2960308.0"
"1573136670912","2966343.0"
"1573136670962","2963295.0"
"1573136671005","2953228.0"
"1573136671059","2947588.0"
"1573136671108","2946214.0"
"1573136671155","2947521.0"
"1573136671207","2949573.0"
"1573136671253","2947618.0"
"1573136671298","2943880.0"
"1573136671345","2944296.0"
"1573136671400","2948591.0"
"1573136671448","2950745.0"
"1573136671496","2956505.0"
"1573136671547","2958199.0"
"1573136671589","2955658.0"
"1573136671640","2940938.0"
"1573136671687","2929598.0"
"1573136671739","2922904.0"
"1573136671790","2920460.0"
"1573136671837","2919472.0"
"1573136671885","2917057.0"
"1573136671934","2917361.0"
"1573136671983","2917361.0"
"1573136672030","2918625.0"
"1573136672081","2926657.0"
"1573136672132","2923483.0"
"1573136672179","2926864.0"
"1573136672232","2924777.0"
"1573136672280","2911900.0"
"1573136672330","2907255.0"
"1573136672488","2913231.0"
"1573136672488","2914330.0"
"1573136672488","2909372.0"
"1573136672632","2903556.0"
"1573136672632","2904677.0"
"1573136672632","2906282.0"
"1573136672689","2907515.0"
"1573136672722","2914263.0"
"1573136672771","2919864.0"
"1573136672820","2927496.0"
"1573136672864","2923284.0"
"1573136672918","2912442.0"
"1573136672959","2909025.0"
"1573136673015","2907166.0"
"1573136673063","2907337.0"
"1573136673106","2907107.0"
"1573136673160","2925639.0"
"1573136673207","2944587.0"
"1573136673255","2944125.0"
"1573136673309","2932014.0"
"1573136673356","2932221.0"
"1573136673403","2932445.0"
"1573136673454","2926553.0"
"1573136673502","2928069.0"
"1573136673552","2931933.0"
"1573136673601","2943309.0"
"1573136673645","2949855.0"
"1573136673706","2952990.0"
"1573136673748","2958994.0"
"1573136673799","2964492.0"
"1573136673843","2969998.0"
"1573136673888","2976002.0"
"1573136673941","2984673.0"
"1573136673994","2983113.0"
"1573136674041","2977576.0"
"1573136674085","2975146.0"
"1573136674137","2977034.0"
"1573136674183","2980616.0"
"1573136674236","2982710.0"
"1573136674281","2981857.0"
"1573136674334","2979911.0"
"1573136674521","2983306.0"
"1573136674527","2985534.0"
"1573136674527","2984799.0"
"1573136674551","2971231.0"
"1573136674647","2954581.0"
"1573136674647","2955026.0"
"1573136674925","3009966.0"
"1573136674925","3012380.0"
"1573136674969","3020153.0"
"1573136675019","3033795.0"
"1573136675065","3027189.0"
"1573136675118","3012425.0"
"1573136675169","3004988.0"
"1573136675211","2994712.0"
"1573136675263","2990037.0"
"1573136675305","2988322.0"
"1573136675361","2982511.0"
"1573136675407","2976961.0"
"1573136675458","2972651.0"
"1573136675508","2969374.0"
"1573136675556","2977184.0"
"1573136675611","2994645.0"
"1573136675653","3008414.0"
"1573136675702","3001927.0"
"1573136675744","2987349.0"
"1573136675799","2985862.0"
"1573136675845","2989139.0"
"1573136675899","2996731.0"
"1573136675949","3000061.0"
"1573136675996","2997483.0"
"1573136676050","2994622.0"
"1573136676088","2994631.0"
"1573136676143","2995411.0"
"1573136676188","2997170.0"
"1573136676239","2993219.0"
"1573136676283","2978364.0"
"1573136676337","2969181.0"
"1573136676389","2971150.0"
"1573136676430","2970250.0"
"1573136676490","2967828.0"
"1573136676532","2962568.0"
"1573136676579","2957864.0"
"1573136676625","2954936.0"
"1573136676680","2958675.0"
"1573136676724","2959811.0"
"1573136676777","2964463.0"
"1573136676829","2964224.0"
"1573136676875","2967665.0"
"1573136676926","2962115.0"
"1573136676973","2951444.0"
"1573136677023","2941897.0"
"1573136677066","2937185.0"
"1573136677120","2937394.0"
"1573136677162","2934903.0"
"1573136677219","2940350.0"
"1573136677267","2940745.0"
"1573136677316","2937705.0"
"1573136677364","2935082.0"
"1573136677412","2935247.0"
"1573136677463","2932660.0"
"1573136677508","2933166.0"
"1573136677554","2937847.0"
"1573136677604","2939064.0"
"1573136677652","2929050.0"
"1573136677708","2921864.0"
"1573136677750","2929064.0"
"1573136677804","2931159.0"
"1573136677848","2925155.0"
"1573136677903","2917443.0"
"1573136677944","2916981.0"
"1573136677999","2922109.0"
"1573136678045","2926374.0"
"1573136678093","2925742.0"
"1573136678146","2926902.0"
"1573136678197","2931449.0"
"1573136678244","2937238.0"
"1573136678294","2942789.0"
"1573136678341","2946726.0"
"1573136678386","2947350.0"
"1573136678434","2943546.0"
"1573136678491","2938776.0"
"1573136678531","2935499.0"
"1573136678582","2931695.0"
"1573136678635","2936852.0"
"1573136678684","2938382.0"
"1573136678732","2931933.0"
"1573136678782","2920742.0"
"1573136678825","2913511.0"
"1573136678879","2939786.0"
"1573136678928","3020881.0"
"1573136678977","3064238.0"
"1573136679025","3065953.0"
"1573136679069","3084775.0"
"1573136679124","3079946.0"
"1573136679171","3055746.0"
"1573136679223","3038327.0"
"1573136679265","3038990.0"
"1573136679319","3045052.0"
"1573136679367","3049994.0"
"1573136679418","3041976.0"
"1573136679466","3035780.0"
"1573136679511","3039242.0"
"1573136679558","3045617.0"
"1573136679609","3050959.0"
"1573136679662","3066191.0"
"1573136679713","3086551.0"
"1573136679759","3106249.0"
"1573136679812","3120597.0"
"1573136679859","3124439.0"
"1573136679910","3122277.0"
"1573136679952","3122224.0"
"1573136680009","3126936.0"
"1573136680045","3130124.0"
"1573136680098","3137233.0"
"1573136680150","3147213.0"
"1573136680198","3157386.0"
"1573136680247","3169987.0"
"1573136680297","3172640.0"
"1573136680346","3172803.0"
"1573136680393","3175157.0"
"1573136680438","3176890.0"
"1573136680486","3173524.0"
"1573136680542","3166614.0"
"1573136680596","3159042.0"
"1573136680633","3156270.0"
"1573136680688","3156433.0"
"1573136680736","3156998.0"
"1573136680786","3153639.0"
"1573136680832","3152422.0"
"1573136680885","3149123.0"
"1573136680928","3147548.0"
"1573136680981","3144769.0"
"1573136681032","3145057.0"
"1573136681074","3147308.0"
"1573136681127","3143105.0"
"1573136681171","3136542.0"
"1573136681222","3131914.0"
"1573136681269","3128324.0"
"1573136681323","3129402.0"
"1573136681369","3128161.0"
"1573136681414","3128919.0"
"1573136681471","3126467.0"
"1573136681513","3129260.0"
"1573136681564","3131847.0"
"1573136681721","3133466.0"
"1573136681723","3131534.0"
"1573136681723","3129492.0"
"1573136681845","3124163.0"
"1573136681845","3118055.0"
"1573136681865","3114392.0"
"1573136681907","3114370.0"
"1573136681958","3112714.0"
"1573136682172","3112275.0"
"1573136682172","3113323.0"
"1573136682172","3114237.0"
"1573136682172","3115664.0"
"1573136682215","3117878.0"
"1573136682294","3118701.0"
"1573136682305","3118813.0"
"1573136682350","3111576.0"
"1573136682403","3102728.0"
"1573136682443","3099479.0"
"1573136682497","3099154.0"
"1573136682546","3101813.0"
"1573136682593","3102208.0"
"1573136682643","3096797.0"
"1573136682836","3094605.0"
"1573136682837","3093321.0"
"1573136682838","3093825.0"
"1573136682867","3095980.0"
"1573136682936","3102868.0"
"1573136682939","3101984.0"
"1573136682987","3091537.0"
"1573136683029","3085340.0"
"1573136683083","3081973.0"
"1573136683133","3079692.0"
"1573136683178","3079812.0"
"1573136683226","3078637.0"
"1573136683276","3080458.0"
"1573136683325","3078964.0"
"1573136683372","3080265.0"
"1573136683424","3082686.0"
"1573136683471","3084367.0"
"1573136683520","3087926.0"
"1573136683571","3080279.0"
"1573136683617","3070939.0"
"1573136683667","3065975.0"
"1573136683715","3064980.0"
"1573136683765","3065360.0"
"1573136683813","3066177.0"
"1573136683863","3068072.0"
"1573136683910","3066473.0"
"1573136683961","3066548.0"
"1573136684009","3064691.0"
"1573136684059","3064884.0"
"1573136684107","3069616.0"
"1573136684155","3072130.0"
"1573136684205","3064437.0"
"1573136684253","3053039.0"
"1573136684303","3047371.0"
"1573136684353","3045684.0"
"1573136684404","3045178.0"
"1573136684449","3044977.0"
"1573136684504","3043596.0"
"1573136684546","3044228.0"
"1573136684599","3043120.0"
"1573136684644","3044457.0"
"1573136684695","3051532.0"
"1573136684743","3055097.0"
"1573136684793","3053761.0"
"1573136684840","3047184.0"
"1573136684888","3040914.0"
"1573136684937","3040237.0"
"1573136684986","3044882.0"
"1573136685035","3044295.0"
"1573136685084","3043045.0"
"1573136685133","3044295.0"
"1573136685182","3046339.0"
"1573136685232","3049384.0"
"1573136685280","3053761.0"
"1573136685328","3057298.0"
"1573136685378","3052743.0"
"1573136685427","3049807.0"
"1573136685475","3046345.0"
"1573136685524","3045981.0"
"1573136685572","3048917.0"
"1573136685626","3050164.0"
"1573136685673","3049348.0"
"1573136685725","3051227.0"
"1573136685773","3053761.0"
"1573136685822","3057371.0"
"1573136685871","3060575.0"
"1573136685915","3057936.0"
"1573136685969","3049043.0"
"1573136686012","3043559.0"
"1573136686063","3043581.0"
"1573136686114","3047578.0"
"1573136686164","3048551.0"
"1573136686214","3046493.0"
"1573136686263","3046353.0"
"1573136686312","3047905.0"
"1573136686356","3050262.0"
"1573136686410","3056629.0"
"1573136686454","3051717.0"
"1573136686503","3039599.0"
"1573136686553","3030912.0"
"1573136686601","3027955.0"
"1573136686652","3027955.0"
"1573136686703","3027718.0"
"1573136686751","3029812.0"
"1573136686803","3027955.0"
"1573136686852","3026899.0"
"1573136686894","3029024.0"
"1573136686948","3030950.0"
"1573136686996","3033728.0"
"1573136687045","3023051.0"
"1573136687088","3007611.0"
"1573136687143","2999251.0"
"1573136687191","2993924.0"
"1573136687236","2994994.0"
"1573136687288","2992757.0"
"1573136687332","2989970.0"
"1573136687386","2989897.0"
"1573136687434","2988946.0"
"1573136687486","2991754.0"
"1573136687533","2996124.0"
"1573136687582","2998619.0"
"1573136687632","2994868.0"
"1573136687681","2980252.0"
"1573136687730","2969581.0"
"1573136687773","2964626.0"
"1573136687827","2960501.0"
"1573136687877","2958734.0"
"1573136687925","2957322.0"
"1573136687973","2959522.0"
"1573136688020","2961491.0"
"1573136688067","2965258.0"
"1573136688114","2972078.0"
"1573136688168","2977814.0"
"1573136688217","2979539.0"
"1573136688268","2982584.0"
"1573136688316","2982727.0"
"1573136688364","2969187.0"
"1573136688413","2962545.0"
"1573136688463","2960219.0"
"1573136688506","2961030.0"
"1573136688554","2962923.0"
"1573136688608","2965138.0"
"1573136688656","2967226.0"
"1573136688706","2966044.0"
"1573136688755","2966239.0"
"1573136688808","2968706.0"
"1573136688857","2974478.0"
"1573136688905","2983224.0"
"1573136688950","2988663.0"
"1573136689001","2991420.0"
"1573136689044","2994911.0"
"1573136689099","2984049.0"
"1573136689146","2977028.0"
"1573136689197","2975861.0"
"1573136689240","2978127.0"
"1573136689289","2981804.0"
"1573136689337","2982408.0"
"1573136689391","2986479.0"
"1573136689436","2988255.0"
"1573136689488","2988113.0"
"1573136689537","2993403.0"
"1573136689586","2999466.0"
"1573136689634","3008806.0"
"1573136689685","3014290.0"
"1573136689733","3022234.0"
"1573136689775","3028400.0"
"1573136689830","3025013.0"
"1573136689878","3019276.0"
"1573136689928","3020442.0"
"1573136689977","3020472.0"
"1573136690024","3022360.0"
"1573136690070","3030280.0"
"1573136690124","3032636.0"
"1573136690173","3033929.0"
"1573136690218","3033207.0"
"1573136690270","3039622.0"
"1573136690320","3045290.0"
"1573136690368","3051286.0"
"1573136690417","3059630.0"
"1573136690465","3065293.0"
"1573136690515","3065589.0"
"1573136690561","3062700.0"
"1573136690613","3063576.0"
"1573136690656","3067938.0"
"1573136690712","3072158.0"
"1573136690758","3078696.0"
"1573136690810","3082940.0"
"1573136690860","3083794.0"
"1573136690907","3086774.0"
"1573136690953","3089121.0"
"1573136691007","3094406.0"
"1573136691053","3100737.0"
"1573136691100","3108374.0"
"1573136691150","3113256.0"
"1573136691199","3112980.0"
"1573136691247","3110885.0"
"1573136691300","3111139.0"
"1573136691346","3114504.0"
"1573136691398","3119676.0"
"1573136691441","3119481.0"
"1573136691494","3109957.0"
"1573136691538","3110938.0"
"1573136691622","3112773.0"
"1573136691726","3114073.0"
"1573136691726","3119973.0"
"1573136691742","3131987.0"
"1573136691858","3140658.0"
"1573136691858","3146819.0"
"1573136691907","3154486.0"
"1573136691932","3161360.0"
"1573136691979","3167876.0"
"1573136692030","3169578.0"
"1573136692075","3171273.0"
"1573136692128","3178733.0"
"1573136692176","3181793.0"
"1573136692220","3177106.0"
"1573136692273","3180873.0"
"1573136692321","3188778.0"
"1573136692372","3197992.0"
"1573136692422","3204628.0"
"1573136692469","3202369.0"
"1573136692513","3195881.0"
"1573136692564","3198014.0"
"1573136692617","3199798.0"
"1573136692660","3197263.0"
"1573136692714","3195420.0"
"1573136692760","3195985.0"
"1573136692813","3196737.0"
"1573136692865","3196097.0"
"1573136692904","3194693.0"
"1573136692969","3197531.0"
"1573136693001","3198401.0"
"1573136693049","3193921.0"
"1573136693101","3189573.0"
"1573136693146","3187984.0"
"1573136693200","3188414.0"
"1573136693246","3189944.0"
"1573136693296","3187523.0"
"1573136693343","3185881.0"
"1573136693394","3186765.0"
"1573136693545","3190198.0"
"1573136693545","3191742.0"
"1573136693545","3193348.0"
"1573136693664","3196409.0"
"1573136693664","3186720.0"
"1573136693687","3175484.0"
"1573136693737","3171317.0"
"1573136693785","3165655.0"
"1573136693834","3167638.0"
"1573136693886","3169036.0"
"1573136693932","3162869.0"
"1573136693984","3161650.0"
"1573136694029","3158477.0"
"1573136694078","3157473.0"
"1573136694125","3158507.0"
"1573136694176","3162638.0"
"1573136694225","3162719.0"
"1573136694273","3149419.0"
"1573136694323","3132730.0"
"1573136694371","3122834.0"
"1573136694424","3119028.0"
"1573136694473","3112594.0"
"1573136694517","3105966.0"
"1573136694566","3095549.0"
"1573136694720","3085102.0"
"1573136694720","3075709.0"
"1573136694720","3070382.0"
"1573136694829","3062016.0"
"1573136694829","3060240.0"
"1573136694883","3058665.0"
"1573136694908","3048872.0"
"1573136694961","3020584.0"
"1573136695004","3000031.0"
"1573136695059","2990134.0"
"1573136695102","2985744.0"
"1573136695157","2975406.0"
"1573136695208","2956883.0"
"1573136695254","2944067.0"
"1573136695303","2938552.0"
"1573136695352","2938435.0"
"1573136695401","2944853.0"
"1573136695446","2946771.0"
"1573136695498","2945521.0"
"1573136695543","2932853.0"
"1573136695596","2908393.0"
"1573136695648","2888762.0"
"1573136695693","2882186.0"
"1573136695743","2885122.0"
"1573136695792","2880952.0"
"1573136695841","2876501.0"
"1573136695884","2870995.0"
"1573136695938","2868402.0"
"1573136695988","2867242.0"
"1573136696036","2869806.0"
"1573136696084","2872905.0"
"1573136696133","2876568.0"
"1573136696183","2863735.0"
"1573136696232","2846045.0"
"1573136696275","2834712.0"
"1573136696409","2834750.0"
"1573136696421","2836876.0"
"1573136696440","2832329.0"
"1573136696534","2830894.0"
"1573136696534","2826599.0"
"1573136696569","2826621.0"
"1573136696625","2829169.0"
"1573136696670","2835649.0"
"1573136696719","2837634.0"
"1573136696768","2840821.0"
"1573136696811","2832922.0"
"1573136696864","2812942.0"
"1573136696915","2802369.0"
"1573136696965","2800733.0"
"1573136697012","2803624.0"
"1573136697059","2805934.0"
"1573136697110","2804069.0"
"1573136697159","2803328.0"
"1573136697204","2800749.0"
"1573136697256","2801834.0"
"1573136697304","2808409.0"
"1573136697350","2814860.0"
"1573136697565","2820372.0"
"1573136697565","2821577.0"
"1573136697565","2805319.0"
"1573136697565","2795406.0"
"1573136697618","2791476.0"
"1573136697671","2793994.0"
"1573136697698","2799410.0"
"1573136697746","2801714.0"
"1573136697794","2801924.0"
"1573136697843","2801202.0"
"1573136697886","2801082.0"
"1573136697941","2807480.0"
"1573136697985","2815201.0"
"1573136698034","2825291.0"
"1573136698083","2832692.0"
"1573136698129","2837002.0"
"1573136698179","2833954.0"
"1573136698230","2821991.0"
"1573136698279","2816672.0"
"1573136698328","2818434.0"
"1573136698377","2820380.0"
"1573136698424","2825358.0"
"1573136698479","2829860.0"
"1573136698528","2831154.0"
"1573136698572","2833999.0"
"1573136698625","2840679.0"
"1573136698674","2845813.0"
"1573136698723","2849024.0"
"1573136698765","2853682.0"
"1573136698818","2857799.0"
"1573136698865","2858877.0"
"1573136698914","2850956.0"
"1573136698965","2842477.0"
"1573136699016","2844001.0"
"1573136699062","2848087.0"
"1573136699114","2850405.0"
"1573136699165","2851772.0"
"1573136699206","2854152.0"
"1573136699262","2857197.0"
"1573136699307","2857614.0"
"1573136699359","2865229.0"
"1573136699407","2872348.0"
"1573136699451","2872600.0"
"1573136699506","2880321.0"
"1573136699549","2884467.0"
"1573136699603","2880477.0"
"1573136699646","2871442.0"
"1573136699826","2867644.0"
"1573136699826","2869093.0"
"1573136699826","2869569.0"
"1573136699852","2875239.0"
"1573136699918","2877096.0"
"1573136699945","2881970.0"
"1573136699989","2882759.0"
"1573136700038","2885768.0"
"1573136700086","2888710.0"
"1573136700136","2893570.0"
"1573136700187","2900077.0"
"1573136700238","2901892.0"
"1573136700288","2894461.0"
"1573136700337","2884274.0"
"1573136700386","2880477.0"
"1573136700433","2883464.0"
"1573136700483","2883539.0"
"1573136700533","2883604.0"
"1573136700577","2883212.0"
"1573136700627","2885410.0"
"1573136700678","2887037.0"
"1573136700728","2889148.0"
"1573136700776","2894750.0"
"1573136700825","2898362.0"
"1573136700872","2903340.0"
"1573136700924","2905161.0"
"1573136700967","2903080.0"
"1573136701020","2893480.0"
"1573136701065","2887661.0"
"1573136701118","2889652.0"
"1573136701168","2890136.0"
"1573136701215","2890664.0"
"1573136701265","2889110.0"
"1573136701313","2888939.0"
"1573136701365","2891221.0"
"1573136701409","2894616.0"
"1573136701456","2898324.0"
"1573136701509","2901853.0"
"1573136701558","2903251.0"
"1573136701607","2906542.0"
"1573136701656","2904254.0"
"1573136701705","2895955.0"
"1573136701749","2887633.0"
"1573136701801","2890776.0"
"1573136701848","2893852.0"
"1573136701900","2896215.0"
"1573136701949","2893718.0"
"1573136701997","2893257.0"
"1573136702046","2895122.0"
"1573136702090","2895947.0"
"1573136702145","2898852.0"
"1573136702188","2902351.0"
"1573136702238","2907434.0"
"1573136702288","2911282.0"
"1573136702339","2907292.0"
"1573136702388","2895977.0"
"1573136702432","2892350.0"
"1573136702487","2891794.0"
"1573136702529","2893005.0"
"1573136702582","2893531.0"
"1573136702629","2892818.0"
"1573136702682","2892342.0"
"1573136702729","2893108.0"
"1573136702773","2896757.0"
"1573136702821","2901682.0"
"1573136702876","2904758.0"
"1573136702926","2909009.0"
"1573136702969","2901386.0"
"1573136703024","2889520.0"
"1573136703072","2882082.0"
"1573136703119","2884987.0"
"1573136703169","2887714.0"
"1573136703213","2890256.0"
"1573136703263","2888903.0"
"1573136703310","2885930.0"
"1573136703365","2886643.0"
"1573136703410","2888925.0"
"1573136703459","2893123.0"
"1573136703510","2900731.0"
"1573136703563","2898570.0"
"1573136703609","2884711.0"
"1573136703658","2877186.0"
"1573136703707","2870824.0"
"1573136703749","2874414.0"
"1573136703799","2873461.0"
"1573136703853","2873262.0"
"1573136703898","2867829.0"
"1573136703947","2870074.0"
"1573136703996","2868847.0"
"1573136704045","2872169.0"
"1573136704092","2875446.0"
"1573136704146","2875587.0"
"1573136704190","2861870.0"
"1573136704243","2848705.0"
"1573136704292","2842396.0"
"1573136704342","2838948.0"
"1573136704390","2839216.0"
"1573136704434","2839320.0"
"1573136704488","2836347.0"
"1573136704535","2838160.0"
"1573136704586","2838962.0"
"1573136704632","2841764.0"
"1573136704683","2844113.0"
"1573136704731","2846935.0"
"1573136704782","2835620.0"
"1573136704829","2820008.0"
"1573136704879","2809309.0"
"1573136704923","2805014.0"
"1573136704973","2803817.0"
"1573136705028","2806381.0"
"1573136705073","2801544.0"
"1573136705123","2800132.0"
"1573136705171","2802562.0"
"1573136705220","2803594.0"
"1573136705269","2805422.0"
"1573136705319","2809041.0"
"1573136705368","2814636.0"
"1573136705410","2808862.0"
"1573136705461","2794447.0"
"1573136705513","2780940.0"
"1573136705559","2775523.0"
"1573136705610","2772148.0"
"1573136705662","2771785.0"
"1573136705709","2773331.0"
"1573136705754","2770023.0"
"1573136705808","2772425.0"
"1573136705853","2773857.0"
"1573136705906","2776762.0"
"1573136705952","2781572.0"
"1573136705999","2786429.0"
"1573136706048","2790674.0"
"1573136706097","2791482.0"
"1573136706148","2776653.0"
"1573136706193","2763136.0"
"1573136706247","2760328.0"
"1573136706293","2758395.0"
"1573136706344","2759651.0"
"1573136706393","2759013.0"
"1573136706444","2760059.0"
"1573136706491","2758351.0"
"1573136706535","2761762.0"
"1573136706589","2766094.0"
"1573136706632","2767378.0"
"1573136706687","2771636.0"
"1573136706733","2777604.0"
"1573136706784","2774349.0"
"1573136706833","2761108.0"
"1573136706883","2754962.0"
"1573136706930","2755015.0"
"1573136706979","2760409.0"
"1573136707029","2761100.0"
"1573136707075","2761153.0"
"1573136707126","2763893.0"
"1573136707175","2765476.0"
"1573136707224","2768353.0"
"1573136707273","2773636.0"
"1573136707324","2780056.0"
"1573136707370","2785657.0"
"1573136707415","2776021.0"
"1573136707464","2766405.0"
"1573136707515","2763737.0"
"1573136707563","2766116.0"
"1573136707615","2769452.0"
"1573136707661","2769525.0"
"1573136707714","2775722.0"
"1573136707765","2776994.0"
"1573136707811","2780641.0"
"1573136707860","2785241.0"
"1573136707910","2792517.0"
"1573136707954","2799857.0"
"1573136708006","2798935.0"
"1573136708057","2790361.0"
"1573136708106","2784520.0"
"1573136708153","2786340.0"
"1573136708199","2792850.0"
"1573136708252","2795845.0"
"1573136708302","2795881.0"
"1573136708350","2795652.0"
"1573136708395","2800377.0"
"1573136708447","2806127.0"
"1573136708496","2812086.0"
"1573136708545","2818269.0"
"1573136708593","2822036.0"
"1573136708644","2814421.0"
"1573136708691","2799018.0"
"1573136708735","2793311.0"
"1573136708789","2793593.0"
"1573136708836","2799508.0"
"1573136708886","2802659.0"
"1573136708935","2803974.0"
"1573136708986","2803112.0"
"1573136709033","2803661.0"
"1573136709083","2805221.0"
"1573136709131","2808728.0"
"1573136709176","2817089.0"
"1573136709229","2821829.0"
"1573136709277","2813633.0"
"1573136709327","2802108.0"
"1573136709377","2797696.0"
"1573136709426","2798549.0"
"1573136709474","2800406.0"
"1573136709520","2803051.0"
"1573136709567","2802866.0"
"1573136709615","2803929.0"
"1573136709670","2807704.0"
"1573136709717","2812934.0"
"1573136709769","2812712.0"
"1573136709818","2819147.0"
"1573136709866","2825372.0"
"1573136709914","2821390.0"
"1573136709965","2806328.0"
"1573136710011","2798951.0"
"1573136710058","2798661.0"
"1573136710109","2801194.0"
"1573136710159","2805221.0"
"1573136710207","2805408.0"
"1573136710256","2806024.0"
"1573136710306","2805883.0"
"1573136710349","2809211.0"
"1573136710404","2812712.0"
"1573136710451","2815282.0"
"1573136710498","2822379.0"
"1573136710550","2828210.0"
"1573136710598","2822125.0"
"1573136710648","2805682.0"
"1573136710695","2799991.0"
"1573136710746","2801149.0"
"1573136710793","2799583.0"
"1573136710843","2805839.0"
"1573136710887","2802576.0"
"1573136710944","2803305.0"
"1573136710989","2805170.0"
"1573136711038","2806916.0"
"1573136711088","2809725.0"
"1573136711135","2812578.0"
"1573136711184","2820922.0"
"1573136711232","2824578.0"
"1573136711282","2817080.0"
"1573136711330","2803328.0"
"1573136711380","2796795.0"
"1573136711428","2797330.0"
"1573136711475","2796974.0"
"1573136711527","2801275.0"
"1573136711571","2800363.0"
"1573136711624","2796751.0"
"1573136711671","2800073.0"
"1573136711718","2803074.0"
"1573136711770","2808068.0"
"1573136711819","2810185.0"
"1573136711869","2816524.0"
"1573136711917","2821851.0"
"1573136711962","2815372.0"
"1573136712014","2798445.0"
"1573136712060","2788935.0"
"1573136712111","2783867.0"
"1573136712162","2788443.0"
"1573136712210","2785694.0"
"1573136712259","2781927.0"
"1573136712308","2786052.0"
"1573136712355","2783874.0"
"1573136712404","2789581.0"
"1573136712453","2791899.0"
"1573136712501","2791706.0"
"1573136712552","2791409.0"
"1573136712601","2792508.0"
"1573136712649","2794760.0"
"1573136712698","2783280.0"
"1573136712746","2764928.0"
"1573136712796","2758759.0"
"1573136712846","2757607.0"
"1573136712970","2756790.0"
"1573136712970","2754665.0"
"1573136713026","2746307.0"
"1573136713041","2747548.0"
"1573136713135","2751203.0"
"1573136713149","2750541.0"
"1573136713186","2757883.0"
"1573136713237","2763641.0"
"1573136713288","2764533.0"
"1573136713333","2768412.0"
"1573136713387","2759525.0"
"1573136713431","2741178.0"
"1573136713480","2732040.0"
"1573136713529","2729514.0"
"1573136713573","2731461.0"
"1573136713622","2733421.0"
"1573136713675","2732582.0"
"1573136713728","2728949.0"
"1573136713773","2727395.0"
"1573136713825","2727277.0"
"1573136713871","2727478.0"
"1573136713922","2732923.0"
"1573136713963","2735577.0"
"1573136714113","2736245.0"
"1573136714113","2726698.0"
"1573136714127","2710952.0"
"1573136714223","2707490.0"
"1573136714223","2707171.0"
"1573136714262","2711539.0"
"1573136714310","2714504.0"
"1573136714359","2711777.0"
"1573136714404","2711226.0"
"1573136714457","2710714.0"
"1573136714502","2713189.0"
"1573136714555","2718933.0"
"1573136714603","2725115.0"
"1573136714651","2725241.0"
"1573136714700","2714260.0"
"1573136714749","2696850.0"
"1573136714799","2691514.0"
"1573136714843","2690919.0"
"1573136714895","2694339.0"
"1573136714944","2692815.0"
"1573136714993","2692652.0"
"1573136715044","2690214.0"
"1573136715091","2690304.0"
"1573136715141","2688774.0"
"1573136715190","2691069.0"
"1573136715239","2692473.0"
"1573136715281","2691484.0"
"1573136715336","2681059.0"
"1573136715383","2666422.0"
"1573136715433","2658813.0"
"1573136715483","2658173.0"
"1573136715531","2655707.0"
"1573136715576","2655550.0"
"1573136715628","2654155.0"
"1573136715677","2651540.0"
"1573136715726","2652491.0"
"1573136715770","2654348.0"
"1573136715825","2658850.0"
"1573136715872","2661333.0"
"1573136715926","2663436.0"
"1573136715970","2646353.0"
"1573136716019","2629152.0"
"1573136716065","2624150.0"
"1573136716116","2624144.0"
"1573136716164","2627441.0"
"1573136716215","2628549.0"
"1573136716265","2625592.0"
"1573136716307","2624686.0"
"1573136716360","2627248.0"
"1573136716410","2625458.0"
"1573136716458","2630771.0"
"1573136716504","2634479.0"
"1573136716556","2639628.0"
"1573136716606","2631121.0"
"1573136716654","2614737.0"
"1573136716703","2603798.0"
"1573136716752","2600269.0"
"1573136716801","2602825.0"
"1573136716843","2603316.0"
"1573136716899","2602416.0"
"1573136716945","2601815.0"
"1573136716996","2602268.0"
"1573136717045","2605635.0"
"1573136717093","2609275.0"
"1573136717144","2614320.0"
"1573136717190","2619751.0"
"1573136717241","2620621.0"
"1573136717285","2609773.0"
"1573136717338","2597282.0"
"1573136717385","2594436.0"
"1573136717436","2595453.0"
"1573136717485","2597950.0"
"1573136717532","2598397.0"
"1573136717582","2597408.0"
"1573136717627","2599088.0"
"1573136717681","2601303.0"
"1573136717725","2605649.0"
"1573136717777","2610509.0"
"1573136717826","2614438.0"
"1573136717874","2620212.0"
"1573136717921","2615783.0"
"1573136717967","2600380.0"
"1573136718023","2589986.0"
"1573136718065","2587542.0"
"1573136718118","2587050.0"
"1573136718166","2588395.0"
"1573136718216","2587548.0"
"1573136718266","2587050.0"
"1573136718314","2587830.0"
"1573136718362","2591620.0"
"1573136718411","2595067.0"
"1573136718462","2601658.0"
"1573136718505","2605783.0"
"1573136718558","2612805.0"
"1573136718606","2615168.0"
"1573136718656","2604980.0"
"1573136718706","2591286.0"
"1573136718752","2587436.0"
"1573136718803","2584903.0"
"1573136718846","2585691.0"
"1573136718900","2586634.0"
"1573136718947","2587928.0"
"1573136718999","2589502.0"
"1573136719075","2595067.0"
"1573136719114","2599838.0"
"1573136719154","2603479.0"
"1573136719194","2609558.0"
"1573136719243","2613985.0"
"1573136719286","2619343.0"
"1573136719340","2630028.0"
"1573136719389","2632167.0"
"1573136719437","2620495.0"
"1573136719485","2614595.0"
"1573136719529","2609609.0"
"1573136719584","2609936.0"
"1573136719627","2613266.0"
"1573136719681","2616281.0"
"1573136719727","2617486.0"
"1573136719778","2621899.0"
"1573136719828","2625265.0"
"1573136719877","2631708.0"
"1573136719928","2636084.0"
"1573136719968","2641702.0"
"1573136720024","2649748.0"
"1573136720068","2657958.0"
"1573136720121","2664230.0"
"1573136720169","2665953.0"
"1573136720218","2656585.0"
"1573136720268","2653626.0"
"1573136720315","2651020.0"
"1573136720365","2655142.0"
"1573136720407","2661213.0"
"1573136720463","2664795.0"
"1573136720508","2665925.0"
"1573136720563","2668117.0"
"1573136720605","2671750.0"
"1573136720658","2676914.0"
"1573136720706","2685771.0"
"1573136720756","2691945.0"
"1573136720804","2697035.0"
"1573136720847","2701693.0"
"1573136720902","2708404.0"
"1573136720950","2705787.0"
"1573136720999","2697348.0"
"1573136721049","2694219.0"
"1573136721096","2694078.0"
"1573136721140","2697532.0"
"1573136721190","2699993.0"
"1573136721244","2697719.0"
"1573136721289","2702185.0"
"1573136721341","2704786.0"
"1573136721390","2708486.0"
"1573136721439","2714274.0"
"1573136721482","2719831.0"
"1573136721536","2724224.0"
"1573136721587","2729201.0"
"1573136721629","2736260.0"
"1573136721685","2741195.0"
"1573136721729","2740183.0"
"1573136721781","2730487.0"
"1573136721829","2728057.0"
"1573136721878","2727180.0"
"1573136721927","2728281.0"
"1573136721975","2731259.0"
"1573136722025","2731511.0"
"1573136722070","2733273.0"
"1573136722126","2736030.0"
"1573136722170","2740636.0"
"1573136722221","2745057.0"
"1573136722266","2750624.0"
"1573136722317","2755437.0"
"1573136722367","2761939.0"
"1573136722414","2763188.0"
"1573136722466","2768798.0"
"1573136722510","2776250.0"
"1573136722563","2776295.0"
"1573136722611","2765795.0"
"1573136722660","2762951.0"
"1573136722709","2761346.0"
"1573136722758","2764125.0"
"1573136722805","2765893.0"
"1573136722851","2764726.0"
"1573136722905","2766161.0"
"1573136722954","2769237.0"
"1573136723002","2774267.0"
"1573136723050","2779475.0"
"1573136723094","2785084.0"
"1573136723143","2789760.0"
"1573136723196","2791625.0"
"1573136723247","2797025.0"
"1573136723291","2799217.0"
"1573136723338","2790361.0"
"1573136723389","2783191.0"
"1573136723438","2782277.0"
"1573136723484","2782232.0"
"1573136723535","2786639.0"
"1573136723588","2788792.0"
"1573136723633","2786125.0"
"1573136723687","2783882.0"
"1573136723731","2789187.0"
"1573136723783","2791787.0"
"1573136723831","2795205.0"
"1573136723880","2797947.0"
"1573136723929","2799664.0"
"1573136723977","2805073.0"
"1573136724028","2808951.0"
"1573136724073","2800258.0"
"1573136724125","2787707.0"
"1573136724172","2782923.0"
"1573136724223","2779847.0"
"1573136724272","2780241.0"
"1573136724321","2780635.0"
"1573136724369","2778487.0"
"1573136724414","2781214.0"
"1573136724468","2780686.0"
"1573136724511","2782053.0"
"1573136724563","2785308.0"
"1573136724613","2788406.0"
"1573136724662","2792909.0"
"1573136724710","2795688.0"
"1573136724761","2800993.0"
"1573136724809","2793207.0"
"1573136724851","2779564.0"
"1573136724907","2772000.0"
"1573136724952","2765515.0"
"1573136724999","2768887.0"
"1573136725053","2767683.0"
"1573136725104","2764198.0"
"1573136725146","2765381.0"
"1573136725200","2763700.0"
"1573136725249","2764800.0"
"1573136725292","2766776.0"
"1573136725347","2768010.0"
"1573136725393","2771821.0"
"1573136725443","2776110.0"
"1573136725486","2771949.0"
"1573136725542","2759346.0"
"1573136725591","2752176.0"
"1573136725639","2748239.0"
"1573136725688","2748379.0"
"1573136725733","2749539.0"
"1573136725786","2746114.0"
"1573136725834","2743824.0"
"1573136725883","2745169.0"
"1573136725931","2744322.0"
"1573136725980","2748588.0"
"1573136726027","2753684.0"
"1573136726075","2757733.0"
"1573136726127","2760699.0"
"1573136726174","2759161.0"
"1573136726225","2744805.0"
"1573136726274","2732300.0"
"1573136726323","2725768.0"
"1573136726371","2722982.0"
"1573136726422","2723340.0"
"1573136726463","2720664.0"
"1573136726513","2717364.0"
"1573136726563","2716710.0"
"1573136726616","2719319.0"
"1573136726661","2722084.0"
"1573136726713","2724878.0"
"1573136726764","2727545.0"
"1573136726810","2732487.0"
"1573136726858","2734053.0"
"1573136726908","2726326.0"
"1573136726958","2711145.0"
"1573136727006","2707549.0"
"1573136727055","2706562.0"
"1573136727100","2707957.0"
"1573136727148","2707431.0"
"1573136727204","2706724.0"
"1573136727250","2707705.0"
"1573136727294","2707401.0"
"1573136727348","2713018.0"
"1573136727395","2717789.0"
"1573136727446","2721147.0"
"1573136727489","2726332.0"
"1573136727539","2730583.0"
"1573136727592","2734982.0"
"1573136727638","2729031.0"
"1573136727689","2717960.0"
"1573136727736","2715603.0"
"1573136727787","2715418.0"
"1573136727837","2717580.0"
"1573136727886","2719439.0"
"1573136727933","2717722.0"
"1573136727984","2717988.0"
"1573136728031","2724185.0"
"1573136728077","2729201.0"
"1573136728129","2736312.0"
"1573136728177","2741936.0"
"1573136728221","2745370.0"
"1573136728277","2750006.0"
"1573136728325","2753854.0"
"1573136728373","2751997.0"
"1573136728424","2741914.0"
"1573136728470","2738921.0"
"1573136728517","2738295.0"
"1573136728564","2738564.0"
"1573136728618","2742546.0"
"1573136728662","2742101.0"
"1573136728714","2744842.0"
"1573136728765","2747347.0"
"1573136728812","2753186.0"
"1573136728857","2757059.0"
"1573136728905","2763641.0"
"1573136728957","2770582.0"
"1573136729004","2775218.0"
"1573136729053","2778518.0"
"1573136729102","2786988.0"
"1573136729149","2789209.0"
"1573136729204","2783546.0"
"1573136729251","2780129.0"
"1573136729298","2777699.0"
"1573136729350","2776035.0"
"1573136729398","2778792.0"
"1573136729447","2781356.0"
"1573136729490","2783227.0"
"1573136729546","2786423.0"
"1573136729593","2791527.0"
"1573136729644","2793177.0"
"1573136729690","2798929.0"
"1573136729738","2802673.0"
"1573136729789","2807176.0"
"1573136729837","2813952.0"
"1573136729887","2817162.0"
"1573136729934","2825335.0"
"1573136729983","2832631.0"
"1573136730032","2835537.0"
"1573136730085","2829460.0"
"1573136730130","2825900.0"
"1573136730179","2826302.0"
"1573136730229","2827164.0"
"1573136730277","2828932.0"
"1573136730327","2831622.0"
"1573136730376","2832343.0"
"1573136730424","2832603.0"
"1573136730472","2835701.0"
"1573136730519","2838406.0"
"1573136730566","2843576.0"
"1573136730620","2847947.0"
"1573136730669","2851439.0"
"1573136730716","2854968.0"
"1573136730765","2857555.0"
"1573136730813","2860757.0"
"1573136730860","2862882.0"
"1573136730907","2856149.0"
"1573136730963","2853050.0"
"1573136731009","2850301.0"
"1573136731059","2850405.0"
"1573136731108","2852108.0"
"1573136731156","2851476.0"
"1573136731205","2852063.0"
"1573136731252","2849708.0"
"1573136731300","2852807.0"
"1573136731352","2854977.0"
"1573136731400","2861031.0"
"1573136731443","2865214.0"
"1573136731492","2867608.0"
"1573136731545","2868760.0"
"1573136731595","2870751.0"
"1573136731640","2874585.0"
"1573136731692","2870981.0"
"1573136731740","2861173.0"
"1573136731790","2855696.0"
"1573136731839","2852441.0"
"1573136731888","2851319.0"
"1573136731936","2852331.0"
"1573136731988","2849091.0"
"1573136732034","2849418.0"
"1573136732086","2846327.0"
"1573136732132","2848755.0"
"1573136732182","2852524.0"
"1573136732230","2855310.0"
"1573136732279","2855844.0"
"1573136732323","2856557.0"
"1573136732376","2861856.0"
"1573136732424","2861179.0"
"1573136732468","2851328.0"
"1573136732521","2842871.0"
"1573136732567","2837217.0"
"1573136732621","2831051.0"
"1573136732669","2832550.0"
"1573136732718","2832662.0"
"1573136732762","2826197.0"
"1573136732815","2824362.0"
"1573136732864","2823486.0"
"1573136732912","2823887.0"
"1573136732967","2826621.0"
"1573136733011","2828316.0"
"1573136733055","2831420.0"
"1573136733102","2833168.0"
"1573136733158","2825610.0"
"1573136733202","2811018.0"
"1573136733254","2801678.0"
"1573136733307","2795719.0"
"1573136733352","2794307.0"
"1573136733403","2791602.0"
"1573136733450","2785828.0"
"1573136733495","2782545.0"
"1573136733545","2779491.0"
"1573136733596","2777565.0"
"1573136733645","2778703.0"
"1573136733695","2780523.0"
"1573136733743","2783585.0"
"1573136733791","2784558.0"
"1573136733836","2785487.0"
"1573136733888","2778798.0"
"1573136733938","2757445.0"
"1573136733983","2744947.0"
"1573136734029","2737353.0"
"1573136734085","2733102.0"
"1573136734128","2728740.0"
"1573136734180","2722929.0"
"1573136734227","2716265.0"
"1573136734281","2714652.0"
"1573136734328","2713545.0"
"1573136734378","2717208.0"
"1573136734422","2718338.0"
"1573136734475","2718969.0"
"1573136734520","2719244.0"
"1573136734568","2723516.0"
"1573136734622","2723687.0"
"1573136734664","2706828.0"
"1573136734720","2691864.0"
"1573136734766","2684672.0"
"1573136734817","2680933.0"
"1573136734865","2678251.0"
"1573136734914","2678162.0"
"1573136734963","2673777.0"
"1573136735012","2674342.0"
"1573136735063","2676683.0"
"1573136735110","2679856.0"
"1573136735158","2683467.0"
"1573136735204","2687888.0"
"1573136735255","2692697.0"
"1573136735300","2695275.0"
"1573136735349","2700974.0"
"1573136735399","2704369.0"
"1573136735447","2690950.0"
"1573136735496","2679521.0"
"1573136735547","2674529.0"
"1573136735597","2673355.0"
"1573136735645","2674870.0"
"1573136735694","2673668.0"
"1573136735744","2673897.0"
"1573136735792","2676610.0"
"1573136735842","2679300.0"
"1573136735889","2685570.0"
"1573136735939","2686685.0"
"1573136735986","2691262.0"
"1573136736036","2694769.0"
"1573136736087","2700298.0"
"1573136736134","2709274.0"
"1573136736183","2715871.0"
"1573136736231","2711094.0"
"1573136736283","2698209.0"
"1573136736324","2687510.0"
"1573136736379","2685897.0"
"1573136736428","2686736.0"
"1573136736476","2688282.0"
"1573136736521","2689814.0"
"1573136736569","2691240.0"
"1573136736621","2691900.0"
"1573136736672","2695639.0"
"1573136736720","2700379.0"
"1573136736766","2706003.0"
"1573136736818","2710462.0"
"1573136736866","2717811.0"
"1573136736916","2721519.0"
"1573136736965","2726704.0"
"1573136737014","2734061.0"
"1573136737063","2734596.0"
"1573136737109","2724610.0"
"1573136737160","2717253.0"
"1573136737206","2715530.0"
"1573136737257","2716964.0"
"1573136737307","2720826.0"
"1573136737355","2722381.0"
"1573136737399","2723896.0"
"1573136737451","2724900.0"
"1573136737498","2729788.0"
"1573136737544","2734336.0"
"1573136737600","2738423.0"
"1573136737646","2746351.0"
"1573136737697","2752621.0"
"1573136737746","2758359.0"
"1573136737794","2768026.0"
"1573136737844","2776718.0"
"1573136737887","2781460.0"
"1573136737942","2775775.0"
"1573136737989","2773546.0"
"1573136738038","2773457.0"
"1573136738087","2777604.0"
"1573136738136","2783815.0"
"1573136738186","2787447.0"
"1573136738234","2787707.0"
"1573136738284","2789589.0"
"1573136738325","2793213.0"
"1573136738381","2800526.0"
"1573136738427","2803386.0"
"1573136738478","2804679.0"
"1573136738525","2811367.0"
"1573136738571","2815945.0"
"1573136738626","2821130.0"
"1573136738672","2812564.0"
"1573136738723","2808252.0"
"1573136738767","2807710.0"
"1573136738820","2808403.0"
"1573136738869","2811457.0"
"1573136738917","2814776.0"
"1573136738967","2814309.0"
"1573136739010","2817958.0"
"1573136739060","2818753.0"
"1573136739111","2823381.0"
"1573136739166","2826733.0"
"1573136739208","2829177.0"
"1573136739260","2834320.0"
"1573136739309","2839602.0"
"1573136739357","2831250.0"
"1573136739406","2817237.0"
"1573136739455","2815937.0"
"1573136739500","2814457.0"
"1573136739547","2814533.0"
"1573136739606","2815357.0"
"1573136739648","2814057.0"
"1573136739699","2813283.0"
"1573136739749","2813864.0"
"1573136739797","2818708.0"
"1573136739845","2820171.0"
"1573136739895","2821591.0"
"1573136739944","2826183.0"
"1573136739991","2831221.0"
"1573136740037","2820981.0"
"1573136740085","2813299.0"
"1573136740138","2807838.0"
"1573136740188","2808053.0"
"1573136740236","2807318.0"
"1573136740285","2807153.0"
"1573136740329","2802769.0"
"1573136740378","2800154.0"
"1573136740428","2801706.0"
"1573136740477","2800786.0"
"1573136740524","2805512.0"
"1573136740632","2815579.0"
"1573136740632","2821048.0"
"1573136740796","2824941.0"
"1573136740877","2793244.0"
"1573136740919","2789180.0"
"1573136740969","2784967.0"
"1573136741016","2779735.0"
"1573136741062","2778057.0"
"1573136741109","2776860.0"
"1573136741164","2779818.0"
"1573136741210","2776994.0"
"1573136741261","2776273.0"
"1573136741310","2781393.0"
"1573136741360","2782128.0"
"1573136741407","2769452.0"
"1573136741457","2756085.0"
"1573136741502","2749821.0"
"1573136741550","2744701.0"
"1573136741730","2745809.0"
"1573136741730","2746284.0"
"1573136741730","2742859.0"
"1573136741757","2743267.0"
"1573136741883","2741477.0"
"1573136741883","2739567.0"
"1573136741908","2742523.0"
"1573136741948","2745801.0"
"1573136741994","2742658.0"
"1573136742043","2724215.0"
"1573136742090","2705966.0"
"1573136742141","2696618.0"
"1573136742189","2691953.0"
"1573136742237","2689879.0"
"1573136742287","2685874.0"
"1573136742330","2685480.0"
"1573136742385","2687538.0"
"1573136742431","2693061.0"
"1573136742511","2697616.0"
"1573136742615","2701419.0"
"1573136742615","2706056.0"
"1573136742636","2694694.0"
"1573136742761","2677479.0"
"1573136742761","2665203.0"
"1573136742797","2661518.0"
"1573136742823","2663747.0"
"1573136742871","2662334.0"
"1573136742921","2662745.0"
"1573136742969","2659809.0"
"1573136743016","2659579.0"
"1573136743064","2664342.0"
"1573136743111","2670524.0"
"1573136743166","2676699.0"
"1573136743215","2679588.0"
"1573136743263","2670925.0"
"1573136743307","2652186.0"
"1573136743360","2644614.0"
"1573136743534","2643649.0"
"1573136743534","2643031.0"
"1573136743534","2646129.0"
"1573136743564","2647972.0"
"1573136743697","2648634.0"
"1573136743697","2650327.0"
"1573136743710","2652698.0"
"1573136743749","2658612.0"
"1573136743800","2665285.0"
"1573136743843","2665150.0"
"1573136743891","2652401.0"
"1573136743947","2629857.0"
"1573136743997","2617819.0"
"1573136744140","2616817.0"
"1573136744140","2622827.0"
"1573136744157","2625450.0"
"1573136744299","2629359.0"
"1573136744299","2641753.0"
"1573136744299","2654809.0"
"1573136744355","2660559.0"
"1573136744382","2671646.0"
"1573136744433","2682910.0"
"1573136744483","2689538.0"
"1573136744532","2682583.0"
"1573136744576","2677093.0"
"1573136744630","2678548.0"
"1573136744672","2683461.0"
"1573136744728","2687815.0"
"1573136744774","2692547.0"
"1573136744824","2692829.0"
"1573136744872","2694887.0"
"1573136744918","2699845.0"
"1573136744971","2706167.0"
"1573136745015","2708077.0"
"1573136745065","2714288.0"
"1573136745114","2718033.0"
"1573136745167","2712594.0"
"1573136745214","2704249.0"
"1573136745265","2697228.0"
"1573136745312","2696218.0"
"1573136745363","2696358.0"
"1573136745409","2698262.0"
"1573136745455","2698997.0"
"1573136745503","2702661.0"
"1573136745554","2706391.0"
"1573136745602","2712773.0"
"1573136745651","2717253.0"
"1573136745700","2725152.0"
"1573136745748","2731424.0"
"1573136745804","2733927.0"
"1573136745960","2730256.0"
"1573136745960","2723911.0"
"1573136745960","2725010.0"
"1573136746018","2725485.0"
"1573136746122","2731304.0"
"1573136746122","2734640.0"
"1573136746141","2738712.0"
"1573136746186","2743105.0"
"1573136746235","2747146.0"
"1573136746288","2753751.0"
"1573136746335","2760773.0"
"1573136746386","2766376.0"
"1573136746434","2773560.0"
"1573136746484","2782008.0"
"1573136746531","2791499.0"
"1573136746577","2796418.0"
"1573136746630","2791267.0"
"1573136746676","2786460.0"
"1573136746728","2788205.0"
"1573136746776","2788555.0"
"1573136746826","2790725.0"
"1573136746874","2793689.0"
"1573136746924","2797019.0"
"1573136746971","2801670.0"
"1573136747015","2804843.0"
"1573136747064","2817987.0"
"1573136747116","2827379.0"
"1573136747166","2836146.0"
"1573136747215","2840464.0"
"1573136747265","2844706.0"
"1573136747313","2850346.0"
"1573136747363","2857829.0"
"1573136747411","2856082.0"
"1573136747455","2851789.0"
"1573136747504","2852650.0"
"1573136747558","2855570.0"
"1573136747607","2857337.0"
"1573136747656","2863187.0"
"1573136747704","2864144.0"
"1573136747753","2866917.0"
"1573136747804","2872273.0"
"1573136747851","2879741.0"
"1573136747897","2883494.0"
"1573136747948","2887558.0"
"1573136747998","2891704.0"
"1573136748047","2895991.0"
"1573136748094","2900465.0"
"1573136748145","2904143.0"
"1573136748187","2909291.0"
"1573136748239","2912138.0"
"1573136748289","2909901.0"
"1573136748339","2909098.0"
"1573136748387","2908267.0"
"1573136748432","2911357.0"
"1573136748493","2914442.0"
"1573136748592","2917317.0"
"1573136748592","2917569.0"
"1573136748641","2918192.0"
"1573136748678","2916573.0"
"1573136748725","2926774.0"
"1573136748773","2931998.0"
"1573136748821","2937037.0"
"1573136748870","2944022.0"
"1573136748921","2949237.0"
"1573136748969","2952886.0"
"1573136749021","2957411.0"
"1573136749065","2962375.0"
"1573136749116","2961483.0"
"1573136749164","2959603.0"
"1573136749212","2956779.0"
"1573136749262","2959142.0"
"1573136749309","2961401.0"
"1573136749362","2965652.0"
"1573136749408","2968118.0"
"1573136749458","2968832.0"
"1573136749505","2971566.0"
"1573136749554","2975957.0"
"1573136749604","2977064.0"
"1573136749651","2980087.0"
"1573136749701","2983692.0"
"1573136749748","2987192.0"
"1573136749803","2988938.0"
"1573136749844","2990817.0"
"1573136749894","2993040.0"
"1573136749942","2989041.0"
"1573136749993","2982243.0"
"1573136750042","2980526.0"
"1573136750089","2982808.0"
"1573136750142","2986463.0"
"1573136750188","2986502.0"
"1573136750242","2987176.0"
"1573136750285","2988722.0"
"1573136750332","2988062.0"
"1573136750383","2990358.0"
"1573136750432","2992377.0"
"1573136750482","2994718.0"
"1573136750529","2998227.0"
"1573136750584","2999897.0"
"1573136750631","2996071.0"
"1573136750681","2995825.0"
"1573136750724","2996429.0"
"1573136750777","2994631.0"
"1573136750821","2989234.0"
"1573136750875","2988982.0"
"1573136750923","2987824.0"
"1573136750973","2990685.0"
"1573136751023","2996071.0"
"1573136751239","2993426.0"
"1573136751239","2989161.0"
"1573136751242","2990713.0"
"1573136751242","2991227.0"
"1573136751280","2991754.0"
"1573136751351","2991806.0"
"1573136751365","2993493.0"
"1573136751412","2993538.0"
"1573136751464","3000604.0"
"1573136751505","3004787.0"
"1573136751554","2999066.0"
"1573136751608","2991292.0"
"1573136751657","2986723.0"
"1573136751704","2986902.0"
"1573136751863","2988306.0"
"1573136751864","2991234.0"
"1573136751864","2991620.0"
"1573136751932","2992327.0"
"1573136752045","2990386.0"
"1573136752045","2987198.0"
"1573136752045","2990535.0"
"1573136752110","2992520.0"
"1573136752145","2994058.0"
"1573136752193","2996941.0"
"1573136752242","2991770.0"
"1573136752285","2982970.0"
"1573136752338","2978876.0"
"1573136752388","2977926.0"
"1573136752437","2978848.0"
"1573136752481","2978921.0"
"1573136752530","2972925.0"
"1573136752584","2968051.0"
"1573136752632","2970532.0"
"1573136752682","2974827.0"
"1573136752725","2978899.0"
"1573136752777","2982942.0"
"1573136752822","2983574.0"
"1573136752876","2971320.0"
"1573136752923","2953695.0"
"1573136753058","2946005.0"
"1573136753058","2948161.0"
"1573136753087","2947663.0"
"1573136753219","2949193.0"
"1573136753219","2946889.0"
"1573136753221","2944422.0"
"1573136753285","2942683.0"
"1573136753309","2938032.0"
"1573136753367","2939652.0"
"1573136753406","2939266.0"
"1573136753456","2942921.0"
"1573136753506","2944542.0"
"1573136753555","2929414.0"
"1573136753605","2918863.0"
"1573136753653","2914545.0"
"1573136753703","2909537.0"
"1573136753750","2910390.0"
"1573136753799","2905362.0"
"1573136753852","2901148.0"
"1573136753902","2900360.0"
"1573136753948","2899297.0"
"1573136754110","2899982.0"
"1573136754110","2900829.0"
"1573136754110","2906170.0"
"1573136754255","2903651.0"
"1573136754255","2893145.0"
"1573136754255","2881867.0"
"1573136754298","2876129.0"
"1573136754343","2875737.0"
"1573136754390","2874829.0"
"1573136754434","2874473.0"
"1573136754483","2872876.0"
"1573136754530","2870950.0"
"1573136754579","2871931.0"
"1573136754630","2874353.0"
"1573136754683","2876657.0"
"1573136754727","2879294.0"
"1573136754778","2878671.0"
"1573136754825","2866173.0"
"1573136754879","2854790.0"
"1573136754924","2853772.0"
"1573136754970","2851848.0"
"1573136755019","2853363.0"
"1573136755068","2851811.0"
"1573136755125","2851588.0"
"1573136755171","2852829.0"
"1573136755220","2854901.0"
"1573136755266","2858134.0"
"1573136755311","2861448.0"
"1573136755367","2865928.0"
"1573136755413","2871017.0"
"1573136755464","2866744.0"
"1573136755507","2855391.0"
"1573136755555","2851892.0"
"1573136755610","2850881.0"
"1573136755660","2851104.0"
"1573136755705","2854582.0"
"1573136755751","2857161.0"
"1573136755800","2859010.0"
"1573136755854","2862340.0"
"1573136755905","2865779.0"
"1573136755946","2872964.0"
"1573136755999","2877007.0"
"1573136756044","2880759.0"
"1573136756098","2887135.0"
"1573136756147","2892113.0"
"1573136756195","2887462.0"
"1573136756243","2882527.0"
"1573136756286","2884652.0"
"1573136756344","2885656.0"
"1573136756386","2889132.0"
"1573136756435","2890634.0"
"1573136756487","2894461.0"
"1573136756531","2898117.0"
"1573136756585","2904758.0"
"1573136756635","2908631.0"
"1573136756683","2914165.0"
"1573136756727","2920474.0"
"1573136756776","2927118.0"
"1573136756831","2933930.0"
"1573136756878","2937417.0"
"1573136756927","2939475.0"
"1573136756971","2938152.0"
"1573136757021","2941941.0"
"1573136757066","2944134.0"
"1573136757123","2949965.0"
"1573136757166","2953197.0"
"1573136757219","2956312.0"
"1573136757265","2960160.0"
"1573136757310","2967635.0"
"1573136757385","2972828.0"
"1573136757415","2980370.0"
"1573136757459","2984041.0"
"1573136757508","2988023.0"
"1573136757559","2995299.0"
"1573136757609","2998887.0"
"1573136757659","3002967.0"
"1573136757708","3001339.0"
"1573136757751","3001762.0"
"1573136757800","3003152.0"
"1573136757854","3006868.0"
"1573136757905","3010850.0"
"1573136757946","3015003.0"
"1573136757997","3016171.0"
"1573136758046","3018949.0"
"1573136758098","3024150.0"
"1573136758148","3025816.0"
"1573136758191","3033179.0"
"1573136758239","3036389.0"
"1573136758287","3041397.0"
"1573136758336","3045676.0"
"1573136758387","3047312.0"
"1573136758433","3043417.0"
"1573136758481","3045044.0"
"1573136758530","3045408.0"
"1573136758581","3048811.0"
"1573136758631","3050268.0"
"1573136758680","3048984.0"
"1573136758728","3050877.0"
"1573136758776","3054787.0"
"1573136758825","3057253.0"
"1573136758874","3061747.0"
"1573136758923","3066906.0"
"1573136758971","3067901.0"
"1573136759021","3068986.0"
"1573136759069","3072069.0"
"1573136759119","3075161.0"
"1573136759171","3077879.0"
"1573136759217","3075992.0"
"1573136759264","3074283.0"
"1573136759313","3072359.0"
"1573136759362","3076000.0"
"1573136759411","3076892.0"
"1573136759461","3079893.0"
"1573136759509","3080866.0"
"1573136759559","3083981.0"
"1573136759605","3081996.0"
"1573136759655","3083757.0"
"1573136759704","3091106.0"
"1573136759752","3095192.0"
"1573136759802","3093967.0"
"1573136759851","3091738.0"
"1573136759899","3089968.0"
"1573136759951","3090972.0"
"1573136759996","3091567.0"
"1573136760045","3094375.0"
"1573136760092","3096559.0"
"1573136760143","3098156.0"
"1573136760191","3095936.0"
"1573136760241","3097957.0"
"1573136760289","3097941.0"
"1573136760339","3097474.0"
"1573136760386","3101746.0"
"1573136760435","3101791.0"
"1573136760484","3105119.0"
"1573136760533","3106598.0"
"1573136760583","3112222.0"
"1573136760636","3114207.0"
"1573136760686","3108278.0"
"1573136760731","3104495.0"
"1573136760783","3103536.0"
"1573136760829","3103900.0"
"1573136760879","3104808.0"
"1573136760927","3108248.0"
"1573136760971","3106858.0"
"1573136761021","3106218.0"
"1573136761072","3107817.0"
"1573136761124","3110343.0"
"1573136761174","3111419.0"
"1573136761224","3113441.0"
"1573136761268","3118776.0"
"1573136761317","3118189.0"
"1573136761367","3117401.0"
"1573136761412","3112527.0"
"1573136761465","3111933.0"
"1573136761508","3112068.0"
"1573136761558","3112854.0"
"1573136761610","3112848.0"
"1573136761659","3111346.0"
"1573136761708","3114504.0"
"1573136761755","3115633.0"
"1573136761806","3116162.0"
"1573136761852","3119520.0"
"1573136761903","3118270.0"
"1573136761951","3117387.0"
"1573136762002","3120412.0"
"1573136762046","3125130.0"
"1573136762099","3125071.0"
"1573136762148","3123732.0"
"1573136762193","3123970.0"
"1573136762247","3123555.0"
"1573136762294","3130093.0"
"1573136762344","3131133.0"
"1573136762392","3131290.0"
"1573136762438","3135034.0"
"1573136762490","3134506.0"
"1573136762539","3139092.0"
"1573136762583","3140266.0"
"1573136762631","3143230.0"
"1573136762687","3146715.0"
"1573136762733","3150579.0"
"1573136762783","3153751.0"
"1573136762832","3149836.0"
"1573136762882","3148119.0"
"1573136762929","3146172.0"
"1573136762979","3147956.0"
"1573136763028","3148001.0"
"1573136763075","3151589.0"
"1573136763121","3151016.0"
"1573136763173","3152146.0"
"1573136763217","3154145.0"
"1573136763266","3158611.0"
"1573136763321","3161159.0"
"1573136763368","3160074.0"
"1573136763413","3161634.0"
"1573136763462","3165580.0"
"1573136763512","3170165.0"
"1573136763561","3169296.0"
"1573136763609","3168546.0"
"1573136763659","3164556.0"
"1573136763705","3165232.0"
"1573136763758","3165669.0"
"1573136763808","3168574.0"
"1573136763856","3167134.0"
"1573136763906","3167847.0"
"1573136763955","3170165.0"
"1573136764003","3171667.0"
"1573136764054","3175196.0"
"1573136764103","3175560.0"
"1573136764149","3177981.0"
"1573136764193","3180143.0"
"1573136764243","3183242.0"
"1573136764294","3187137.0"
"1573136764345","3186846.0"
"1573136764395","3184060.0"
"1573136764444","3183087.0"
"1573136764491","3183904.0"
"1573136764535","3184774.0"
"1573136764585","3188437.0"
"1573136764634","3186935.0"
"1573136764683","3189670.0"
"1573136764732","3191155.0"
"1573136764785","3192970.0"
"1573136764833","3195517.0"
"1573136764884","3196714.0"
"1573136764930","3198980.0"
"1573136764979","3204404.0"
"1573136765030","3207145.0"
"1573136765076","3205028.0"
"1573136765122","3201729.0"
"1573136765175","3199768.0"
"1573136765225","3201477.0"
"1573136765272","3201826.0"
"1573136765323","3205126.0"
"1573136765369","3202553.0"
"1573136765416","3202531.0"
"1573136765468","3203772.0"
"1573136765517","3208045.0"
"1573136765563","3207413.0"
"1573136765615","3208529.0"
"1573136765664","3212340.0"
"1573136765712","3215498.0"
"1573136765760","3211471.0"
"1573136765809","3207399.0"
"1573136765856","3201826.0"
"1573136765907","3199144.0"
"1573136765957","3200087.0"
"1573136766006","3199561.0"
"1573136766058","3202005.0"
"1573136766103","3200660.0"
"1573136766151","3197673.0"
"1573136766195","3199471.0"
"1573136766250","3199687.0"
"1573136766297","3199449.0"
"1573136766348","3199642.0"
"1573136766396","3200199.0"
"1573136766445","3199961.0"
"1573136766493","3194536.0"
"1573136766544","3185263.0"
"1573136766591","3182136.0"
"1573136766636","3178851.0"
"1573136766689","3178012.0"
"1573136766738","3176874.0"
"1573136766787","3173747.0"
"1573136766836","3170618.0"
"1573136766885","3169318.0"
"1573136766928","3168367.0"
"1573136766985","3168893.0"
"1573136767030","3169221.0"
"1573136767078","3169139.0"
"1573136767129","3166360.0"
"1573136767177","3154830.0"
"1573136767227","3146016.0"
"1573136767274","3139218.0"
"1573136767323","3137702.0"
"1573136767371","3134218.0"
"1573136767423","3129959.0"
"1573136767464","3126771.0"
"1573136767514","3122507.0"
"1573136767562","3119943.0"
"1573136767617","3118279.0"
"1573136767662","3116369.0"
"1573136767713","3117320.0"
"1573136767759","3116405.0"
"1573136767811","3106799.0"
"1573136767858","3091417.0"
"1573136767909","3081788.0"
"1573136767958","3075382.0"
"1573136768007","3071132.0"
"1573136768059","3066347.0"
"1573136768105","3061912.0"
"1573136768153","3055343.0"
"1573136768199","3050936.0"
"1573136768250","3051064.0"
"1573136768301","3049644.0"
"1573136768349","3046991.0"
"1573136768397","3047787.0"
"1573136768445","3046842.0"
"1573136768494","3027100.0"
"1573136768540","3007693.0"
"1573136768591","2999608.0"
"1573136768640","2991108.0"
"1573136768689","2988730.0"
"1573136768740","2984836.0"
"1573136768788","2978320.0"
"1573136768837","2972115.0"
"1573136768883","2970079.0"
"1573136768935","2969908.0"
"1573136768981","2968608.0"
"1573136769031","2971016.0"
"1573136769077","2974285.0"
"1573136769129","2970325.0"
"1573136769178","2950664.0"
"1573136769227","2934727.0"
"1573136769275","2925149.0"
"1573136769327","2921209.0"
"1573136769372","2916699.0"
"1573136769426","2914291.0"
"1573136769470","2907753.0"
"1573136769516","2906512.0"
"1573136769562","2908816.0"
"1573136769612","2907650.0"
"1573136769662","2905539.0"
"1573136769711","2907574.0"
"1573136769763","2910065.0"
"1573136769808","2903637.0"
"1573136769862","2885768.0"
"1573136769909","2876025.0"
"1573136769959","2871680.0"
"1573136770006","2869004.0"
"1573136770059","2870312.0"
"1573136770102","2863254.0"
"1573136770155","2860726.0"
"1573136770204","2862138.0"
"1573136770252","2866263.0"
"1573136770302","2865883.0"
"1573136770348","2868536.0"
"1573136770399","2873374.0"
"1573136770441","2873894.0"
"1573136770492","2861084.0"
"1573136770542","2847024.0"
"1573136770589","2845494.0"
"1573136770638","2842626.0"
"1573136770686","2845598.0"
"1573136770741","2845911.0"
"1573136770787","2842930.0"
"1573136770838","2843704.0"
"1573136770882","2845153.0"
"1573136770936","2848526.0"
"1573136770987","2853103.0"
"1573136771033","2855511.0"
"1573136771079","2860564.0"
"1573136771131","2865162.0"
"1573136771175","2854960.0"
"1573136771227","2844149.0"
"1573136771277","2838221.0"
"1573136771322","2836362.0"
"1573136771374","2839907.0"
"1573136771423","2840092.0"
"1573136771472","2839409.0"
"1573136771521","2842841.0"
"1573136771566","2844789.0"
"1573136771619","2846090.0"
"1573136771666","2852538.0"
"1573136771716","2856232.0"
"1573136771765","2859918.0"
"1573136771813","2869079.0"
"1573136771862","2871582.0"
"1573136771911","2863542.0"
"1573136771961","2856878.0"
"1573136772009","2857421.0"
"1573136772063","2856283.0"
"1573136772107","2860206.0"
"1573136772156","2861775.0"
"1573136772203","2863774.0"
"1573136772254","2867362.0"
"1573136772302","2872941.0"
"1573136772351","2876562.0"
"1573136772401","2881769.0"
"1573136772447","2887549.0"
"1573136772498","2893874.0"
"1573136772544","2898874.0"
"1573136772594","2908259.0"
"1573136772645","2913251.0"
"1573136772692","2912465.0"
"1573136772743","2905161.0"
"1573136772790","2907233.0"
"1573136772840","2906794.0"
"1573136772885","2910904.0"
"1573136772937","2915013.0"
"1573136772989","2916246.0"
"1573136773034","2920452.0"
"1573136773083","2922934.0"
"1573136773132","2927079.0"
"1573136773184","2932297.0"
"1573136773230","2937148.0"
"1573136773280","2943138.0"
"1573136773324","2949268.0"
"1573136773371","2952254.0"
"1573136773427","2950515.0"
"1573136773469","2944430.0"
"1573136773518","2941338.0"
"1573136773567","2942439.0"
"1573136773621","2943605.0"
"1573136773665","2945529.0"
"1573136773717","2945842.0"
"1573136773765","2948888.0"
"1573136773815","2952610.0"
"1573136773864","2953323.0"
"1573136773909","2958474.0"
"1573136773963","2962403.0"
"1573136774009","2966558.0"
"1573136774059","2971639.0"
"1573136774107","2976016.0"
"1573136774157","2978832.0"
"1573136774206","2968429.0"
"1573136774254","2964522.0"
"1573136774304","2960747.0"
"1573136774350","2960227.0"
"1573136774402","2962598.0"
"1573136774446","2961513.0"
"1573136774498","2962984.0"
"1573136774545","2966944.0"
"1573136774596","2967523.0"
"1573136774646","2971225.0"
"1573136774694","2975496.0"
"1573136774742","2977369.0"
"1573136774787","2980171.0"
"1573136774842","2985268.0"
"1573136774889","2987467.0"
"1573136774938","2984271.0"
"1573136774986","2975244.0"
"1573136775035","2971402.0"
"1573136775083","2971550.0"
"1573136775134","2971446.0"
"1573136775183","2973208.0"
"1573136775224","2971611.0"
"1573136775280","2971558.0"
"1573136775326","2971083.0"
"1573136775376","2977316.0"
"1573136775425","2979234.0"
"1573136775470","2980979.0"
"1573136775518","2986709.0"
"1573136775567","2988476.0"
"1573136775618","2991278.0"
"1573136775664","2988180.0"
"1573136775714","2982733.0"
"1573136775761","2976812.0"
"1573136775815","2978253.0"
"1573136775865","2979122.0"
"1573136775913","2980185.0"
"1573136775964","2978937.0"
"1573136776005","2974189.0"
"1573136776057","2977257.0"
"1573136776110","2978610.0"
"1573136776158","2983188.0"
"1573136776202","2983856.0"
"1573136776255","2986849.0"
"1573136776305","2991152.0"
"1573136776348","2993523.0"
"1573136776402","2985817.0"
"1573136776447","2974821.0"
"1573136776499","2970823.0"
"1573136776548","2967998.0"
"1573136776592","2969797.0"
"1573136776646","2967123.0"
"1573136776695","2966223.0"
"1573136776744","2966846.0"
"1573136776786","2964447.0"
"1573136776843","2968230.0"
"1573136776890","2970814.0"
"1573136776939","2973974.0"
"1573136776987","2975518.0"
"1573136777036","2981753.0"
"1573136777085","2980616.0"
"1573136777130","2971796.0"
"1573136777184","2964469.0"
"1573136777228","2958012.0"
"1573136777280","2954335.0"
"1573136777328","2953474.0"
"1573136777378","2954103.0"
"1573136777428","2952596.0"
"1573136777476","2951564.0"
"1573136777520","2947403.0"
"1573136777570","2946793.0"
"1573136777624","2938768.0"
"1573136777668","2938203.0"
"1573136777720","2955635.0"
"1573136777769","2971306.0"
"1573136777981","2982176.0"
"1573136777981","2981597.0"
"1573136777981","2970177.0"
"1573136777981","2960800.0"
"1573136778020","2958021.0"
"1573136778088","2958829.0"
"1573136778110","2963577.0"
"1573136778160","2964224.0"
"1573136778208","2964106.0"
"1573136778258","2962308.0"
"1573136778308","2961944.0"
"1573136778351","2965510.0"
"1573136778405","2967352.0"
"1573136778452","2974315.0"
"1573136778503","2975236.0"
"1573136778551","2970756.0"
"1573136778599","2958667.0"
"1573136778648","2952403.0"
"1573136778696","2951273.0"
"1573136778746","2959179.0"
"1573136778791","2962531.0"
"1573136778932","2960272.0"
"1573136778932","2958437.0"
"1573136778952","2952350.0"
"1573136779102","2951184.0"
"1573136779102","2959581.0"
"1573136779102","2964989.0"
"1573136779137","2964833.0"
"1573136779378","2956452.0"
"1573136779378","2945091.0"
"1573136779378","2941947.0"
"1573136779378","2942423.0"
"1573136779415","2942506.0"
"1573136779503","2938561.0"
"1573136779505","2935446.0"
"1573136779529","2933262.0"
"1573136779571","2932593.0"
"1573136779625","2931760.0"
"1573136779671","2938040.0"
"1573136779723","2939318.0"
"1573136779772","2937979.0"
"1573136779816","2929355.0"
"1573136779868","2921886.0"
"1573136779915","2914218.0"
"1573136780097","2911945.0"
"1573136780097","2911327.0"
"1573136780097","2908986.0"
"1573136780136","2904090.0"
"1573136780244","2895069.0"
"1573136780244","2893710.0"
"1573136780278","2891704.0"
"1573136780509","2899468.0"
"1573136780509","2901548.0"
"1573136780509","2884473.0"
"1573136780509","2862793.0"
"1573136780509","2851031.0"
"1573136780560","2845718.0"
"1573136780661","2844728.0"
"1573136780661","2847538.0"
"1573136780693","2850494.0"
"1573136780746","2852695.0"
"1573136780793","2854633.0"
"1573136780843","2856923.0"
"1573136780892","2862628.0"
"1573136780941","2861803.0"
"1573136780989","2851959.0"
"1573136781039","2839267.0"
"1573136781088","2835514.0"
"1573136781133","2837083.0"
"1573136781185","2841222.0"
"1573136781234","2840064.0"
"1573136781283","2840872.0"
"1573136781329","2842536.0"
"1573136781382","2842871.0"
"1573136781428","2849826.0"
"1573136781478","2855206.0"
"1573136781659","2854188.0"
"1573136781659","2843934.0"
"1573136781659","2836689.0"
"1573136781693","2833859.0"
"1573136781822","2833635.0"
"1573136781822","2835195.0"
"1573136781822","2835478.0"
"1573136781880","2840478.0"
"1573136781913","2844202.0"
"1573136781961","2846134.0"
"1573136782014","2853579.0"
"1573136782063","2856596.0"
"1573136782110","2851023.0"
"1573136782161","2840167.0"
"1573136782208","2839163.0"
"1573136782251","2840047.0"
"1573136782306","2841660.0"
"1573136782353","2844507.0"
"1573136782404","2842284.0"
"1573136782452","2845249.0"
"1573136782503","2851683.0"
"1573136782550","2861053.0"
"1573136782600","2868433.0"
"1573136782648","2874132.0"
"1573136782693","2877630.0"
"1573136782746","2868484.0"
"1573136782794","2859070.0"
"1573136782843","2860883.0"
"1573136782891","2865147.0"
"1573136782942","2869300.0"
"1573136782989","2875111.0"
"1573136783033","2881123.0"
"1573136783087","2884571.0"
"1573136783136","2889022.0"
"1573136783185","2894937.0"
"1573136783231","2899512.0"
"1573136783283","2906313.0"
"1573136783330","2908810.0"
"1573136783378","2905725.0"
"1573136783428","2903749.0"
"1573136783474","2906014.0"
"1573136783520","2909596.0"
"1573136783570","2913966.0"
"1573136783619","2920074.0"
"1573136783665","2922764.0"
"1573136783723","2926850.0"
"1573136783769","2934050.0"
"1573136783815","2939497.0"
"1573136783868","2947453.0"
"1573136783915","2951304.0"
"1573136783965","2952395.0"
"1573136784013","2948354.0"
"1573136784063","2951653.0"
"1573136784110","2953094.0"
"1573136784154","2956653.0"
"1573136784207","2962033.0"
"1573136784256","2968185.0"
"1573136784306","2973935.0"
"1573136784355","2978929.0"
"1573136784405","2985431.0"
"1573136784452","2987229.0"
"1573136784504","2994978.0"
"1573136784549","3003107.0"
"1573136784596","3005137.0"
"1573136784648","3005165.0"
"1573136784690","3006555.0"
"1573136784745","3010062.0"
"1573136784792","3012463.0"
"1573136784843","3017768.0"
"1573136784890","3020606.0"
"1573136784955","3023378.0"
"1573136784988","3029046.0"
"1573136785037","3034754.0"
"1573136785086","3037259.0"
"1573136785134","3042913.0"
"1573136785185","3045052.0"
"1573136785231","3052133.0"
"1573136785283","3058903.0"
"1573136785329","3063881.0"
"1573136785377","3068310.0"
"1573136785427","3069588.0"
"1573136785475","3067552.0"
"1573136785520","3065648.0"
"1573136785569","3065069.0"
"1573136785623","3069803.0"
"1573136785670","3073288.0"
"1573136785718","3077054.0"
"1573136785768","3077048.0"
"1573136785817","3078578.0"
"1573136785866","3079328.0"
"1573136785915","3087985.0"
"1573136785965","3091909.0"
"1573136786010","3095617.0"
"1573136786056","3099643.0"
"1573136786109","3100720.0"
"1573136786159","3104652.0"
"1573136786208","3108226.0"
"1573136786256","3114363.0"
"1573136786301","3115158.0"
"1573136786354","3107996.0"
"1573136786399","3107772.0"
"1573136786452","3106427.0"
"1573136786498","3107504.0"
"1573136786549","3109361.0"
"1573136786597","3108603.0"
"1573136786647","3106844.0"
"1573136786694","3109384.0"
"1573136786743","3109800.0"
"1573136786791","3109579.0"
"1573136786840","3111204.0"
"1573136786885","3115083.0"
"1573136786939","3119327.0"
"1573136786988","3120062.0"
"1573136787029","3120329.0"
"1573136787086","3125865.0"
"1573136787133","3128502.0"
"1573136787179","3129951.0"
"1573136787230","3128086.0"
"1573136787280","3122669.0"
"1573136787328","3122647.0"
"1573136787378","3122261.0"
"1573136787421","3123080.0"
"1573136787475","3122915.0"
"1573136787519","3120323.0"
"1573136787568","3120018.0"
"1573136787620","3120871.0"
"1573136787670","3121511.0"
"1573136787720","3124059.0"
"1573136787768","3123695.0"
"1573136787815","3123234.0"
"1573136787863","3124914.0"
"1573136787913","3123941.0"
"1573136787965","3126995.0"
"1573136788010","3130680.0"
"1573136788061","3127484.0"
"1573136788104","3118398.0"
"1573136788158","3112364.0"
"1573136788201","3108382.0"
"1573136788255","3105091.0"
"1573136788303","3103567.0"
"1573136788347","3101494.0"
"1573136788396","3097935.0"
"1573136788446","3096878.0"
"1573136788494","3096358.0"
"1573136788544","3096931.0"
"1573136788592","3096618.0"
"1573136788641","3095564.0"
"1573136788693","3096523.0"
"1573136788743","3095572.0"
"1573136788785","3095690.0"
"1573136788840","3096894.0"
"1573136788885","3101226.0"
"1573136788937","3099562.0"
"1573136788980","3089724.0"
"1573136789034","3080517.0"
"1573136789087","3072611.0"
"1573136789127","3070287.0"
"1573136789183","3069118.0"
"1573136789229","3064996.0"
"1573136789278","3062916.0"
"1573136789322","3060447.0"
"1573136789375","3057454.0"
"1573136789421","3057832.0"
"1573136789473","3058352.0"
"1573136789517","3058553.0"
"1573136789566","3059683.0"
"1573136789620","3060545.0"
"1573136789667","3058791.0"
"1573136789717","3062700.0"
"1573136789760","3065278.0"
"1573136789814","3061890.0"
"1573136789863","3049191.0"
"1573136789912","3043447.0"
"1573136789962","3037488.0"
"1573136790008","3039390.0"
"1573136790059","3040075.0"
"1573136790103","3035430.0"
"1573136790151","3032013.0"
"1573136790202","3031960.0"
"1573136790253","3030808.0"
"1573136790302","3034189.0"
"1573136790351","3033112.0"
"1573136790400","3036761.0"
"1573136790449","3039138.0"
"1573136790497","3038973.0"
"1573136790541","3030332.0"
"1573136790594","3016423.0"
"1573136790641","3010316.0"
"1573136790688","3010218.0"
"1573136790742","3011208.0"
"1573136790791","3012835.0"
"1573136790840","3008501.0"
"1573136790887","3006021.0"
"1573136790937","3002506.0"
"1573136790984","3004178.0"
"1573136791034","3007819.0"
"1573136791080","3006600.0"
"1573136791127","3009980.0"
"1573136791177","3012335.0"
"1573136791229","3014141.0"
"1573136791279","3001413.0"
"1573136791323","2986672.0"
"1573136791375","2979799.0"
"1573136791424","2976879.0"
"1573136791473","2976664.0"
"1573136791517","2975943.0"
"1573136791567","2971908.0"
"1573136791620","2971113.0"
"1573136791666","2968407.0"
"1573136791717","2969203.0"
"1573136791764","2972844.0"
"1573136791814","2975191.0"
"1573136791863","2978616.0"
"1573136791911","2981122.0"
"1573136791962","2982436.0"
"1573136792010","2969939.0"
"1573136792059","2957009.0"
"1573136792105","2951161.0"
"1573136792155","2946889.0"
"1573136792199","2947781.0"
"1573136792253","2948798.0"
"1573136792302","2943538.0"
"1573136792349","2942134.0"
"1573136792400","2942610.0"
"1573136792444","2941301.0"
"1573136792496","2944579.0"
"1573136792545","2947328.0"
"1573136792594","2948175.0"
"1573136792644","2951659.0"
"1573136792692","2955196.0"
"1573136792741","2949682.0"
"1573136792783","2932356.0"
"1573136792838","2924042.0"
"1573136792884","2921307.0"
"1573136792935","2920021.0"
"1573136792985","2922191.0"
"1573136793032","2919277.0"
"1573136793080","2915846.0"
"1573136793124","2914470.0"
"1573136793181","2918475.0"
"1573136793225","2920452.0"
"1573136793277","2919582.0"
"1573136793322","2922613.0"
"1573136793374","2927244.0"
"1573136793424","2920860.0"
"1573136793467","2909344.0"
"1573136793516","2897759.0"
"1573136793564","2895225.0"
"1573136793614","2897493.0"
"1573136793662","2897426.0"
"1573136793711","2895687.0"
"1573136793761","2890203.0"
"1573136793813","2891629.0"
"1573136793862","2890105.0"
"1573136793904","2891302.0"
"1573136793960","2895611.0"
"1573136794006","2898421.0"
"1573136794058","2900345.0"
"1573136794107","2903712.0"
"1573136794154","2894951.0"
"1573136794204","2875580.0"
"1573136794249","2865430.0"
"1573136794304","2861179.0"
"1573136794346","2860734.0"
"1573136794398","2862941.0"
"1573136794444","2859613.0"
"1573136794493","2855964.0"
"1573136794544","2853288.0"
"1573136794593","2853601.0"
"1573136794644","2855777.0"
"1573136794685","2859225.0"
"1573136794739","2863618.0"
"1573136794786","2867913.0"
"1573136794837","2871226.0"
"1573136794887","2862524.0"
"1573136794934","2843251.0"
"1573136794982","2831532.0"
"1573136795028","2826792.0"
"1573136795078","2827186.0"
"1573136795127","2828338.0"
"1573136795178","2823635.0"
"1573136795227","2820989.0"
"1573136795275","2818314.0"
"1573136795325","2815780.0"
"1573136795373","2816367.0"
"1573136795423","2819614.0"
"1573136795466","2825187.0"
"1573136795516","2828190.0"
"1573136795564","2833806.0"
"1573136795617","2840813.0"
"1573136795666","2834230.0"
"1573136795714","2817980.0"
"1573136795764","2809910.0"
"1573136795806","2806471.0"
"1573136795864","2807206.0"
"1573136795907","2807035.0"
"1573136795959","2802472.0"
"1573136796007","2804628.0"
"1573136796052","2808157.0"
"1573136796108","2810439.0"
"1573136796154","2814094.0"
"1573136796204","2814480.0"
"1573136796248","2819265.0"
"1573136796302","2822058.0"
"1573136796348","2817816.0"
"1573136796398","2801320.0"
"1573136796445","2792129.0"
"1573136796496","2790436.0"
"1573136796545","2790688.0"
"1573136796588","2793370.0"
"1573136796641","2788347.0"
"1573136796688","2784446.0"
"1573136796739","2783362.0"
"1573136796787","2785755.0"
"1573136796837","2789276.0"
"1573136796886","2790873.0"
"1573136796933","2795400.0"
"1573136796984","2794916.0"
"1573136797029","2798006.0"
"1573136797077","2788429.0"
"1573136797125","2772201.0"
"1573136797174","2761717.0"
"1573136797227","2755683.0"
"1573136797276","2753320.0"
"1573136797326","2753082.0"
"1573136797368","2749456.0"
"1573136797423","2744976.0"
"1573136797470","2742666.0"
"1573136797515","2745423.0"
"1573136797564","2751299.0"
"1573136797617","2756293.0"
"1573136797666","2755512.0"
"1573136797709","2758493.0"
"1573136797764","2757512.0"
"1573136797809","2744293.0"
"1573136797862","2731357.0"
"1573136797909","2726505.0"
"1573136797959","2725071.0"
"1573136798008","2726066.0"
"1573136798057","2725367.0"
"1573136798105","2719229.0"
"1573136798157","2716606.0"
"1573136798203","2715292.0"
"1573136798247","2716696.0"
"1573136798302","2721422.0"
"1573136798349","2728740.0"
"1573136798399","2731617.0"
"1573136798446","2736223.0"
"1573136798491","2738765.0"
"1573136798545","2729685.0"
"1573136798590","2713301.0"
"1573136798636","2702177.0"
"1573136798683","2700178.0"
"1573136798735","2703120.0"
"1573136798783","2705141.0"
"1573136798833","2699934.0"
"1573136798882","2699479.0"
"1573136798932","2700060.0"
"1573136798983","2702994.0"
"1573136799031","2709875.0"
"1573136799076","2712817.0"
"1573136799129","2717001.0"
"1573136799178","2722669.0"
"1573136799227","2709258.0"
"1573136799269","2692205.0"
"1573136799325","2685570.0"
"1573136799373","2681573.0"
"1573136799421","2682932.0"
"1573136799469","2685340.0"
"1573136799515","2686260.0"
"1573136799564","2682642.0"
"1573136799615","2683148.0"
"1573136799666","2683609.0"
"1573136799712","2687479.0"
"1573136799764","2690281.0"
"1573136799812","2697132.0"
"1573136799862","2701531.0"
"1573136799909","2688475.0"
"1573136799959","2670539.0"
"1573136800008","2659907.0"
"1573136800050","2653366.0"
"1573136800105","2652379.0"
"1573136800147","2652907.0"
"1573136800202","2651012.0"
"1573136800250","2650721.0"
"1573136800300","2652497.0"
"1573136800348","2655024.0"
"1573136800391","2656828.0"
"1573136800446","2659541.0"
"1573136800492","2665866.0"
"1573136800539","2674009.0"
"1573136800591","2673147.0"
"1573136800643","2656123.0"
"1573136800689","2642852.0"
"1573136800740","2636395.0"
"1573136800787","2630623.0"
"1573136800833","2631062.0"
"1573136800886","2633610.0"
"1573136800929","2633238.0"
"1573136800983","2638053.0"
"1573136801030","2639904.0"
"1573136801077","2642846.0"
"1573136801130","2648084.0"
"1573136801172","2653679.0"
"1573136801227","2655262.0"
"1573136801273","2661347.0"
"1573136801325","2668814.0"
"1573136801372","2678519.0"
"1573136801423","2678534.0"
"1573136801465","2665880.0"
"1573136801516","2658517.0"
"1573136801564","2659370.0"
"1573136801614","2658970.0"
"1573136801666","2664328.0"
"1573136801807","2667938.0"
"1573136801807","2668450.0"
"1573136801825","2671274.0"
"1573136801924","2676906.0"
"1573136801924","2679803.0"
"1573136801974","2687435.0"
"1573136802001","2692829.0"
"1573136802057","2703024.0"
"1573136802105","2709548.0"
"1573136802148","2716578.0"
"1573136802204","2722856.0"
"1573136802249","2712372.0"
"1573136802424","2704266.0"
"1573136802424","2700052.0"
"1573136802424","2697526.0"
"1573136802458","2702809.0"
"1573136802592","2704845.0"
"1573136802592","2705239.0"
"1573136802592","2703380.0"
"1573136802651","2707876.0"
"1573136802689","2717602.0"
"1573136802733","2727938.0"
"1573136802788","2733555.0"
"1573136802837","2738541.0"
"1573136802885","2740510.0"
"1573136802933","2742316.0"
"1573136802987","2749145.0"
"1573136803196","2751522.0"
"1573136803196","2745555.0"
"1573136803196","2741239.0"
"1573136803196","2737538.0"
"1573136803232","2735711.0"
"1573136803325","2739240.0"
"1573136803337","2740191.0"
"1573136803373","2741290.0"
"1573136803422","2744819.0"
"1573136803470","2750171.0"
"1573136803515","2756158.0"
"1573136803564","2761427.0"
"1573136803616","2763040.0"
"1573136803661","2768485.0"
"1573136803715","2772126.0"
"1573136803764","2777402.0"
"1573136803940","2785428.0"
"1573136803940","2796810.0"
"1573136803940","2792821.0"
"1573136803977","2782953.0"
"1573136804109","2775753.0"
"1573136804109","2773946.0"
"1573136804109","2775188.0"
"1573136804161","2779914.0"
"1573136804198","2779052.0"
"1573136804250","2783518.0"
"1573136804297","2784989.0"
"1573136804349","2785174.0"
"1573136804398","2788532.0"
"1573136804447","2792760.0"
"1573136804495","2795540.0"
"1573136804540","2801127.0"
"1573136804592","2811255.0"
"1573136804638","2819852.0"
"1573136804690","2821308.0"
"1573136804740","2810266.0"
"1573136804788","2800526.0"
"1573136804838","2797895.0"
"1573136804887","2792925.0"
"1573136804935","2795652.0"
"1573136804983","2798563.0"
"1573136805032","2797724.0"
"1573136805085","2797754.0"
"1573136805131","2798386.0"
"1573136805179","2801885.0"
"1573136805228","2805319.0"
"1573136805275","2810498.0"
"1573136805325","2816345.0"
"1573136805373","2825841.0"
"1573136805419","2828598.0"
"1573136805471","2831353.0"
"1573136805518","2835791.0"
"1573136805564","2823850.0"
"1573136805619","2812564.0"
"1573136805667","2809784.0"
"1573136805716","2810000.0"
"1573136805763","2809992.0"
"1573136805814","2809360.0"
"1573136805859","2808641.0"
"1573136805911","2808795.0"
"1573136805960","2810363.0"
"1573136806009","2813403.0"
"1573136806057","2819183.0"
"1573136806105","2823998.0"
"1573136806150","2826636.0"
"1573136806200","2828775.0"
"1573136806251","2832796.0"
"1573136806305","2839751.0"
"1573136806349","2843786.0"
"1573136806399","2837611.0"
"1573136806442","2822950.0"
"1573136806496","2819480.0"
"1573136806539","2819868.0"
"1573136806593","2820662.0"
"1573136806641","2820327.0"
"1573136806690","2816270.0"
"1573136806740","2816806.0"
"1573136806787","2817296.0"
"1573136806837","2818551.0"
"1573136806882","2823269.0"
"1573136806930","2828316.0"
"1573136806984","2832826.0"
"1573136807033","2838741.0"
"1573136807086","2839594.0"
"1573136807125","2843213.0"
"1573136807179","2843778.0"
"1573136807223","2831481.0"
"1573136807276","2824399.0"
"1573136807320","2824614.0"
"1573136807373","2826599.0"
"1573136807421","2829446.0"
"1573136807465","2828672.0"
"1573136807521","2826406.0"
"1573136807564","2824393.0"
"1573136807618","2824689.0"
"1573136807661","2825744.0"
"1573136807716","2827670.0"
"1573136807762","2832855.0"
"1573136807812","2838934.0"
"1573136807862","2844074.0"
"1573136807910","2849826.0"
"1573136807955","2845866.0"
"1573136808004","2831398.0"
"1573136808056","2820618.0"
"1573136808100","2818224.0"
"1573136808150","2814754.0"
"1573136808206","2816538.0"
"1573136808252","2817251.0"
"1573136808302","2816211.0"
"1573136808349","2816398.0"
"1573136808398","2816597.0"
"1573136808442","2820215.0"
"1573136808491","2822424.0"
"1573136808542","2825411.0"
"1573136808587","2827914.0"
"1573136808642","2832455.0"
"1573136808685","2838182.0"
"1573136808737","2832743.0"
"1573136808784","2819563.0"
"1573136808834","2808736.0"
"1573136808881","2806040.0"
"1573136808935","2804924.0"
"1573136808982","2806759.0"
"1573136809032","2804457.0"
"1573136809080","2801076.0"
"1573136809125","2802525.0"
"1573136809179","2806202.0"
"1573136809223","2811247.0"
"1573136809276","2813937.0"
"1573136809322","2816270.0"
"1573136809374","2818484.0"
"1573136809420","2819206.0"
"1573136809472","2824614.0"
"1573136809520","2831577.0"
"1573136809565","2825461.0"
"1573136809619","2814049.0"
"1573136809662","2803988.0"
"1573136809715","2801966.0"
"1573136809762","2804486.0"
"1573136809814","2804136.0"
"1573136809861","2800875.0"
"1573136809910","2799626.0"
"1573136809959","2800109.0"
"1573136810003","2803445.0"
"1573136810057","2807637.0"
"1573136810103","2811077.0"
"1573136810149","2814533.0"
"1573136810205","2816985.0"
"1573136810251","2820484.0"
"1573136810302","2824161.0"
"1573136810350","2821829.0"
"1573136810399","2809717.0"
"1573136810443","2803996.0"
"1573136810496","2797153.0"
"1573136810544","2797494.0"
"1573136810593","2796885.0"
"1573136810643","2791868.0"
"1573136810686","2788638.0"
"1573136810741","2788488.0"
"1573136810784","2790473.0"
"1573136810840","2798453.0"
"1573136810885","2798171.0"
"1573136810935","2803965.0"
"1573136810984","2801960.0"
"1573136811032","2804894.0"
"1573136811080","2808269.0"
"1573136811124","2815319.0"
"1573136811174","2816642.0"
"1573136811223","2804435.0"
"1573136811276","2791371.0"
"1573136811325","2784119.0"
"1573136811374","2780531.0"
"1573136811424","2781876.0"
"1573136811471","2779416.0"
"1573136811518","2780470.0"
"1573136811565","2779735.0"
"1573136811618","2781273.0"
"1573136811665","2782596.0"
"1573136811710","2785769.0"
"1573136811764","2790109.0"
"1573136811813","2794181.0"
"1573136811862","2799656.0"
"1573136811908","2805780.0"
"1573136811960","2809746.0"
"1573136812005","2815595.0"
"1573136812056","2819703.0"
"1573136812106","2808120.0"
"1573136812155","2794114.0"
"1573136812207","2788957.0"
"1573136812245","2787984.0"
"1573136812297","2791759.0"
"1573136812343","2792783.0"
"1573136812393","2789648.0"
"1573136812444","2787195.0"
"1573136812491","2788356.0"
"1573136812542","2794463.0"
"1573136812590","2801901.0"
"1573136812639","2806670.0"
"1573136812691","2808557.0"
"1573136812742","2811619.0"
"1573136812787","2814049.0"
"1573136812838","2817875.0"
"1573136812886","2824289.0"
"1573136812936","2827343.0"
"1573136812986","2828806.0"
"1573136813033","2815906.0"
"1573136813080","2808588.0"
"1573136813125","2804211.0"
"1573136813182","2802145.0"
"1573136813226","2801574.0"
"1573136813278","2798526.0"
"1573136813326","2799128.0"
"1573136813370","2800251.0"
"1573136813425","2803498.0"
"1573136813471","2806723.0"
"1573136813518","2809553.0"
"1573136813564","2811099.0"
"1573136813634","2813366.0"
"1573136813664","2818998.0"
"1573136813713","2823568.0"
"1573136813762","2829102.0"
"1573136813814","2834021.0"
"1573136813863","2835581.0"
"1573136813907","2824376.0"
"1573136813962","2810601.0"
"1573136814007","2806418.0"
"1573136814058","2806737.0"
"1573136814106","2811656.0"
"1573136814156","2810914.0"
"1573136814204","2810179.0"
"1573136814254","2807659.0"
"1573136814303","2808143.0"
"1573136814347","2807785.0"
"1573136814400","2812785.0"
"1573136814444","2817808.0"
"1573136814497","2822556.0"
"1573136814547","2826004.0"
"1573136814595","2828361.0"
"1573136814644","2832046.0"
"1573136814686","2836853.0"
"1573136814741","2832936.0"
"1573136814788","2819563.0"
"1573136814839","2813647.0"
"1573136814887","2809681.0"
"1573136814936","2809018.0"
"1573136814984","2811552.0"
"1573136815034","2808462.0"
"1573136815080","2805934.0"
"1573136815130","2805436.0"
"1573136815181","2807860.0"
"1573136815228","2812682.0"
"1573136815278","2815274.0"
"1573136815326","2815506.0"
"1573136815374","2820833.0"
"1573136815425","2824852.0"
"1573136815467","2828255.0"
"1573136815517","2824555.0"
"1573136815566","2812086.0"
"1573136815620","2805221.0"
"1573136815668","2799975.0"
"1573136815717","2797190.0"
"1573136815765","2798065.0"
"1573136815809","2795422.0"
"1573136815864","2793102.0"
"1573136815909","2794195.0"
"1573136815962","2796141.0"
"1573136816008","2797464.0"
"1573136816058","2803840.0"
"1573136816106","2805764.0"
"1573136816153","2808126.0"
"1573136816205","2810288.0"
"1573136816250","2814427.0"
"1573136816301","2803854.0"
"1573136816350","2784796.0"
"1573136816399","2778278.0"
"1573136816447","2772142.0"
"1573136816497","2771019.0"
"1573136816545","2771421.0"
"1573136816590","2767573.0"
"1573136816644","2764852.0"
"1573136816689","2766012.0"
"1573136816742","2765372.0"
"1573136816789","2768723.0"
"1573136816840","2770462.0"
"1573136816888","2774972.0"
"1573136816936","2780338.0"
"1573136816986","2784379.0"
"1573136817029","2784997.0"
"1573136817080","2770708.0"
"1573136817132","2752800.0"
"1573136817178","2746150.0"
"1573136817228","2744078.0"
"1573136817279","2743720.0"
"1573136817320","2741245.0"
"1573136817370","2735851.0"
"1573136817424","2736514.0"
"1573136817471","2737219.0"
"1573136817517","2741223.0"
"1573136817566","2742761.0"
"1573136817620","2747064.0"
"1573136817666","2753670.0"
"1573136817718","2757646.0"
"1573136817766","2762193.0"
"1573136817811","2761220.0"
"1573136817863","2746463.0"
"1573136817911","2731148.0"
"1573136817962","2729951.0"
"1573136818009","2731402.0"
"1573136818059","2735146.0"
"1573136818107","2735555.0"
"1573136818150","2728882.0"
"1573136818199","2727233.0"
"1573136818251","2727300.0"
"1573136818302","2730644.0"
"1573136818351","2736475.0"
"1573136818396","2740719.0"
"1573136818442","2747160.0"
"1573136818493","2751597.0"
"1573136818543","2744515.0"
"1573136818591","2728919.0"
"1573136818641","2719400.0"
"1573136818689","2711702.0"
"1573136818735","2708463.0"
"1573136818786","2709822.0"
"1573136818834","2710365.0"
"1573136818884","2706836.0"
"1573136818932","2707653.0"
"1573136818985","2710790.0"
"1573136819032","2713872.0"
"1573136819080","2716472.0"
"1573136819131","2717767.0"
"1573136819176","2722923.0"
"1573136819228","2727887.0"
"1573136819280","2715278.0"
"1573136819326","2696039.0"
"1573136819372","2687695.0"
"1573136819420","2683861.0"
"1573136819472","2684092.0"
"1573136819518","2684915.0"
"1573136819565","2681098.0"
"1573136819620","2675709.0"
"1573136819668","2676794.0"
"1573136819713","2680748.0"
"1573136819766","2684367.0"
"1573136819809","2687859.0"
"1573136819863","2693178.0"
"1573136819910","2698930.0"
"1573136819962","2695125.0"
"1573136820004","2677264.0"
"1573136820056","2666302.0"
"1573136820100","2659705.0"
"1573136820155","2659571.0"
"1573136820205","2660083.0"
"1573136820253","2658606.0"
"1573136820303","2653167.0"
"1573136820345","2653411.0"
"1573136820396","2655746.0"
"1573136820448","2658115.0"
"1573136820494","2664163.0"
"1573136820546","2671498.0"
"1573136820595","2674773.0"
"1573136820644","2674893.0"
"1573136820692","2657275.0"
"1573136820743","2646233.0"
"1573136820789","2639664.0"
"1573136820833","2642304.0"
"1573136820882","2646487.0"
"1573136820934","2646040.0"
"1573136820985","2646643.0"
"1573136821034","2647035.0"
"1573136821080","2649912.0"
"1573136821131","2649354.0"
"1573136821177","2651406.0"
"1573136821228","2655737.0"
"1573136821275","2660209.0"
"1573136821326","2649748.0"
"1573136821375","2636269.0"
"1573136821420","2633014.0"
"1573136821466","2632866.0"
"1573136821518","2635014.0"
"1573136821566","2634099.0"
"1573136821614","2632710.0"
"1573136821667","2630682.0"
"1573136821716","2633098.0"
"1573136821766","2637667.0"
"1573136821814","2644829.0"
"1573136821863","2650550.0"
"1573136821913","2654096.0"
"1573136821957","2650380.0"
"1573136822008","2635014.0"
"1573136822056","2624060.0"
"1573136822106","2619782.0"
"1573136822156","2619180.0"
"1573136822205","2620369.0"
"1573136822252","2623741.0"
"1573136822303","2621691.0"
"1573136822350","2621082.0"
"1573136822394","2626283.0"
"1573136822441","2632710.0"
"1573136822497","2636560.0"
"1573136822541","2643098.0"
"1573136822595","2649725.0"
"1573136822645","2643655.0"
"1573136822691","2628839.0"
"1573136822743","2620153.0"
"1573136822789","2618949.0"
"1573136822837","2619209.0"
"1573136822887","2622055.0"
"1573136822936","2619983.0"
"1573136822986","2620934.0"
"1573136823034","2622634.0"
"1573136823080","2626618.0"
"1573136823131","2632116.0"
"1573136823178","2638061.0"
"1573136823230","2643165.0"
"1573136823277","2650439.0"
"1573136823327","2648582.0"
"1573136823377","2637242.0"
"1573136823426","2631677.0"
"1573136823473","2634502.0"
"1573136823519","2637139.0"
"1573136823564","2640690.0"
"1573136823620","2640207.0"
"1573136823665","2643388.0"
"1573136823715","2644295.0"
"1573136823763","2649963.0"
"1573136823811","2655106.0"
"1573136823866","2660612.0"
"1573136823913","2670122.0"
"1573136823959","2675183.0"
"1573136824004","2675390.0"
"1573136824058","2664320.0"
"1573136824108","2656012.0"
"1573136824152","2653909.0"
"1573136824206","2653687.0"
"1573136824255","2659059.0"
"1573136824301","2659401.0"
"1573136824350","2663100.0"
"1573136824400","2669468.0"
"1573136824449","2671719.0"
"1573136824498","2676520.0"
"1573136824548","2683505.0"
"1573136824595","2690385.0"
"1573136824643","2697191.0"
"1573136824688","2704243.0"
"1573136824739","2699926.0"
"1573136824790","2689330.0"
"1573136824840","2683897.0"
"1573136824884","2681417.0"
"1573136824933","2685175.0"
"1573136824983","2688623.0"
"1573136825028","2689724.0"
"1573136825085","2694322.0"
"1573136825131","2697725.0"
"1573136825182","2702817.0"
"1573136825229","2707348.0"
"1573136825279","2713665.0"
"1573136825323","2722017.0"
"1573136825375","2729780.0"
"1573136825420","2734455.0"
"1573136825468","2739508.0"
"1573136825521","2749494.0"
"1573136825566","2750490.0"
"1573136825620","2743452.0"
"1573136825667","2734394.0"
"1573136825717","2733066.0"
"1573136825767","2733994.0"
"1573136825815","2739313.0"
"1573136825865","2739833.0"
"1573136825911","2742241.0"
"1573136825961","2742190.0"
"1573136826009","2748913.0"
"1573136826058","2755988.0"
"1573136826102","2762674.0"
"1573136826157","2768054.0"
"1573136826202","2772906.0"
"1573136826254","2778219.0"
"1573136826304","2786706.0"
"1573136826351","2791907.0"
"1573136826402","2787181.0"
"1573136826448","2783748.0"
"1573136826499","2782254.0"
"1573136826541","2782447.0"
"1573136826596","2785850.0"
"1573136826641","2786334.0"
"1573136826692","2788725.0"
"1573136826742","2790844.0"
"1573136826790","2794938.0"
"1573136826839","2801580.0"
"1573136826884","2807198.0"
"1573136826936","2810179.0"
"1573136826979","2815053.0"
"1573136827034","2819480.0"
"1573136827086","2826250.0"
"1573136827131","2830500.0"
"1573136827182","2823322.0"
"1573136827229","2814407.0"
"1573136827278","2812013.0"
"1573136827325","2810237.0"
"1573136827371","2812548.0"
"1573136827421","2815707.0"
"1573136827474","2816851.0"
"1573136827520","2819273.0"
"1573136827566","2823040.0"
"1573136827620","2824742.0"
"1573136827669","2828115.0"
"1573136827718","2835078.0"
"1573136827760","2837961.0"
"1573136827814","2843436.0"
"1573136827863","2849113.0"
"1573136827907","2847114.0"
"1573136827960","2838658.0"
"1573136828009","2832550.0"
"1573136828059","2833347.0"
"1573136828107","2834275.0"
"1573136828158","2838593.0"
"1573136828205","2837396.0"
"1573136828252","2840606.0"
"1573136828303","2841884.0"
"1573136828350","2845242.0"
"1573136828402","2850584.0"
"1573136828442","2856945.0"
"1573136828498","2859806.0"
"1573136828542","2865489.0"
"1573136828595","2868573.0"
"1573136828645","2866165.0"
"1573136828692","2860852.0"
"1573136828743","2857888.0"
"1573136828790","2856714.0"
"1573136828840","2859404.0"
"1573136828886","2861870.0"
"1573136828936","2861834.0"
"1573136828984","2863431.0"
"1573136829034","2867756.0"
"1573136829081","2871344.0"
"1573136829131","2875997.0"
"1573136829182","2878984.0"
"1573136829228","2886249.0"
"1573136829279","2891377.0"
"1573136829324","2891050.0"
"1573136829375","2884252.0"
"1573136829425","2878159.0"
"1573136829472","2876635.0"
"1573136829517","2878805.0"
"1573136829564","2882535.0"
"1573136829620","2885105.0"
"1573136829663","2884675.0"
"1573136829717","2885329.0"
"1573136829764","2891288.0"
"1573136829816","2894638.0"
"1573136829864","2900286.0"
"1573136829907","2904053.0"
"1573136829956","2909151.0"
"1573136830006","2910488.0"
"1573136830055","2901802.0"
"1573136830102","2897062.0"
"1573136830152","2896727.0"
"1573136830201","2898257.0"
"1573136830254","2902426.0"
"1573136830304","2904313.0"
"1573136830351","2908192.0"
"1573136830402","2909931.0"
"1573136830443","2912717.0"
"1573136830500","2917093.0"
"1573136830545","2923119.0"
"1573136830595","2929540.0"
"1573136830644","2934548.0"
"1573136830694","2937772.0"
"1573136830743","2930557.0"
"1573136830788","2927711.0"
"1573136830841","2927823.0"
"1573136830885","2932490.0"
"1573136830937","2937118.0"
"1573136830987","2940320.0"
"1573136831038","2941956.0"
"1573136831084","2945789.0"
"1573136831128","2948642.0"
"1573136831177","2951667.0"
"1573136831225","2959201.0"
"1573136831280","2963594.0"
"1573136831326","2968689.0"
"1573136831376","2968504.0"
"1573136831426","2963801.0"
"1573136831474","2964083.0"
"1573136831519","2969128.0"
"1573136831566","2972956.0"
"1573136831622","2974984.0"
"1573136831666","2974427.0"
"1573136831718","2978275.0"
"1573136831767","2980750.0"
"1573136831814","2985157.0"
"1573136831865","2990216.0"
"1573136831913","2994110.0"
"1573136831963","2999511.0"
"1573136832005","3000596.0"
"1573136832059","2994035.0"
"1573136832106","2991932.0"
"1573136832158","2995951.0"
"1573136832201","2996063.0"
"1573136832254","3000596.0"
"1573136832304","3001955.0"
"1573136832350","3003450.0"
"1573136832401","3006555.0"
"1573136832446","3007483.0"
"1573136832499","3011080.0"
"1573136832547","3016482.0"
"1573136832596","3020361.0"
"1573136832645","3015866.0"
"1573136832695","3012366.0"
"1573136832743","3006787.0"
"1573136832786","3006155.0"
"1573136832840","3006941.0"
"1573136832887","3006429.0"
"1573136832937","3006815.0"
"1573136832986","3007937.0"
"1573136833035","3006354.0"
"1573136833084","3006594.0"
"1573136833132","3007774.0"
"1573136833183","3012226.0"
"1573136833226","3015486.0"
"1573136833283","3015791.0"
"1573136833327","3007863.0"
"1573136833377","3001933.0"
"1573136833420","2997944.0"
"1573136833476","2999385.0"
"1573136833520","2997751.0"
"1573136833569","3000604.0"
"1573136833622","2994956.0"
"1573136833668","2994964.0"
"1573136833719","2997142.0"
"1573136833767","2998865.0"
"1573136833816","3003836.0"
"1573136833861","3007047.0"
"1573136833910","3009438.0"
"1573136833964","3003233.0"
"1573136834008","2993590.0"
"1573136834062","2987125.0"
"1573136834109","2987408.0"
"1573136834159","2990990.0"
"1573136834203","2990075.0"
"1573136834256","2988485.0"
"1573136834305","2986768.0"
"1573136834349","2987475.0"
"1573136834399","2987623.0"
"1573136834449","2990602.0"
"1573136834502","2993269.0"
"1573136834549","2998471.0"
"1573136834599","2996829.0"
"1573136834647","2987615.0"
"1573136834696","2980453.0"
"1573136834745","2977271.0"
"1573136834790","2975845.0"
"1573136834844","2972420.0"
"1573136834889","2970965.0"
"1573136834941","2970213.0"
"1573136834988","2967042.0"
"1573136835038","2969232.0"
"1573136835087","2971387.0"
"1573136835137","2971804.0"
"1573136835186","2973320.0"
"1573136835228","2978373.0"
"1573136835283","2983037.0"
"1573136835331","2978350.0"
"1573136835383","2970414.0"
"1573136835428","2963423.0"
"1573136835474","2963644.0"
"1573136835520","2963921.0"
"1573136835571","2967324.0"
"1573136835624","2970764.0"
"1573136835669","2972531.0"
"1573136835717","2973468.0"
"1573136835770","2976678.0"
"1573136835820","2978462.0"
"1573136835862","2980498.0"
"1573136835911","2986723.0"
"1573136835960","2988804.0"
"1573136836009","2996488.0"
"1573136836064","3001474.0"
"1573136836111","3007937.0"
"1573136836162","3006073.0"
"1573136836204","3000937.0"
"1573136836260","3002089.0"
"1573136836308","3000232.0"
"1573136836358","3004883.0"
"1573136836407","3009653.0"
"1573136836449","3013414.0"
"1573136836504","3016513.0"
"1573136836551","3021557.0"
"1573136836602","3021706.0"
"1573136836649","3024471.0"
"1573136836700","3031938.0"
"1573136836747","3037844.0"
"1573136836795","3041462.0"
"1573136836846","3049591.0"
"1573136836891","3057536.0"
"1573136836943","3060091.0"
"1573136836991","3058688.0"
"1573136837041","3060100.0"
"1573136837088","3063777.0"
"1573136837138","3064691.0"
"1573136837187","3070159.0"
"1573136837231","3070323.0"
"1573136837284","3075265.0"
"1573136837332","3077977.0"
"1573136837382","3080539.0"
"1573136837430","3087390.0"
"1573136837482","3091590.0"
"1573136837527","3093676.0"
"1573136837573","3101635.0"
"1573136837621","3104123.0"
"1573136837672","3105938.0"
"1573136837723","3113790.0"
"1573136837773","3116153.0"
"1573136837822","3114579.0"
"1573136837869","3113665.0"
"1573136837919","3114942.0"
"1573136837967","3114646.0"
"1573136838011","3117224.0"
"1573136838063","3121674.0"
"1573136838114","3122216.0"
"1573136838164","3123709.0"
"1573136838210","3124498.0"
"1573136838262","3126095.0"
"1573136838308","3130264.0"
"1573136838357","3133927.0"
"1573136838407","3133919.0"
"1573136838452","3138147.0"
"1573136838505","3139456.0"
"1573136838554","3142887.0"
"1573136838596","3145445.0"
"1573136838647","3144285.0"
"1573136838694","3141676.0"
"1573136838741","3138348.0"
"1573136838794","3139031.0"
"1573136838842","3140183.0"
"1573136838894","3141804.0"
"1573136838944","3143541.0"
"1573136838992","3144315.0"
"1573136839043","3143401.0"
"1573136839083","3142174.0"
"1573136839133","3143773.0"
"1573136839188","3144293.0"
"1573136839234","3145213.0"
"1573136839285","3147540.0"
"1573136839334","3149047.0"
"1573136839383","3151061.0"
"1573136839430","3147459.0"
"1573136839481","3140725.0"
"1573136839528","3136869.0"
"1573136839576","3135101.0"
"1573136839620","3135294.0"
"1573136839672","3134774.0"
"1573136839720","3132663.0"
"1573136839768","3129884.0"
"1573136839816","3127797.0"
"1573136839866","3124402.0"
"1573136839916","3125703.0"
"1573136839964","3127068.0"
"1573136840015","3124668.0"
"1573136840062","3124618.0"
"1573136840111","3128049.0"
"1573136840158","3126028.0"
"1573136840206","3119022.0"
"1573136840257","3105477.0"
"1573136840304","3098640.0"
"1573136840356","3091098.0"
"1573136840403","3089814.0"
"1573136840454","3086142.0"
"1573136840501","3081022.0"
"1573136840548","3076037.0"
"1573136840599","3071207.0"
"1573136840646","3067574.0"
"1573136840702","3067566.0"
"1573136840743","3068718.0"
"1573136840793","3065709.0"
"1573136840843","3064305.0"
"1573136840892","3066512.0"
"1573136840941","3063710.0"
"1573136840990","3048953.0"
"1573136841040","3031686.0"
"1573136841087","3020220.0"
"1573136841140","3013979.0"
"1573136841185","3009505.0"
"1573136841238","3006451.0"
"1573136841283","2998879.0"
"1573136841332","2990973.0"
"1573136841381","2986010.0"
"1573136841429","2982934.0"
"1573136841480","2981388.0"
"1573136841526","2980803.0"
"1573136841575","2980504.0"
"1573136841624","2980437.0"
"1573136841674","2978484.0"
"1573136841722","2963393.0"
"1573136841770","2943918.0"
"1573136841820","2932786.0"
"1573136841867","2927140.0"
"1573136841921","2928276.0"
"1573136841966","2923008.0"
"1573136842017","2916410.0"
"1573136842063","2907375.0"
"1573136842113","2905085.0"
"1573136842162","2906601.0"
"1573136842210","2905488.0"
"1573136842258","2904663.0"
"1573136842307","2908222.0"
"1573136842360","2907249.0"
"1573136842405","2895611.0"
"1573136842455","2875715.0"
"1573136842502","2861328.0"
"1573136842551","2852829.0"
"1573136842601","2852664.0"
"1573136842649","2852360.0"
"1573136842702","2845598.0"
"1573136842745","2840799.0"
"1573136842798","2836146.0"
"1573136842848","2834572.0"
"1573136842897","2835931.0"
"1573136842947","2834944.0"
"1573136842992","2838769.0"
"1573136843044","2839432.0"
"1573136843092","2827690.0"
"1573136843144","2805014.0"
"1573136843190","2789595.0"
"1573136843240","2783079.0"
"1573136843288","2782053.0"
"1573136843336","2781228.0"
"1573136843379","2777321.0"
"1573136843433","2772232.0"
"1573136843483","2770106.0"
"1573136843526","2770366.0"
"1573136843579","2772417.0"
"1573136843622","2774304.0"
"1573136843674","2776370.0"
"1573136843723","2781393.0"
"1573136843771","2779408.0"
"1573136843820","2759117.0"
"1573136843868","2742948.0"
"1573136843923","2735473.0"
"1573136843970","2736075.0"
"1573136844020","2736290.0"
"1573136844063","2734967.0"
"1573136844112","2730309.0"
"1573136844162","2729640.0"
"1573136844215","2729394.0"
"1573136844263","2732493.0"
"1573136844311","2738326.0"
"1573136844360","2739336.0"
"1573136844409","2745406.0"
"1573136844458","2749263.0"
"1573136844503","2751455.0"
"1573136844555","2738393.0"
"1573136844602","2724014.0"
"1573136844653","2720753.0"
"1573136844702","2721481.0"
"1573136844747","2726282.0"
"1573136844797","2726430.0"
"1573136844844","2723108.0"
"1573136844893","2724089.0"
"1573136844940","2728986.0"
"1573136844994","2732182.0"
"1573136845043","2735859.0"
"1573136845092","2743178.0"
"1573136845141","2749352.0"
"1573136845191","2750132.0"
"1573136845239","2738312.0"
"1573136845286","2729380.0"
"1573136845336","2726958.0"
"1573136845380","2726310.0"
"1573136845428","2730471.0"
"1573136845481","2732054.0"
"1573136845530","2732856.0"
"1573136845576","2736841.0"
"1573136845628","2741111.0"
"1573136845677","2745793.0"
"1573136845720","2751427.0"
"1573136845775","2756203.0"
"1573136845821","2762898.0"
"1573136845872","2765060.0"
"1573136845922","2753907.0"
"1573136845969","2743401.0"
"1573136846015","2742003.0"
"1573136846064","2743141.0"
"1573136846117","2744925.0"
"1573136846164","2746626.0"
"1573136846214","2748944.0"
"1573136846264","2751270.0"
"1573136846311","2755957.0"
"1573136846361","2760557.0"
"1573136846408","2767727.0"
"1573136846458","2774170.0"
"1573136846501","2778384.0"
"1573136846554","2783577.0"
"1573136846601","2777819.0"
"1573136846652","2766821.0"
"1573136846701","2764495.0"
"1573136846745","2766360.0"
"1573136846800","2770395.0"
"1573136846845","2769058.0"
"1573136846897","2771004.0"
"1573136846942","2774162.0"
"1573136846993","2778865.0"
"1573136847043","2784276.0"
"1573136847092","2791907.0"
"1573136847142","2795845.0"
"1573136847187","2802249.0"
"1573136847237","2807771.0"
"1573136847282","2804352.0"
"1573136847330","2799173.0"
"1573136847385","2794544.0"
"1573136847432","2796499.0"
"1573136847480","2800036.0"
"1573136847529","2803809.0"
"1573136847575","2804427.0"
"1573136847621","2805906.0"
"1573136847677","2809435.0"
"1573136847724","2816077.0"
"1573136847773","2821560.0"
"1573136847824","2828308.0"
"1573136847865","2832268.0"
"1573136847922","2836957.0"
"1573136847966","2840523.0"
"1573136848018","2835976.0"
"1573136848063","2824110.0"
"1573136848114","2821367.0"
"1573136848166","2823314.0"
"1573136848213","2824072.0"
"1573136848262","2824049.0"
"1573136848309","2824317.0"
"1573136848359","2826101.0"
"1573136848404","2829958.0"
"1573136848452","2835285.0"
"1573136848504","2838310.0"
"1573136848549","2841638.0"
"1573136848605","2846431.0"
"1573136848648","2851291.0"
"1573136848697","2855897.0"
"1573136848749","2852888.0"
"1573136848796","2840813.0"
"1573136848845","2838509.0"
"1573136848891","2835649.0"
"1573136848942","2837944.0"
"1573136848989","2839350.0"
"1573136849043","2841728.0"
"1573136849086","2841778.0"
"1573136849141","2843956.0"
"1573136849183","2849403.0"
"1573136849238","2852784.0"
"1573136849284","2856825.0"
"1573136849334","2860080.0"
"1573136849384","2862703.0"
"1573136849432","2868067.0"
"1573136849482","2875975.0"
"1573136849530","2879571.0"
"1573136849575","2871434.0"
"1573136849625","2864761.0"
"1573136849675","2860198.0"
"1573136849726","2859507.0"
"1573136849774","2860265.0"
"1573136849825","2861023.0"
"1573136849866","2862301.0"
"1573136849921","2863811.0"
"1573136849966","2868670.0"
"1573136850018","2872244.0"
"1573136850064","2874689.0"
"1573136850115","2880024.0"
"1573136850166","2883256.0"
"1573136850213","2888279.0"
"1573136850262","2895108.0"
"1573136850304","2897804.0"
"1573136850360","2893525.0"
"1573136850406","2885692.0"
"1573136850456","2882245.0"
"1573136850501","2883106.0"
"1573136850550","2884437.0"
"1573136850604","2887669.0"
"1573136850650","2886444.0"
"1573136850700","2888005.0"
"1573136850746","2891280.0"
"1573136850798","2893531.0"
"1573136850847","2898629.0"
"1573136850895","2900790.0"
"1573136850944","2905085.0"
"1573136850994","2908044.0"
"1573136851037","2915051.0"
"1573136851086","2916439.0"
"1573136851140","2907790.0"
"1573136851188","2899208.0"
"1573136851236","2896243.0"
"1573136851285","2897091.0"
"1573136851334","2898793.0"
"1573136851384","2899632.0"
"1573136851432","2900360.0"
"1573136851483","2901028.0"
"1573136851526","2904990.0"
"1573136851574","2907582.0"
"1573136851621","2913816.0"
"1573136851675","2916685.0"
"1573136851725","2922577.0"
"1573136851772","2924806.0"
"1573136851821","2930178.0"
"1573136851867","2937437.0"
"1573136851920","2933276.0"
"1573136851968","2923217.0"
"1573136852017","2920957.0"
"1573136852063","2918343.0"
"1573136852110","2920667.0"
"1573136852166","2922392.0"
"1573136852207","2921730.0"
"1573136852261","2922384.0"
"1573136852308","2925208.0"
"1573136852359","2928091.0"
"1573136852407","2932563.0"
"1573136852451","2936086.0"
"1573136852505","2938471.0"
"1573136852547","2943219.0"
"1573136852602","2948228.0"
"1573136852655","2953130.0"
"1573136852700","2948532.0"
"1573136852748","2940946.0"
"1573136852797","2937445.0"
"1573136852846","2935834.0"
"1573136852895","2940907.0"
"1573136852944","2944327.0"
"1573136852987","2944229.0"
"1573136853040","2943650.0"
"1573136853087","2944780.0"
"1573136853139","2945938.0"
"1573136853188","2950739.0"
"1573136853235","2953622.0"
"1573136853286","2956222.0"
"1573136853330","2961824.0"
"1573136853384","2967115.0"
"1573136853429","2967598.0"
"1573136853480","2958882.0"
"1573136853527","2952129.0"
"1573136853573","2946259.0"
"1573136853626","2948443.0"
"1573136853673","2950680.0"
"1573136853718","2949690.0"
"1573136853769","2947453.0"
"1573136853817","2948605.0"
"1573136853869","2949245.0"
"1573136853920","2953882.0"
"1573136853966","2953510.0"
"1573136854016","2956676.0"
"1573136854064","2961773.0"
"1573136854108","2965577.0"
"1573136854164","2968029.0"
"1573136854212","2960800.0"
"1573136854257","2952766.0"
"1573136854308","2946830.0"
"1573136854358","2945174.0"
"1573136854406","2947246.0"
"1573136854450","2948577.0"
"1573136854504","2944682.0"
"1573136854550","2946058.0"
"1573136854601","2946474.0"
"1573136854649","2948035.0"
"1573136854694","2950196.0"
"1573136854748","2953770.0"
"1573136854792","2957708.0"
"1573136854845","2960345.0"
"1573136854891","2965264.0"
"1573136854943","2966714.0"
"1573136854991","2956972.0"
"1573136855041","2946799.0"
"1573136855082","2944371.0"
"1573136855134","2942023.0"
"1573136855181","2946830.0"
"1573136855232","2945426.0"
"1573136855278","2944371.0"
"1573136855331","2944288.0"
"1573136855377","2945277.0"
"1573136855423","2948093.0"
"1573136855476","2950820.0"
"1573136855521","2954735.0"
"1573136855571","2960465.0"
"1573136855620","2962165.0"
"1573136855671","2962797.0"
"1573136855720","2953518.0"
"1573136855768","2943494.0"
"1573136855817","2942297.0"
"1573136855865","2942238.0"
"1573136855915","2945479.0"
"1573136855963","2947299.0"
"1573136856013","2944095.0"
"1573136856060","2942246.0"
"1573136856113","2944288.0"
"1573136856159","2946377.0"
"1573136856206","2951497.0"
"1573136856257","2954869.0"
"1573136856305","2957828.0"
"1573136856355","2961623.0"
"1573136856403","2961735.0"
"1573136856454","2949556.0"
"1573136856501","2938812.0"
"1573136856550","2934458.0"
"1573136856599","2932051.0"
"1573136856647","2936450.0"
"1573136856698","2934777.0"
"1573136856744","2933211.0"
"1573136856794","2931754.0"
"1573136856843","2931679.0"
"1573136856894","2933760.0"
"1573136856940","2937467.0"
"1573136856989","2941108.0"
"1573136857038","2942171.0"
"1573136857085","2947714.0"
"1573136857136","2951430.0"
"1573136857184","2943055.0"
"1573136857234","2930060.0"
"1573136857281","2922904.0"
"1573136857330","2919828.0"
"1573136857380","2919998.0"
"1573136857427","2922227.0"
"1573136857477","2920706.0"
"1573136857524","2918698.0"
"1573136857575","2917890.0"
"1573136857622","2918460.0"
"1573136857674","2918846.0"
"1573136857721","2923351.0"
"1573136857769","2925074.0"
"1573136857819","2929145.0"
"1573136857867","2932979.0"
"1573136857918","2938804.0"
"1573136857965","2936517.0"
"1573136858015","2923357.0"
"1573136858063","2912798.0"
"1573136858116","2910518.0"
"1573136858159","2908399.0"
"1573136858210","2909655.0"
"1573136858263","2909196.0"
"1573136858310","2904149.0"
"1573136858362","2903734.0"
"1573136858409","2904165.0"
"1573136858454","2906520.0"
"1573136858507","2908466.0"
"1573136858548","2910443.0"
"1573136858599","2918757.0"
"1573136858653","2919954.0"
"1573136858702","2915183.0"
"1573136858749","2905035.0"
"1573136858793","2895916.0"
"1573136858847","2893941.0"
"1573136858897","2894973.0"
"1573136858946","2895611.0"
"1573136858994","2896950.0"
"1573136859044","2892135.0"
"1573136859091","2893220.0"
"1573136859142","2895211.0"
"1573136859189","2897470.0"
"1573136859234","2898956.0"
"1573136859282","2902345.0"
"1573136859335","2905175.0"
"1573136859384","2903942.0"
"1573136859434","2888175.0"
"1573136859483","2874851.0"
"1573136859530","2868282.0"
"1573136859575","2866708.0"
"1573136859628","2868796.0"
"1573136859672","2867480.0"
"1573136859726","2866381.0"
"1573136859774","2861395.0"
"1573136859824","2863640.0"
"1573136859871","2863766.0"
"1573136859922","2866968.0"
"1573136859969","2867653.0"
"1573136860017","2873150.0"
"1573136860063","2873886.0"
"1573136860115","2862681.0"
"1573136860165","2845813.0"
"1573136860208","2834706.0"
"1573136860260","2832156.0"
"1573136860309","2831443.0"
"1573136860358","2831398.0"
"1573136860409","2827192.0"
"1573136860453","2825025.0"
"1573136860504","2823789.0"
"1573136860548","2825841.0"
"1573136860600","2828604.0"
"1573136860648","2833635.0"
"1573136860701","2836400.0"
"1573136860745","2842284.0"
"1573136860793","2845525.0"
"1573136860848","2835405.0"
"1573136860896","2818730.0"
"1573136860945","2811566.0"
"1573136860993","2808009.0"
"1573136861038","2809524.0"
"1573136861090","2808364.0"
"1573136861137","2802531.0"
"1573136861187","2798437.0"
"1573136861238","2796328.0"
"1573136861286","2798468.0"
"1573136861333","2799916.0"
"1573136861380","2803037.0"
"1573136861431","2809234.0"
"1573136861478","2809480.0"
"1573136861529","2800822.0"
"1573136861575","2785129.0"
"1573136861628","2775895.0"
"1573136861675","2771525.0"
"1573136861721","2774178.0"
"1573136861773","2772803.0"
"1573136861819","2771399.0"
"1573136861865","2768440.0"
"1573136861920","2768605.0"
"1573136861962","2770188.0"
"1573136862014","2773776.0"
"1573136862061","2777425.0"
"1573136862110","2781452.0"
"1573136862161","2785271.0"
"1573136862213","2790168.0"
"1573136862260","2780070.0"
"1573136862310","2765565.0"
"1573136862359","2755023.0"
"1573136862403","2750051.0"
"1573136862456","2747859.0"
"1573136862499","2746424.0"
"1573136862553","2743230.0"
"1573136862604","2740459.0"
"1573136862650","2736201.0"
"1573136862700","2741343.0"
"1573136862747","2742607.0"
"1573136862797","2746298.0"
"1573136862841","2750222.0"
"1573136862894","2755437.0"
"1573136862943","2761851.0"
"1573136862992","2752540.0"
"1573136863041","2737814.0"
"1573136863089","2729632.0"
"1573136863139","2727686.0"
"1573136863182","2728606.0"
"1573136863237","2729551.0"
"1573136863280","2727344.0"
"1573136863335","2726928.0"
"1573136863381","2728399.0"
"1573136863432","2731877.0"
"1573136863477","2736483.0"
"1573136863530","2741774.0"
"1573136863576","2747020.0"
"1573136863628","2750118.0"
"1573136863677","2742977.0"
"1573136863720","2733600.0"
"1573136863773","2727121.0"
"1573136863823","2728978.0"
"1573136863866","2732680.0"
"1573136863921","2735591.0"
"1573136863969","2735412.0"
"1573136864013","2736461.0"
"1573136864063","2739106.0"
"1573136864117","2742836.0"
"1573136864159","2748261.0"
"1573136864214","2755913.0"
"1573136864261","2761226.0"
"1573136864311","2767349.0"
"1573136864361","2758365.0"
"1573136864409","2747867.0"
"1573136864459","2746105.0"
"1573136864508","2747613.0"
"1573136864555","2751128.0"
"1573136864603","2754553.0"
"1573136864653","2753468.0"
"1573136864703","2752644.0"
"1573136864751","2753521.0"
"1573136864800","2757928.0"
"1573136864848","2760988.0"
"1573136864899","2768225.0"
"1573136864945","2773524.0"
"1573136864995","2778554.0"
"1573136865041","2772542.0"
"1573136865088","2762305.0"
"1573136865142","2757325.0"
"1573136865188","2751872.0"
"1573136865240","2747280.0"
"1573136865470","2746069.0"
"1573136865470","2749131.0"
"1573136865470","2749732.0"
"1573136865470","2752526.0"
"1573136865504","2759570.0"
"1573136865552","2772179.0"
"1573136865577","2775247.0"
"1573136865625","2775308.0"
"1573136865680","2775761.0"
"1573136865721","2777022.0"
"1573136865777","2767520.0"
"1573136865824","2761910.0"
"1573136865874","2766116.0"
"1573136865923","2772595.0"
"1573136865971","2777067.0"
"1573136866020","2779676.0"
"1573136866065","2782766.0"
"1573136866119","2785280.0"
"1573136866164","2788859.0"
"1573136866216","2792196.0"
"1573136866266","2795822.0"
"1573136866312","2802881.0"
"1573136866363","2808380.0"
"1573136866410","2810624.0"
"1573136866461","2803965.0"
"1573136866503","2798065.0"
"1573136866558","2797956.0"
"1573136866607","2800548.0"
"1573136866654","2805757.0"
"1573136866704","2804175.0"
"1573136866748","2805475.0"
"1573136866889","2809583.0"
"1573136866889","2811723.0"
"1573136866907","2817229.0"
"1573136867064","2820425.0"
"1573136867064","2827416.0"
"1573136867064","2832298.0"
"1573136867099","2824200.0"
"1573136867140","2815825.0"
"1573136867187","2812013.0"
"1573136867237","2811767.0"
"1573136867283","2813521.0"
"1573136867339","2816977.0"
"1573136867385","2815802.0"
"1573136867436","2816062.0"
"1573136867485","2820492.0"
"1573136867534","2824527.0"
"1573136867580","2828434.0"
"1573136867633","2831504.0"
"1573136867681","2838473.0"
"1573136867723","2841437.0"
"1573136867774","2837715.0"
"1573136867825","2826932.0"
"1573136867875","2823121.0"
"1573136867926","2822304.0"
"1573136867974","2823702.0"
"1573136868023","2826309.0"
"1573136868067","2828990.0"
"1573136868121","2829734.0"
"1573136868163","2833970.0"
"1573136868218","2836971.0"
"1573136868266","2840441.0"
"1573136868311","2845123.0"
"1573136868364","2848778.0"
"1573136868413","2854306.0"
"1573136868462","2859879.0"
"1573136868504","2863193.0"
"1573136868562","2856529.0"
"1573136868606","2849395.0"
"1573136868657","2848162.0"
"1573136868705","2846876.0"
"1573136868754","2851856.0"
"1573136868804","2854068.0"
"1573136868847","2854284.0"
"1573136868903","2856537.0"
"1573136868945","2860080.0"
"1573136868998","2864048.0"
"1573136869046","2871226.0"
"1573136869096","2873307.0"
"1573136869145","2878047.0"
"1573136869188","2882616.0"
"1573136869243","2890723.0"
"1573136869284","2887602.0"
"1573136869340","2884467.0"
"1573136869386","2878545.0"
"1573136869438","2880203.0"
"1573136869485","2883768.0"
"1573136869534","2887602.0"
"1573136869582","2888220.0"
"1573136869630","2890105.0"
"1573136869682","2893413.0"
"1573136869727","2895961.0"
"1573136869779","2901705.0"
"1573136869826","2906187.0"
"1573136869876","2909246.0"
"1573136869925","2914917.0"
"1573136869969","2918692.0"
"1573136870023","2918625.0"
"1573136870065","2911282.0"
"1573136870121","2906906.0"
"1573136870168","2907515.0"
"1573136870217","2908036.0"
"1573136870266","2910955.0"
"1573136870315","2910874.0"
"1573136870365","2911380.0"
"1573136870408","2914716.0"
"1573136870455","2916699.0"
"1573136870507","2921402.0"
"1573136870557","2925364.0"
"1573136870608","2930253.0"
"1573136870657","2934651.0"
"1573136870706","2939956.0"
"1573136870752","2946570.0"
"1573136870804","2940454.0"
"1573136870848","2932646.0"
"1573136870903","2930045.0"
"1573136870949","2928046.0"
"1573136870997","2929814.0"
"1573136871042","2934176.0"
"1573136871092","2935574.0"
"1573136871144","2936917.0"
"1573136871188","2938217.0"
"1573136871242","2942037.0"
"1573136871289","2944556.0"
"1573136871340","2947067.0"
"1573136871388","2951511.0"
"1573136871437","2957834.0"
"1573136871486","2960822.0"
"1573136871535","2958630.0"
"1573136871579","2951704.0"
"1573136871628","2951698.0"
"1573136871679","2952336.0"
"1573136871728","2957307.0"
"1573136871779","2959217.0"
"1573136871827","2958488.0"
"1573136871876","2961863.0"
"1573136871925","2965168.0"
"1573136871968","2968563.0"
"1573136872022","2971225.0"
"1573136872071","2973826.0"
"1573136872121","2981776.0"
"1573136872168","2987005.0"
"1573136872219","2981085.0"
"1573136872266","2977361.0"
"1573136872314","2973706.0"
"1573136872365","2974850.0"
"1573136872409","2978527.0"
"1573136872462","2981522.0"
"1573136872510","2981337.0"
"1573136872562","2982028.0"
"1573136872606","2983275.0"
"1573136872652","2985400.0"
"1573136872705","2989978.0"
"1573136872749","2993806.0"
"1573136872804","2997646.0"
"1573136872850","3000285.0"
"1573136872901","2995951.0"
"1573136872948","2987430.0"
"1573136872999","2984710.0"
"1573136873040","2985327.0"
"1573136873094","2984525.0"
"1573136873145","2987162.0"
"1573136873193","2988328.0"
"1573136873243","2987652.0"
"1573136873290","2990082.0"
